1541859455.00
64.000000
-0.00
-0.00
-0.00
-0.00
-0.00
-0.00
-0.00
-0.00
-0.00
-0.01
-0.00
0.00
0.01
0.01
-0.00
-0.03
-0.05
-0.05
-0.00
0.13
0.36
0.66
1.01
1.37
1.72
2.06
2.40
2.77
3.24
3.80
4.43
5.07
5.69
6.25
6.78
7.31
7.91
8.73
9.76
10.95
12.20
13.39
14.46
15.48
16.61
17.99
19.99
22.56
25.57
28.72
31.73
34.46
37.04
39.81
43.11
47.58
53.20
59.69
66.53
73.19
79.41
85.34
91.50
98.44
107.06
117.34
128.87
140.86
152.52
163.44
173.82
185.37
196.24
208.44
222.54
239.13
258.30
279.01
298.67
313.28
318.36
310.26
288.16
253.47
209.84
161.58
112.31
64.26
18.28
-25.57
-67.53
-107.36
-145.05
-180.36
-212.86
-242.07
-267.21
-287.54
-302.94
-313.87
-321.41
-326.93
-331.48
-335.60
-339.82
-345.00
-352.04
-361.45
-371.61
-379.10
-379.79
-370.65
-351.86
-326.66
-300.00
-275.59
-253.83
-232.20
-207.28
-177.92
-146.49
-118.27
-98.22
-87.73
-83.75
-80.04
-70.77
-53.81
-31.62
-9.72
6.82
16.60
22.54
30.05
43.16
61.82
80.94
93.24
93.41
81.25
62.55
45.77
37.72
40.07
48.49
55.90
56.32
48.76
37.79
30.68
33.17
45.66
63.23
77.52
81.44
73.25
56.67
39.29
27.98
25.34
28.72
32.13
30.58
22.75
12.49
6.16
8.65
20.42
36.44
49.07
52.11
44.23
30.07
17.38
12.54
17.03
26.14
32.19
28.79
15.17
-3.10
-17.34
-20.50
-11.68
3.77
17.06
21.17
15.39
4.88
-1.91
1.17
14.30
31.54
44.10
45.84
36.34
21.42
9.45
6.37
12.62
22.67
28.56
24.64
10.82
-7.04
-20.66
-24.04
-16.64
-3.85
6.59
8.61
1.64
-9.16
-16.33
-14.25
-3.02
11.95
22.55
22.66
11.83
-5.10
-20.25
-27.42
-25.24
-17.50
-10.68
-9.78
-15.69
-24.39
-29.50
-26.11
-13.64
3.33
17.80
23.73
19.64
9.55
0.30
-2.20
3.23
12.45
18.43
15.34
2.50
-15.38
-30.51
-36.49
-32.03
-21.22
-11.29
-7.97
-12.10
-19.53
-23.45
-19.04
-6.23
9.65
21.10
22.80
14.55
1.90
-7.40
-7.61
1.54
14.63
24.00
24.02
14.67
1.90
-6.29
-4.07
8.29
24.84
37.07
38.91
30.65
18.14
9.73
11.01
21.60
35.60
45.08
45.15
36.70
25.91
20.58
25.16
38.54
54.11
63.92
63.03
52.24
37.90
27.94
27.42
35.59
46.16
51.35
46.22
32.06
16.16
7.28
11.04
26.01
44.57
56.82
55.72
41.28
20.02
1.52
-6.70
-3.04
8.09
18.77
22.26
16.48
4.67
-6.54
-11.34
-7.93
0.55
7.85
8.58
1.61
-9.12
-16.68
-15.48
-4.76
10.45
22.16
23.91
14.55
-0.67
-13.34
-16.54
-8.85
4.88
16.55
19.48
12.33
-0.42
-11.16
-13.96
-7.96
2.33
9.81
9.38
1.04
-10.19
-17.28
-15.63
-5.84
6.69
14.89
14.25
5.53
-5.87
-13.15
-12.21
-4.04
5.82
10.69
6.57
-5.23
-18.39
-25.21
-20.85
-6.33
11.58
23.87
24.02
11.91
-5.97
-19.84
-21.95
-10.79
7.94
24.68
31.18
25.08
11.06
-2.36
-8.00
-4.10
4.69
10.83
8.60
-2.16
-15.65
-24.08
-22.28
-11.16
2.60
10.98
8.91
-2.50
-16.39
-24.67
-22.36
-10.65
3.82
13.17
12.24
1.58
-12.68
-22.75
-22.99
-13.22
1.33
13.13
16.10
9.06
-3.38
-13.85
-16.10
-8.77
3.67
13.83
15.42
7.29
-5.58
-15.29
-15.59
-5.81
8.36
18.63
18.85
8.74
-5.62
-15.80
-16.09
-6.81
5.63
13.03
10.35
-1.25
-14.88
-22.16
-18.46
-5.62
8.87
16.44
12.53
-0.77
-15.76
-23.52
-19.12
-4.21
13.72
25.66
25.82
14.70
-1.50
-14.27
-17.51
-10.49
1.95
12.21
14.37
7.42
-4.34
-13.72
-14.93
-7.03
5.48
15.28
16.69
9.32
-1.66
-8.63
-6.30
4.84
18.61
26.74
23.69
10.20
-7.06
-19.31
-20.76
-11.71
1.54
10.52
9.45
-1.41
-15.95
-25.68
-24.83
-13.42
2.50
14.23
15.51
6.16
-8.06
-18.65
-19.59
-10.93
1.62
10.15
9.54
0.73
-10.02
-15.24
-10.62
1.89
15.30
22.12
18.26
5.76
-8.41
-16.70
-15.10
-5.08
6.99
13.86
11.44
0.69
-12.19
-19.39
-16.12
-2.79
14.35
26.51
27.44
16.90
0.57
-12.52
-15.59
-7.97
4.91
14.49
14.33
4.32
-9.50
-18.92
-18.22
-7.96
5.30
13.56
11.69
0.63
-12.84
-20.49
-17.45
-4.67
10.95
20.70
19.24
7.17
-9.15
-20.84
-21.91
-12.22
2.72
14.59
17.19
10.14
-1.47
-10.11
-10.16
-1.70
9.77
16.82
14.46
3.42
-9.86
-17.37
-14.32
-2.07
12.19
19.72
15.63
1.71
-14.40
-23.43
-19.98
-5.51
12.60
24.88
25.02
13.36
-3.94
-18.21
-23.20
-18.20
-7.90
0.71
2.55
-2.36
-9.26
-11.90
-6.50
5.25
16.91
21.27
14.80
0.26
-14.38
-20.67
-14.91
-0.13
15.35
22.67
17.55
2.71
-13.99
-23.73
-21.65
-9.72
5.04
14.51
13.92
4.66
-6.75
-12.83
-9.75
0.71
11.70
15.68
9.06
-5.23
-19.44
-25.05
-18.11
-1.91
15.17
24.42
21.68
9.85
-3.08
-9.03
-4.53
7.67
20.07
25.18
19.95
7.44
-5.26
-10.93
-6.50
4.98
16.45
20.81
14.71
0.75
-13.85
-21.54
-18.75
-7.54
5.05
11.29
7.32
-4.37
-16.68
-21.65
-15.34
-0.57
14.80
22.28
17.78
3.97
-11.11
-18.92
-15.63
-4.27
7.35
11.36
4.79
-8.34
-19.86
-22.24
-13.23
2.82
17.46
23.23
17.51
3.80
-10.31
-17.53
-14.66
-3.91
8.34
15.14
12.86
3.13
-8.34
-14.84
-12.67
-3.60
6.25
10.19
5.05
-6.67
-17.97
-21.68
-14.92
-1.08
12.48
18.54
14.32
3.22
-7.36
-10.67
-4.62
7.45
18.49
21.97
15.81
3.59
-7.75
-12.06
-7.37
2.99
12.16
13.67
5.47
-8.73
-21.68
-26.07
-18.64
-2.48
14.41
23.60
20.50
6.95
-9.66
-20.67
-20.91
-11.84
-0.31
5.73
2.13
-8.79
-19.78
-23.02
-15.54
-1.07
12.22
16.65
9.73
-4.19
-16.43
-19.42
-11.26
3.34
16.05
19.87
13.17
0.78
-9.31
-10.82
-2.85
9.71
19.29
20.19
11.99
-0.30
-9.29
-9.83
-1.62
10.72
20.32
22.00
15.20
4.13
-5.03
-7.34
-2.08
6.98
13.78
13.34
4.92
-7.50
-17.25
-18.87
-10.97
2.38
13.83
16.89
9.46
-4.84
-18.72
-25.03
-20.91
-9.61
1.65
5.90
0.62
-10.86
-21.02
-22.80
-14.21
0.32
12.66
15.87
8.36
-4.61
-14.14
-13.05
-0.63
17.07
30.68
32.73
22.20
5.17
-8.78
-12.33
-4.41
9.53
20.46
21.12
10.25
-6.51
-20.18
-23.32
-13.98
2.99
18.44
24.09
17.25
1.88
-13.71
-21.47
-18.13
-7.29
3.10
5.75
-1.65
-14.80
-25.39
-26.21
-15.82
0.28
12.83
14.37
3.87
-12.59
-25.17
-25.90
-13.62
5.64
22.06
27.59
20.55
6.41
-5.76
-8.79
-1.18
11.89
21.89
22.14
12.00
-2.80
-13.73
-14.40
-4.26
10.80
21.93
22.55
12.12
-3.60
-16.06
-18.73
-10.69
2.93
14.11
16.76
10.37
0.01
-7.09
-5.85
3.60
15.84
23.32
20.99
9.51
-5.01
-14.57
-13.96
-3.37
11.20
21.20
20.43
8.61
-8.33
-21.69
-24.68
-16.18
-1.62
10.13
11.90
2.59
-12.03
-22.94
-23.05
-11.62
5.28
17.92
18.61
6.30
-12.65
-28.25
-32.42
-23.28
-5.98
9.94
15.87
8.83
-7.04
-22.86
-30.09
-24.96
-10.50
5.12
13.19
9.37
-3.59
-17.52
-23.78
-18.33
-3.91
11.76
20.40
17.97
7.10
-4.79
-10.10
-5.62
5.90
17.71
23.22
20.00
11.19
3.26
1.79
8.03
17.92
24.40
21.82
9.63
-6.81
-19.09
-20.39
-9.56
7.79
22.27
25.73
15.89
-2.40
-19.90
-28.09
-23.95
-11.50
0.91
5.51
-0.43
-13.00
-24.18
-26.61
-17.95
-2.36
12.25
18.64
14.43
3.29
-7.32
-10.71
-4.65
7.38
18.30
21.75
15.87
4.59
-4.90
-6.51
1.17
13.91
24.10
24.91
14.50
-2.73
-18.44
-24.88
-19.14
-4.75
10.35
18.05
14.46
1.92
-12.51
-20.99
-19.34
-9.48
2.11
8.44
6.26
-2.08
-10.32
-12.34
-5.97
5.47
14.87
15.77
6.57
-8.17
-20.14
-22.14
-12.37
4.59
20.12
26.17
19.76
4.58
-11.02
-18.80
-15.35
-3.92
7.76
12.34
7.38
-3.24
-11.88
-11.89
-1.84
13.47
25.27
26.04
13.96
-5.57
-22.83
-29.19
-21.87
-5.29
11.37
19.39
15.12
1.79
-12.53
-19.58
-15.54
-3.16
9.77
15.14
9.59
-3.47
-16.10
-20.54
-13.75
0.88
15.29
21.50
16.00
1.83
-13.16
-20.82
-17.41
-5.63
6.89
12.51
8.24
-2.54
-12.39
-14.32
-6.06
8.50
21.40
25.12
16.94
0.69
-15.31
-23.01
-19.13
-6.85
6.09
12.16
8.53
-1.45
-10.63
-12.31
-4.36
9.44
21.47
24.53
16.07
-0.14
-16.11
-24.05
-20.66
-8.82
4.14
10.84
8.19
-0.96
-9.92
-11.98
-4.65
8.82
21.14
25.10
17.80
2.59
-12.76
-20.49
-17.10
-5.39
7.24
13.19
9.18
-1.77
-12.44
-15.60
-8.39
5.86
19.44
24.76
18.60
4.03
-11.42
-20.02
-18.00
-7.46
4.91
11.69
9.08
-0.69
-10.84
-13.86
-6.13
9.45
24.93
31.86
26.31
11.26
-5.27
-15.03
-14.08
-4.77
5.92
10.61
5.54
-7.20
-21.04
-28.48
-25.25
-12.82
1.98
11.01
9.59
-0.36
-11.55
-15.74
-9.17
5.06
18.79
23.95
17.36
2.62
-12.34
-19.95
-16.96
-5.91
6.52
13.17
10.24
-0.52
-12.78
-18.98
-14.68
-1.44
13.83
22.89
21.14
10.61
-1.51
-7.52
-3.92
6.61
17.07
20.53
14.12
0.55
-13.70
-21.80
-20.02
-9.54
3.93
13.09
12.94
3.90
-8.19
-15.26
-12.02
0.43
15.01
23.05
19.80
7.53
-6.27
-13.79
-11.53
-2.07
7.91
11.92
7.14
-4.33
-16.83
-24.14
-22.42
-12.13
1.66
11.66
12.14
2.62
-11.25
-20.51
-18.38
-4.75
13.16
25.11
24.39
12.13
-3.75
-13.82
-12.95
-3.16
8.28
13.63
9.27
-2.60
-15.67
-23.11
-21.08
-10.46
3.47
13.56
14.45
5.78
-7.27
-16.54
-15.66
-4.20
11.70
22.91
22.97
12.35
-2.01
-11.31
-10.34
-0.40
11.79
18.52
15.40
3.57
-11.38
-22.43
-24.47
-16.74
-3.24
9.10
13.81
8.63
-2.78
-12.67
-13.83
-4.41
10.42
21.59
22.04
11.66
-2.65
-11.62
-9.78
1.15
13.66
19.67
15.51
3.70
-9.35
-17.33
-17.21
-10.08
-0.13
7.65
9.38
3.83
-6.77
-17.24
-21.59
-16.64
-4.38
8.36
13.61
7.55
-6.31
-18.87
-21.15
-10.44
7.58
22.40
25.64
16.48
1.94
-8.18
-7.74
2.00
13.80
19.72
16.11
5.30
-6.59
-13.57
-12.89
-5.82
3.55
10.60
11.98
6.69
-3.32
-13.48
-18.32
-14.40
-2.82
10.51
17.68
13.53
-0.39
-15.98
-23.38
-17.33
-1.16
14.98
20.58
11.90
-5.30
-19.46
-20.86
-8.21
10.54
23.61
23.27
10.77
-4.80
-12.99
-8.81
4.29
17.13
21.25
14.20
0.63
-11.43
-15.81
-11.59
-2.94
4.17
5.79
1.75
-5.19
-11.50
-14.80
-14.42
-10.88
-5.33
0.86
5.96
8.08
6.13
0.93
-4.68
-7.05
-4.12
2.81
9.41
10.72
4.59
-6.37
-15.79
-17.37
-9.09
4.94
16.55
18.48
9.01
-6.54
-18.61
-19.22
-7.14
11.00
24.50
25.02
11.77
-7.86
-22.43
-23.26
-9.85
9.71
23.54
22.98
8.04
-12.68
-27.03
-26.45
-11.42
8.86
22.01
20.05
4.31
-15.21
-25.91
-20.16
-0.06
23.43
37.00
32.90
13.56
-9.85
-23.87
-20.69
-2.69
19.08
31.33
26.50
7.24
-15.34
-28.24
-24.19
-6.06
15.00
26.16
20.56
1.54
-19.33
-29.35
-22.20
-1.90
19.47
28.93
20.31
-1.88
-24.99
-35.54
-27.23
-4.66
19.30
30.80
23.05
0.27
-24.72
-37.76
-31.35
-8.92
17.23
32.88
29.69
9.84
-15.48
-32.31
-31.59
-14.02
10.62
29.12
32.01
18.43
-3.79
-22.72
-28.80
-19.75
-1.30
16.39
24.37
19.38
5.00
-10.86
-20.46
-20.06
-11.30
0.49
9.66
13.28
11.84
8.05
4.66
2.66
1.35
-0.40
-2.49
-3.04
0.29
8.03
17.68
24.17
22.67
11.66
-5.22
-20.17
-25.11
-16.21
3.35
24.36
35.99
31.40
11.59
-14.63
-34.87
-39.46
-26.34
-2.10
21.33
32.78
27.32
8.48
-13.89
-28.78
-29.52
-16.64
3.05
20.28
27.98
24.27
12.28
-2.37
-14.82
-23.06
-27.91
-31.17
-33.49
-33.47
-28.83
-18.53
-4.47
8.59
15.41
13.24
4.00
-6.07
-9.47
-1.61
16.26
36.95
50.57
49.54
32.66
6.11
-19.27
-33.19
-30.67
-14.13
8.07
25.88
32.26
26.14
11.99
-3.10
-13.16
-15.76
-12.18
-5.69
1.00
7.14
13.51
20.72
27.60
31.10
28.21
18.47
5.42
-4.02
-2.88
11.83
36.82
63.04
79.44
77.69
55.72
18.68
-22.90
-56.99
-74.23
-71.02
-50.79
-22.48
3.20
18.02
19.11
9.15
-5.99
-20.72
-32.17
-40.33
-45.92
-48.07
-43.92
-30.81
-9.49
14.05
30.69
32.55
17.56
-8.39
-33.90
-47.44
-42.86
-22.39
4.70
27.09
36.79
32.38
18.48
2.29
-10.65
-18.72
-23.86
-28.77
-33.93
-36.30
-31.08
-15.30
8.89
33.81
49.09
46.82
26.16
-5.32
-34.67
-49.53
-43.99
-21.41
7.72
31.17
40.74
35.68
21.61
6.30
-4.85
-11.18
-15.74
-21.87
-29.63
-34.88
-31.59
-16.03
9.75
37.53
56.12
56.78
37.88
6.36
-25.33
-44.98
-46.37
-31.58
-9.18
10.71
21.52
22.94
19.48
16.55
16.55
17.24
13.76
2.57
-15.02
-32.39
-40.63
-33.47
-11.13
19.01
45.49
57.96
52.09
31.34
4.81
-17.66
-30.22
-33.14
-31.21
-29.76
-30.83
-31.65
-26.74
-11.92
12.02
38.33
57.04
59.84
44.61
16.91
-12.80
-34.33
-42.44
-38.65
-29.40
-21.73
-19.13
-19.69
-17.75
-7.98
10.67
33.35
51.23
56.14
45.04
21.82
-4.70
-25.35
-35.17
-35.32
-31.42
-29.49
-31.87
-35.52
-34.07
-22.19
0.43
27.97
51.06
61.48
56.46
40.23
21.42
8.34
4.53
7.00
8.33
1.45
-15.64
-38.02
-56.33
-61.92
-51.70
-29.92
-5.68
12.13
19.51
19.00
17.47
21.52
33.03
47.74
57.56
55.14
38.34
11.92
-14.94
-33.48
-39.86
-36.75
-31.20
-30.14
-36.18
-46.04
-52.66
-49.71
-35.46
-13.90
7.34
21.47
26.36
25.44
25.30
31.40
44.61
60.25
70.55
68.93
53.84
30.07
6.49
-8.67
-12.32
-8.21
-4.67
-9.58
-25.64
-48.37
-68.65
-77.82
-72.60
-56.66
-38.31
-25.56
-21.68
-23.61
-24.23
-17.06
-0.34
21.94
42.33
54.23
55.56
49.73
43.29
41.98
47.35
55.90
61.23
57.85
44.60
25.62
8.16
-1.60
-2.18
2.16
3.84
-3.51
-20.93
-42.85
-60.14
-65.33
-57.40
-42.80
-32.03
-33.59
-48.66
-69.90
-85.06
-83.48
-61.81
-25.53
14.18
46.14
64.17
68.99
66.05
61.98
61.18
64.24
68.86
72.02
72.04
69.49
66.50
65.10
65.74
66.82
65.59
59.68
48.47
33.52
17.86
4.68
-4.11
-8.43
-9.86
-10.69
-12.79
-16.86
-22.24
-27.45
-31.02
-32.14
-31.00
-28.56
-26.05
-24.40
-23.90
-24.19
-24.55
-24.33
-23.18
-21.23
-18.89
-16.62
-14.71
-13.22
-11.96
-10.66
-9.09
-7.19
-5.02
-2.74
-0.48
1.72
3.91
6.19
8.62
11.24
13.96
16.70
19.29
21.71
24.05
26.51
29.31
32.57
36.24
40.08
43.78
46.92
49.34
51.13
52.54
53.82
54.98
55.65
55.06
52.34
46.60
37.59
25.77
12.22
-1.79
-15.21
-27.63
-39.37
-50.42
-61.70
-73.41
-84.87
-94.77
-101.92
-105.57
-105.94
-104.57
-102.70
-101.87
-103.41
-108.41
-117.23
-128.69
-139.42
-144.20
-137.58
-116.37
-82.03
-40.55
-0.56
30.10
47.47
52.59
50.13
45.51
42.32
40.97
39.76
36.62
30.71
22.93
15.31
9.89
7.76
8.67
10.77
11.75
9.69
4.10
-3.93
-11.83
-16.74
-16.33
-9.57
3.39
22.01
45.19
70.96
95.10
111.32
113.27
98.10
69.13
35.53
8.80
-2.67
2.39
17.76
33.60
41.07
36.73
22.96
5.04
-12.66
-28.78
-44.51
-61.35
-79.21
-96.18
-109.64
-118.05
-121.81
-123.15
-125.08
-129.73
-137.40
-146.47
-154.06
-157.23
-154.26
-145.13
-131.50
-115.54
-99.08
-82.98
-67.04
-50.49
-32.65
-13.53
6.04
24.64
40.89
54.02
64.13
72.05
78.79
85.18
91.42
97.18
101.91
105.29
107.49
109.11
110.89
113.22
115.88
118.11
119.02
118.11
115.69
112.74
110.49
109.70
110.19
111.02
111.24
110.69
110.32
111.45
114.48
118.02
119.15
115.02
104.65
89.70
73.40
58.39
44.83
30.52
13.00
-7.83
-28.57
-43.80
-49.24
-44.63
-34.29
-24.90
-21.73
-25.91
-34.30
-41.98
-45.51
-44.99
-43.71
-45.86
-53.95
-66.92
-80.50
-89.27
-89.51
-81.22
-68.41
-57.00
-51.74
-53.51
-58.63
-60.81
-54.65
-38.74
-16.74
4.40
18.12
21.76
17.77
11.81
9.10
11.10
14.62
13.77
3.82
-15.40
-38.45
-56.53
-61.98
-52.46
-32.48
-11.20
2.29
3.90
-3.43
-11.61
-12.29
-1.71
16.97
35.72
46.40
45.41
35.54
23.67
16.14
14.72
15.60
12.07
-0.83
-22.38
-45.68
-61.00
-61.06
-45.23
-20.12
3.91
18.15
20.01
13.78
7.54
7.84
15.69
25.82
30.00
22.16
2.51
-22.03
-41.31
-47.38
-38.64
-20.47
-2.03
8.96
10.36
6.45
4.76
11.00
25.04
40.37
47.63
39.91
17.24
-12.86
-38.78
-50.65
-44.98
-26.13
-3.50
13.60
20.69
19.75
16.90
17.80
23.72
30.40
30.73
19.36
-3.39
-30.65
-51.97
-58.51
-47.42
-23.28
4.36
25.78
35.70
34.90
28.37
21.38
16.06
10.47
0.83
-14.97
-34.51
-51.08
-56.83
-47.30
-24.34
4.20
28.09
39.56
36.94
24.86
11.06
1.92
-0.81
-0.26
-1.68
-8.37
-18.86
-27.24
-26.46
-12.97
10.40
34.83
49.49
46.87
26.96
-2.43
-29.24
-42.93
-39.19
-21.52
1.32
20.06
29.39
29.63
25.01
19.90
15.61
9.86
-0.89
-17.70
-36.78
-50.33
-50.45
-33.93
-5.03
25.57
45.40
46.03
27.38
-2.11
-29.40
-43.07
-38.35
-18.78
6.26
26.48
35.52
33.02
23.46
12.63
4.31
-1.11
-5.43
-10.16
-14.51
-15.52
-10.32
1.00
14.27
22.50
19.59
4.14
-18.68
-38.97
-46.79
-37.49
-14.56
11.59
28.60
28.47
11.73
-12.66
-31.79
-35.44
-21.18
4.58
29.95
43.54
40.06
22.60
0.55
-15.36
-18.36
-8.57
7.93
22.79
29.86
27.71
19.10
8.39
-1.19
-8.85
-15.26
-20.78
-24.09
-22.66
-14.71
-1.42
12.39
19.98
16.12
0.41
-21.50
-39.85
-45.44
-34.51
-11.13
14.31
30.16
29.40
13.41
-8.76
-25.21
-27.45
-14.72
5.91
23.56
29.36
21.21
4.58
-10.65
-15.70
-7.67
9.00
25.08
31.74
25.56
10.43
-4.76
-11.31
-5.64
8.81
23.74
30.82
26.40
13.22
-1.60
-10.89
-11.26
-4.52
4.01
8.86
7.58
1.65
-4.86
-8.17
-7.10
-3.71
-1.74
-3.96
-10.13
-16.82
-19.37
-15.00
-4.88
6.10
12.11
9.93
1.13
-8.70
-13.50
-10.64
-2.83
3.64
3.08
-5.55
-17.37
-24.29
-20.15
-4.93
14.66
28.63
29.44
16.44
-3.55
-20.15
-25.29
-17.71
-3.38
8.15
9.50
-0.14
-14.44
-23.56
-19.98
-3.12
19.72
36.96
38.99
23.63
-2.16
-25.72
-35.42
-27.10
-6.46
14.14
22.85
15.24
-3.03
-19.57
-22.93
-9.77
12.82
31.41
34.32
18.76
-7.28
-29.70
-36.65
-25.39
-3.59
15.63
21.61
12.26
-5.17
-18.92
-20.11
-7.80
10.78
24.83
26.37
14.57
-4.11
-20.01
-25.67
-19.63
-6.54
5.96
11.72
9.15
1.61
-5.16
-6.62
-2.17
4.72
8.84
6.68
-1.22
-10.40
-15.14
-12.10
-2.72
7.39
11.68
6.74
-5.34
-17.77
-22.75
-16.13
-0.07
17.68
27.57
23.28
5.16
-19.39
-39.25
-44.89
-33.10
-8.63
17.93
35.12
36.06
21.72
0.28
-17.02
-21.56
-11.47
7.75
26.37
35.53
31.71
18.28
3.30
-5.06
-2.85
7.71
19.87
26.39
23.74
13.93
2.91
-3.34
-2.54
2.78
7.24
6.24
-0.90
-10.50
-16.97
-16.59
-9.97
-1.76
2.26
-1.09
-10.09
-19.05
-21.71
-15.34
-2.79
8.87
12.58
5.68
-8.16
-20.98
-25.47
-19.38
-6.93
4.01
7.12
1.53
-7.81
-13.67
-11.57
-2.67
7.15
11.39
7.29
-2.52
-11.94
-15.41
-11.25
-2.27
6.52
11.23
11.05
7.82
4.17
1.69
0.52
0.23
1.02
3.58
8.01
12.67
14.66
11.92
5.36
-0.67
-0.89
6.99
19.68
29.49
29.08
16.83
-1.23
-14.81
-16.13
-5.47
8.62
15.02
7.75
-9.60
-26.14
-31.18
-21.50
-3.52
11.27
14.02
4.12
-10.96
-21.24
-20.85
-11.12
1.18
8.74
7.99
0.39
-9.13
-15.29
-14.70
-6.79
6.14
19.61
28.26
28.20
19.40
6.43
-3.55
-5.10
1.66
10.58
13.37
5.37
-10.60
-25.67
-30.67
-22.42
-5.99
8.74
13.38
6.29
-6.80
-16.97
-17.91
-9.22
4.04
14.87
18.24
13.32
3.49
-5.78
-9.57
-5.77
3.73
13.72
18.27
14.25
3.53
-7.63
-12.27
-7.30
4.19
14.58
16.51
7.60
-8.02
-22.31
-28.17
-23.37
-11.31
1.41
8.75
8.19
1.76
-5.38
-7.79
-2.67
8.41
20.07
25.86
21.98
9.82
-4.53
-13.77
-13.59
-5.34
4.82
9.61
5.14
-6.71
-19.38
-25.38
-20.66
-7.03
8.74
18.63
17.94
8.01
-4.51
-11.61
-8.74
2.36
14.65
19.97
14.08
-0.64
-16.52
-24.93
-21.18
-7.14
9.83
20.91
20.61
9.75
-5.01
-15.10
-14.98
-5.48
6.79
13.49
9.88
-2.02
-14.60
-19.46
-12.67
2.75
18.58
26.22
21.67
7.76
-7.62
-15.97
-13.05
-1.14
12.32
19.00
14.53
1.09
-13.73
-21.45
-17.47
-3.86
11.93
21.37
19.76
8.96
-3.91
-10.72
-7.31
4.04
15.94
20.28
13.04
-3.16
-20.37
-29.98
-27.45
-14.93
0.06
8.98
7.20
-3.22
-14.88
-19.42
-12.56
3.19
19.91
28.76
25.04
10.92
-5.80
-16.37
-15.91
-6.08
5.98
12.04
7.60
-5.17
-18.87
-25.12
-19.79
-5.55
9.55
16.82
12.00
-2.25
-17.82
-25.88
-21.65
-7.03
10.57
22.36
23.09
14.07
2.15
-4.47
-1.39
9.39
20.71
24.63
17.17
0.78
-16.76
-26.66
-23.80
-9.69
8.14
20.15
20.05
8.46
-7.73
-19.52
-21.08
-12.80
-0.67
7.57
7.01
-1.41
-11.47
-15.23
-7.81
9.26
28.38
39.87
37.34
21.41
-0.72
-19.19
-26.68
-21.90
-9.84
1.34
4.94
-0.55
-10.80
-18.59
-18.42
-9.90
2.29
11.33
12.44
5.63
-4.50
-11.46
-10.60
-1.74
10.65
19.88
20.93
13.54
2.22
-6.66
-8.76
-4.23
2.66
6.35
3.35
-5.38
-14.84
-18.86
-14.01
-2.06
10.64
16.81
12.60
-0.02
-14.32
-22.60
-20.46
-9.03
5.74
16.40
18.05
11.15
1.19
-4.70
-2.17
7.83
19.54
25.85
22.30
9.72
-5.97
-16.82
-17.28
-7.40
6.93
17.23
17.24
6.51
-9.55
-22.87
-27.20
-21.28
-9.06
2.77
8.52
6.51
-0.08
-5.58
-5.47
0.74
9.30
14.68
13.06
4.64
-6.27
-13.70
-13.46
-5.61
5.27
12.56
11.59
2.57
-9.43
-17.63
-17.48
-9.30
2.05
10.10
10.39
3.24
-6.26
-11.15
-6.88
5.76
20.68
29.90
28.04
15.43
-1.90
-15.41
-18.65
-10.82
2.75
13.50
14.52
4.43
-11.94
-26.40
-32.07
-27.00
-14.89
-2.66
3.57
2.03
-3.93
-8.50
-7.22
0.12
9.36
14.72
12.47
3.57
-6.45
-10.41
-3.84
11.98
30.14
41.37
39.05
23.03
-0.01
-19.84
-27.80
-21.46
-5.75
9.67
15.85
9.36
-6.00
-21.72
-29.60
-26.24
-14.56
-1.72
5.20
3.38
-4.32
-11.66
-12.99
-6.71
3.80
12.44
14.16
8.07
-1.84
-9.06
-8.54
0.21
12.66
21.72
21.84
12.39
-1.60
-12.23
-13.15
-3.15
13.07
27.42
32.86
27.21
14.30
1.48
-4.89
-3.11
3.13
7.38
4.58
-5.49
-17.70
-24.49
-20.59
-6.66
10.56
21.67
19.89
4.89
-16.61
-34.41
-40.08
-31.56
-14.12
2.70
10.31
5.58
-7.66
-21.22
-27.30
-22.78
-10.76
1.62
7.51
4.37
-4.72
-13.27
-15.37
-9.28
1.65
11.05
13.47
7.86
-1.64
-8.21
-6.50
4.10
18.92
30.49
32.59
23.81
8.70
-4.88
-10.08
-4.73
7.74
20.41
26.58
23.47
13.70
3.51
-1.35
1.03
7.65
12.78
11.24
1.80
-11.55
-21.64
-22.22
-11.86
5.10
20.66
27.28
21.72
6.99
-9.41
-19.80
-20.64
-14.21
-6.67
-4.16
-9.05
-18.16
-24.65
-22.27
-9.61
8.55
23.73
28.40
20.15
3.37
-12.95
-20.13
-14.61
0.13
15.92
24.60
22.44
12.02
0.53
-4.82
-1.31
7.65
14.91
14.21
4.05
-11.01
-22.68
-23.78
-12.65
5.38
20.92
25.62
16.61
-1.78
-20.26
-29.78
-26.50
-13.85
-0.15
6.49
2.67
-8.36
-18.72
-20.83
-12.15
3.06
16.19
19.47
10.44
-6.29
-21.56
-26.92
-19.49
-3.59
11.82
18.40
13.11
-0.10
-12.71
-16.80
-9.74
4.36
17.22
21.27
14.04
-0.33
-13.60
-18.22
-11.58
2.63
16.72
23.36
19.65
8.70
-2.58
-7.59
-3.87
5.58
14.23
15.97
8.75
-4.01
-15.48
-19.24
-12.91
0.45
13.95
20.66
17.31
5.81
-7.91
-17.13
-18.21
-12.33
-4.52
-0.46
-3.14
-10.87
-18.06
-18.61
-9.83
5.49
20.40
27.37
22.41
7.87
-8.75
-19.11
-18.81
-9.61
1.78
7.62
3.99
-6.55
-16.83
-19.50
-11.38
4.60
20.84
29.55
27.35
16.95
5.08
-1.34
0.80
9.16
17.48
19.72
13.54
1.48
-10.24
-15.33
-11.03
0.00
11.33
16.29
11.41
-1.26
-15.04
-22.32
-19.11
-7.10
7.12
15.49
13.22
1.76
-12.25
-20.99
-19.92
-10.44
0.99
6.84
3.28
-7.60
-19.13
-23.90
-18.18
-4.29
10.82
19.58
17.99
7.92
-3.96
-10.23
-7.05
3.62
15.26
20.64
16.16
4.19
-8.40
-14.12
-9.35
3.57
17.62
25.09
21.94
9.93
-4.47
-13.97
-14.45
-7.33
1.58
5.45
0.67
-10.88
-22.71
-27.47
-21.33
-6.41
10.07
19.79
17.92
5.87
-9.62
-20.25
-20.86
-12.12
0.25
8.94
9.20
1.74
-7.99
-13.19
-9.82
1.08
13.85
21.41
19.66
9.92
-1.83
-8.39
-5.48
5.43
18.05
25.01
21.93
10.05
-4.29
-13.55
-13.44
-5.11
5.39
10.48
5.72
-7.37
-22.38
-31.38
-29.35
-17.35
-1.83
9.35
10.95
3.55
-6.92
-12.93
-10.11
0.54
13.12
20.27
17.76
7.19
-5.27
-12.22
-9.36
1.81
14.95
22.58
20.03
8.41
-5.87
-14.93
-13.95
-3.69
9.76
18.57
17.73
7.85
-5.34
-14.32
-14.23
-5.71
5.65
12.66
10.63
0.42
-12.22
-20.04
-18.58
-8.78
3.59
11.48
10.52
1.68
-9.44
-15.92
-13.61
-3.46
8.93
16.78
16.01
7.73
-2.47
-7.78
-4.31
6.69
19.48
26.83
24.31
12.78
-2.01
-12.63
-14.04
-6.66
4.14
11.15
9.35
-1.05
-14.81
-24.88
-26.26
-18.81
-7.52
0.73
1.21
-5.92
-15.48
-20.44
-16.44
-4.28
10.39
19.85
19.03
8.51
-6.07
-16.85
-18.30
-10.64
0.81
8.86
8.37
-0.34
-11.96
-19.61
-18.58
-9.08
3.66
12.94
14.46
8.60
0.61
-2.81
2.24
14.78
29.11
37.68
35.74
23.98
7.99
-4.25
-7.16
-0.74
9.90
17.16
15.39
4.69
-9.58
-19.74
-20.13
-10.85
2.47
12.15
12.55
3.61
-9.17
-18.40
-18.98
-10.92
0.52
8.31
7.70
-1.19
-13.43
-22.20
-22.77
-15.00
-3.38
5.47
6.76
0.29
-9.37
-15.38
-12.81
-1.72
12.55
22.22
21.55
10.35
-5.67
-18.16
-20.84
-13.14
-0.51
9.08
9.91
1.92
-9.19
-15.80
-12.91
-1.20
13.28
22.76
22.23
12.41
-0.81
-9.90
-10.07
-1.78
9.51
16.63
14.93
4.88
-8.11
-16.67
-15.76
-5.41
9.28
20.81
23.60
17.08
5.92
-2.69
-3.49
3.82
14.55
21.79
20.67
11.28
-1.33
-10.29
-10.96
-3.76
6.25
12.32
9.76
-1.32
-16.13
-27.90
-31.60
-26.52
-16.59
-8.02
-5.81
-10.81
-19.32
-25.13
-23.28
-13.10
1.03
12.18
14.71
7.87
-3.67
-12.48
-12.61
-3.27
10.54
21.22
22.70
14.34
1.29
-8.82
-10.09
-2.01
10.09
18.66
18.10
8.27
-5.13
-14.33
-13.64
-2.93
11.99
23.08
24.41
15.63
2.33
-7.64
-8.48
0.09
12.39
20.50
18.69
7.03
-8.28
-18.81
-18.46
-7.15
8.78
20.59
21.82
12.03
-2.87
-14.54
-16.84
-9.39
2.18
10.14
8.89
-1.44
-15.08
-24.30
-23.54
-12.80
2.39
14.36
17.24
10.50
-1.18
-10.80
-12.92
-6.85
3.20
10.78
10.66
2.13
-10.91
-22.07
-26.07
-21.66
-12.06
-2.98
0.77
-1.84
-7.59
-11.09
-8.21
1.07
12.37
19.27
17.05
5.78
-9.26
-20.42
-21.66
-12.08
3.53
17.26
22.38
17.00
5.03
-6.16
-10.01
-4.46
6.94
17.15
19.86
13.22
0.81
-10.49
-14.75
-10.48
-1.32
6.32
7.44
1.51
-7.11
-12.03
-8.92
1.77
14.79
23.19
22.34
12.68
-0.42
-9.79
-10.52
-2.68
8.58
16.19
15.16
5.56
-7.27
-15.90
-15.04
-4.59
10.17
21.54
23.83
16.32
3.60
-7.18
-10.75
-6.36
1.96
7.94
7.05
-0.99
-11.93
-19.56
-19.53
-11.75
-0.75
6.89
6.34
-2.69
-15.29
-24.44
-24.64
-15.09
-0.61
11.43
14.92
8.68
-2.82
-12.41
-14.10
-6.87
4.91
14.36
15.94
9.18
-1.42
-8.85
-7.89
1.41
14.18
23.05
22.73
13.14
-0.80
-11.56
-13.73
-6.75
4.91
14.18
15.82
8.92
-2.14
-10.72
-11.77
-4.45
6.77
15.09
15.05
5.86
-7.86
-18.94
-21.39
-14.12
-1.67
8.67
10.75
3.56
-8.57
-18.34
-19.96
-12.70
-0.72
9.07
11.53
6.20
-2.72
-8.91
-8.06
-0.13
10.40
17.21
15.83
6.10
-7.35
-18.06
-21.12
-15.92
-6.60
0.82
1.71
-3.87
-11.34
-14.26
-8.29
5.87
22.75
34.88
37.09
29.24
16.16
4.83
0.46
3.71
10.77
15.85
14.54
6.64
-3.82
-10.74
-9.94
-1.47
10.05
17.72
16.43
5.57
-9.96
-22.76
-26.56
-19.77
-6.49
6.20
11.63
7.88
-2.00
-11.40
-14.60
-10.10
-1.09
5.99
6.04
-2.15
-14.33
-23.84
-25.16
-17.17
-4.39
6.27
8.77
2.21
-9.20
-17.85
-17.61
-7.38
8.54
22.09
26.65
19.88
5.70
-8.81
-17.03
-16.53
-10.39
-4.31
-3.65
-9.19
-17.40
-21.90
-18.07
-5.97
9.53
20.80
22.25
12.82
-2.50
-16.11
-21.39
-16.49
-5.28
5.26
8.56
2.81
-8.75
-19.03
-21.94
-15.44
-2.84
9.33
15.35
13.48
7.18
2.22
3.47
11.16
20.92
26.31
22.89
11.33
-2.90
-12.11
-11.28
-0.38
15.06
27.37
30.76
24.40
12.69
2.27
-1.63
1.57
8.17
12.23
9.48
-0.19
-12.75
-22.33
-24.70
-19.54
-10.75
-3.88
-3.18
-8.72
-16.36
-20.17
-15.85
-3.73
11.03
20.97
20.53
9.44
-6.79
-19.62
-22.28
-13.21
2.93
18.14
25.44
22.61
12.94
2.83
-2.12
-0.57
4.49
7.57
4.59
-4.54
-15.46
-21.98
-19.69
-8.72
5.88
17.10
19.59
13.09
2.29
-5.64
-5.60
2.52
13.58
20.22
17.29
5.07
-10.63
-21.78
-22.51
-12.63
2.51
14.77
17.73
10.16
-3.56
-16.07
-21.16
-17.10
-7.37
1.92
5.51
2.39
-4.05
-8.09
-5.66
3.15
13.84
20.10
17.70
7.12
-6.45
-16.17
-17.22
-9.96
0.70
7.67
6.15
-3.73
-16.47
-24.45
-22.12
-9.24
8.36
22.30
25.69
17.55
2.89
-9.74
-13.44
-6.40
6.97
19.06
23.32
17.91
6.44
-4.52
-9.19
-6.26
1.22
7.34
7.53
1.00
-8.39
-14.86
-13.87
-5.31
6.55
15.07
15.20
6.33
-7.19
-18.46
-22.06
-16.78
-6.53
2.51
5.30
1.27
-5.69
-9.47
-6.02
4.20
15.87
22.14
18.57
6.34
-8.20
-17.01
-15.04
-3.30
11.69
21.54
20.72
9.55
-6.11
-18.31
-21.39
-14.98
-3.79
5.19
6.68
0.02
-10.59
-18.47
-18.37
-9.39
4.35
15.85
19.12
12.67
0.43
-10.39
-13.50
-7.04
5.23
16.26
19.81
14.23
3.27
-6.24
-8.61
-2.76
7.15
14.30
13.51
4.50
-7.81
-16.25
-15.58
-5.75
8.04
18.09
18.65
8.95
-6.29
-19.55
-24.46
-19.26
-7.11
5.40
12.24
10.76
2.99
-6.04
-11.00
-9.52
-2.87
4.51
8.13
5.81
-0.67
-7.07
-8.89
-4.62
3.64
10.82
12.19
6.06
-4.57
-13.86
-15.99
-9.03
4.09
16.47
21.41
15.86
2.65
-11.35
-18.72
-15.99
-5.14
7.24
14.22
12.22
3.31
-6.56
-11.02
-7.44
1.86
10.79
13.67
8.45
-1.57
-10.10
-11.42
-4.24
7.79
17.69
19.65
12.25
-0.24
-10.55
-12.29
-4.03
9.98
21.67
24.06
15.10
-0.64
-14.74
-19.37
-12.25
2.31
15.48
19.38
11.62
-3.17
-16.31
-20.31
-13.52
-0.96
8.80
9.13
-0.46
-14.03
-22.93
-21.24
-9.45
5.81
15.83
14.89
3.68
-11.28
-21.46
-21.27
-11.03
3.52
14.67
16.94
9.97
-1.67
-11.34
-13.99
-8.91
0.33
7.93
9.38
3.92
-5.01
-12.04
-13.01
-7.59
0.76
6.78
6.81
1.04
-6.48
-10.37
-7.19
2.38
13.81
21.28
20.92
13.16
2.17
-6.28
-8.39
-3.96
3.25
8.38
7.98
2.46
-4.59
-8.33
-5.99
1.70
10.50
15.43
13.28
4.62
-6.54
-14.89
-16.59
-11.25
-1.97
6.16
8.95
5.10
-2.77
-10.00
-12.20
-8.36
-1.12
4.27
3.61
-3.53
-12.92
-17.95
-13.69
-0.19
16.87
29.02
29.62
18.05
0.02
-15.17
-20.20
-13.58
-0.76
9.70
10.90
2.09
-11.17
-20.32
-19.37
-8.20
7.02
17.90
18.57
9.04
-4.90
-15.44
-17.06
-9.77
1.59
9.92
10.47
3.07
-7.35
-13.98
-11.76
-0.55
14.74
26.47
28.38
19.29
3.62
-10.68
-16.81
-12.55
-1.82
8.26
11.14
5.01
-6.32
-15.67
-16.88
-8.60
4.81
15.68
17.79
10.02
-2.61
-12.11
-12.17
-2.24
12.23
22.75
22.90
12.13
-4.05
-17.32
-21.67
-16.50
-6.82
0.58
0.91
-5.55
-14.22
-19.22
-16.94
-8.01
3.24
11.28
12.63
7.40
-0.55
-6.15
-5.58
1.39
11.42
19.06
19.72
12.34
-0.00
-11.38
-16.52
-13.47
-5.01
3.28
6.11
1.68
-7.18
-14.96
-16.65
-10.89
-0.80
7.94
10.32
5.18
-4.27
-12.12
-13.35
-6.60
4.80
14.69
17.67
11.90
0.81
-9.24
-12.04
-5.69
6.56
17.78
21.50
15.94
4.73
-4.58
-5.89
2.28
15.01
24.61
25.01
15.53
1.69
-8.91
-10.41
-2.88
8.71
17.00
17.05
8.99
-2.66
-11.33
-12.67
-6.02
4.62
13.71
16.55
12.05
3.40
-4.04
-5.02
1.87
14.10
25.72
31.32
28.99
21.35
14.31
12.94
18.98
29.11
37.70
39.61
33.66
23.31
14.11
11.02
14.74
21.98
26.45
22.84
9.47
-10.95
-32.47
-49.71
-59.89
-64.91
-69.07
-76.61
-88.46
-101.01
-108.35
-105.12
-90.73
-69.62
-49.82
-38.29
-37.12
-42.65
-47.22
-44.20
-31.32
-12.31
6.06
17.84
21.44
20.66
21.49
28.68
41.98
56.64
65.63
63.92
51.71
34.10
19.03
12.37
15.43
23.95
30.94
30.80
22.33
9.76
-0.42
-2.76
3.41
14.08
22.84
24.56
18.58
8.38
-0.24
-3.05
0.55
7.18
11.67
10.40
3.07
-6.76
-14.06
-15.09
-9.59
-1.02
5.57
6.09
0.16
-8.95
-16.06
-17.05
-11.28
-2.01
5.29
6.27
0.01
-10.23
-18.77
-20.68
-14.48
-3.27
7.33
12.06
9.22
1.65
-5.09
-5.87
0.51
10.87
19.19
20.39
13.41
1.91
-7.65
-10.01
-3.90
7.07
16.70
19.59
14.28
3.96
-5.54
-9.14
-5.36
3.00
10.36
11.74
5.55
-5.37
-15.25
-18.71
-13.64
-2.88
7.74
12.39
8.84
-0.06
-8.46
-10.58
-4.68
6.30
16.15
19.07
13.22
1.40
-10.09
-15.48
-12.60
-3.91
4.85
8.41
4.75
-3.70
-11.51
-13.82
-8.89
0.49
8.95
11.46
6.35
-3.43
-12.50
-15.79
-11.89
-3.68
3.43
4.61
-1.27
-11.11
-19.24
-20.58
-13.73
-1.43
10.55
16.84
15.44
8.41
0.97
-2.10
1.19
8.60
15.08
16.04
9.65
-1.44
-11.70
-15.85
-11.64
-1.61
8.87
14.19
11.93
4.40
-3.46
-6.62
-3.36
3.86
10.02
10.35
3.72
-6.66
-14.94
-15.84
-8.10
4.92
16.68
21.17
16.33
4.84
-7.13
-13.59
-11.91
-4.01
4.75
9.10
6.72
-0.47
-7.54
-9.93
-6.04
1.58
7.98
8.73
2.50
-7.68
-16.10
-17.61
-10.44
2.29
14.30
19.50
15.24
4.08
-7.84
-14.29
-12.26
-3.68
6.00
11.05
8.89
1.48
-5.98
-8.53
-4.41
3.86
11.06
12.53
6.97
-2.72
-11.11
-13.55
-8.61
0.70
8.91
11.25
6.22
-3.32
-11.86
-14.60
-9.70
0.21
9.90
14.49
11.91
4.37
-3.19
-6.23
-2.83
4.68
11.57
13.42
8.61
-0.34
-8.32
-10.91
-6.55
1.95
9.31
10.90
5.16
-5.01
-14.07
-17.30
-13.14
-4.53
3.08
5.02
-0.13
-9.41
-17.18
-18.69
-12.40
-1.24
9.06
13.25
9.40
-0.02
-9.31
-13.02
-8.81
1.11
11.16
15.58
11.75
1.68
-8.96
-14.21
-11.32
-2.42
6.76
10.31
5.79
-4.19
-13.47
-15.97
-9.30
3.60
16.20
22.01
18.24
7.43
-4.07
-9.80
-6.59
3.44
14.32
19.65
16.35
6.42
-4.14
-9.07
-5.38
4.89
15.71
20.72
16.82
6.00
-5.88
-12.68
-11.59
-4.56
2.92
5.23
0.10
-10.11
-19.74
-22.96
-17.42
-5.48
6.90
13.36
10.77
1.06
-10.05
-16.01
-13.37
-3.87
6.96
12.70
9.99
0.63
-9.66
-14.64
-10.83
-0.05
11.99
18.98
17.35
8.50
-2.02
-8.20
-6.74
1.00
9.71
13.49
9.28
-1.54
-13.28
-19.54
-17.02
-7.10
4.34
10.45
7.54
-2.93
-15.26
-22.33
-20.25
-10.34
1.90
9.54
8.62
0.57
-9.17
-14.20
-10.78
-0.52
11.10
17.98
16.61
8.42
-1.20
-6.41
-3.95
4.83
14.61
19.63
16.60
6.57
-5.14
-12.39
-11.68
-3.66
6.59
12.67
10.79
1.75
-9.44
-16.05
-14.20
-5.15
5.74
11.57
8.42
-1.89
-13.32
-18.81
-14.23
-1.58
12.58
20.88
18.93
8.33
-4.41
-12.17
-10.86
-1.76
9.02
14.71
11.48
0.43
-12.59
-20.60
-19.74
-10.96
0.34
7.31
5.99
-2.58
-13.23
-19.31
-16.56
-5.85
7.68
17.35
18.71
12.29
3.08
-2.58
-0.74
7.71
17.56
22.53
18.87
7.78
-5.27
-13.70
-13.47
-5.46
4.95
11.25
9.34
-0.10
-11.88
-19.36
-18.33
-9.14
3.43
12.81
14.56
8.79
-0.16
-6.26
-5.36
2.25
12.20
18.54
17.43
9.36
-1.10
-8.05
-7.64
-0.30
9.50
15.83
14.57
5.91
-5.81
-14.65
-16.46
-11.10
-2.64
3.27
2.59
-4.49
-13.77
-19.39
-17.52
-8.73
2.16
8.81
7.15
-2.06
-13.52
-20.44
-18.67
-8.94
3.50
11.84
11.72
3.81
-6.73
-13.19
-11.20
-1.53
10.58
18.50
17.95
9.50
-1.62
-8.95
-8.47
-0.72
9.21
15.00
12.73
3.21
-8.64
-16.37
-15.89
-7.89
3.03
10.75
11.17
4.52
-4.86
-11.29
-10.73
-3.00
7.76
15.82
16.88
10.46
0.14
-8.33
-10.59
-6.12
1.83
7.79
7.48
0.43
-9.59
-16.88
-16.74
-8.39
4.11
14.41
17.36
11.80
1.49
-7.01
-8.56
-2.40
7.69
15.22
15.12
6.97
-4.67
-13.20
-13.40
-4.85
7.67
17.28
18.74
11.33
-0.62
-10.33
-12.71
-7.05
2.77
10.29
10.48
2.73
-8.94
-18.20
-19.73
-12.53
-0.50
9.98
13.58
8.97
-0.41
-8.39
-9.87
-3.70
6.81
15.57
17.34
10.85
-0.45
-10.52
-13.90
-9.12
0.28
8.18
9.36
2.53
-8.53
-17.30
-18.62
-11.48
0.44
10.52
13.37
8.01
-1.93
-10.32
-11.88
-5.48
5.10
13.79
15.48
8.93
-2.27
-11.76
-14.26
-8.48
2.19
11.41
13.60
7.40
-3.58
-12.96
-15.22
-8.87
2.42
12.00
14.13
7.21
-5.23
-16.49
-20.49
-15.31
-4.20
6.23
9.93
5.03
-4.97
-13.48
-14.72
-7.36
4.61
14.44
16.61
10.20
-0.54
-8.85
-9.61
-2.42
8.45
16.45
16.59
8.40
-3.70
-13.16
-14.91
-8.06
3.38
12.85
15.02
8.88
-1.78
-10.47
-11.83
-4.90
6.21
15.06
16.55
9.85
-1.04
-9.63
-10.90
-4.26
6.54
15.50
17.54
11.44
0.52
-9.41
-13.24
-9.10
0.45
9.69
12.98
8.10
-2.46
-12.81
-16.79
-11.77
-0.60
10.17
14.13
8.72
-2.99
-14.01
-17.68
-11.71
0.58
12.29
16.93
12.12
0.97
-10.02
-14.83
-11.14
-1.60
7.72
10.83
5.34
-6.14
-17.61
-22.86
-19.03
-8.46
2.80
8.48
5.86
-2.69
-11.11
-13.40
-7.45
3.61
13.51
16.50
10.83
0.00
-9.39
-11.72
-5.64
5.59
15.83
19.45
14.54
4.00
-6.37
-11.15
-7.88
1.41
11.18
15.64
12.10
2.47
-7.84
-12.84
-9.64
-0.51
8.50
11.35
5.55
-6.05
-16.75
-20.02
-13.65
-1.27
10.07
13.96
8.42
-2.88
-12.88
-15.44
-9.09
2.31
12.08
14.63
8.75
-1.70
-10.17
-11.45
-4.64
6.43
15.56
17.73
12.04
2.13
-6.07
-7.78
-1.99
7.98
16.55
18.91
13.74
3.88
-5.38
-9.20
-5.78
2.73
11.33
14.96
11.35
2.22
-7.63
-12.97
-11.06
-3.42
4.98
8.50
4.27
-6.04
-16.94
-22.19
-18.46
-7.54
4.67
11.45
9.14
-0.61
-11.78
-17.54
-14.30
-3.83
7.84
13.93
10.79
0.24
-11.46
-17.36
-14.01
-3.21
8.96
15.51
12.69
2.37
-9.11
-14.76
-11.06
0.15
12.65
19.31
16.28
5.42
-6.88
-13.43
-10.55
0.04
12.10
18.41
15.04
3.79
-8.81
-15.33
-11.93
-0.37
12.86
20.07
16.79
4.54
-10.09
-19.15
-18.08
-7.93
5.28
13.91
13.07
3.56
-8.79
-16.61
-15.35
-5.67
7.06
15.82
15.99
8.14
-2.44
-8.96
-7.22
2.10
13.93
21.65
20.90
12.13
0.31
-7.93
-8.26
-0.84
10.07
18.63
20.72
16.20
8.76
3.57
3.79
8.67
14.19
15.58
10.18
-0.67
-12.41
-19.79
-20.12
-14.94
-9.12
-7.76
-13.02
-22.54
-30.78
-32.17
-24.63
-11.01
2.19
8.41
4.75
-6.25
-18.08
-23.85
-20.23
-9.27
2.80
9.08
5.90
-5.06
-17.94
-26.01
-25.39
-17.20
-6.65
0.22
-0.04
-6.36
-14.03
-17.73
-14.58
-5.95
3.37
8.20
6.20
-0.69
-7.33
-8.50
-2.24
8.97
19.38
23.23
18.14
6.98
-3.57
-6.81
-0.07
13.67
27.50
34.10
29.84
16.83
1.54
-8.70
-9.71
-2.69
6.86
12.74
11.67
5.12
-1.91
-4.19
0.61
10.24
18.89
20.66
13.36
0.12
-12.09
-16.40
-10.20
3.33
16.79
22.44
16.53
1.46
-15.36
-25.53
-24.36
-13.45
0.56
9.95
10.11
2.19
-8.01
-13.59
-10.57
-0.30
11.17
16.77
12.71
1.13
-11.07
-16.36
-11.02
2.68
17.63
25.62
21.97
8.11
-9.25
-21.70
-23.86
-16.14
-4.14
4.98
6.70
1.51
-5.78
-9.04
-4.73
5.86
17.02
21.99
16.99
4.03
-10.00
-17.18
-13.35
-0.57
13.97
22.00
18.71
5.56
-10.53
-21.16
-21.26
-11.99
0.01
6.69
3.65
-6.98
-18.07
-21.87
-14.74
0.49
15.98
23.37
18.46
3.66
-13.23
-23.34
-21.82
-10.53
3.29
11.42
9.52
-0.37
-11.18
-15.23
-8.76
5.79
21.01
28.52
23.72
8.61
-9.14
-20.49
-20.07
-9.16
5.25
14.74
14.33
5.40
-5.46
-10.57
-5.72
7.23
21.31
28.38
23.81
9.31
-7.88
-19.11
-19.15
-9.20
4.09
12.66
11.64
2.27
-9.10
-15.10
-11.68
-0.62
11.58
17.53
13.23
0.46
-14.23
-23.27
-22.20
-12.18
0.81
9.27
8.40
-0.90
-12.56
-18.72
-14.46
-1.00
14.77
24.30
22.36
10.30
-4.75
-14.15
-12.89
-2.51
10.07
16.60
12.47
-0.25
-14.23
-20.94
-15.51
0.30
18.81
30.78
30.34
18.17
1.16
-11.57
-13.88
-6.12
5.39
12.02
8.09
-5.34
-21.02
-29.57
-24.89
-8.03
13.03
27.89
29.57
18.50
2.09
-9.77
-10.65
-1.16
11.73
19.02
15.03
0.90
-16.22
-27.32
-26.54
-14.56
1.60
12.71
12.56
1.82
-12.36
-20.87
-18.11
-5.70
8.68
16.09
11.90
-1.52
-16.63
-25.37
-23.73
-13.61
-1.26
6.30
4.78
-5.05
-17.86
-26.24
-24.64
-12.50
4.76
18.51
21.80
13.84
0.75
-8.17
-6.52
4.97
18.96
26.37
22.23
8.89
-5.85
-13.78
-11.13
-0.38
11.54
17.42
13.60
1.80
-11.77
-19.65
-17.02
-4.59
11.26
21.63
20.14
7.31
-9.21
-18.77
-14.59
1.77
20.98
31.71
27.78
12.18
-5.36
-14.77
-11.78
-0.01
12.06
16.85
11.88
0.43
-11.18
-17.30
-15.56
-7.33
3.32
11.47
13.21
7.46
-3.06
-12.53
-14.86
-7.39
6.74
19.53
22.61
12.94
-4.51
-19.18
-21.59
-9.83
8.80
22.15
21.11
6.16
-12.85
-23.29
-17.96
0.09
19.36
27.70
20.05
1.38
-16.77
-24.01
-17.47
-2.86
9.79
12.60
4.48
-9.00
-19.95
-22.89
-17.43
-7.75
0.68
4.12
1.78
-4.43
-11.34
-16.02
-16.47
-12.13
-4.38
3.82
8.64
7.33
0.22
-8.81
-14.08
-11.23
-0.45
12.93
21.26
19.19
7.53
-6.62
-13.95
-8.76
7.09
24.68
33.26
27.20
9.64
-8.92
-16.96
-9.35
9.23
26.95
31.95
19.96
-2.77
-23.18
-29.25
-17.52
4.56
23.14
26.33
11.48
-12.95
-32.56
-35.58
-20.06
4.81
24.10
26.00
8.82
-17.77
-38.34
-40.70
-23.13
4.49
26.33
29.84
13.18
-13.73
-34.85
-37.49
-19.87
7.92
29.88
33.45
17.15
-8.69
-28.20
-29.47
-11.75
14.19
32.84
33.30
15.98
-7.71
-22.64
-19.19
0.78
25.04
38.61
32.93
11.03
-14.12
-27.56
-21.38
0.70
25.52
38.25
31.21
8.19
-17.95
-32.82
-28.90
-9.83
12.17
23.66
17.63
-2.30
-24.39
-36.01
-31.07
-13.46
5.48
14.20
7.73
-9.46
-26.17
-31.70
-22.30
-3.42
13.76
19.10
9.81
-7.96
-22.71
-24.42
-10.72
11.67
30.80
36.24
25.19
4.27
-14.30
-19.44
-7.62
14.76
34.97
40.95
28.05
2.16
-23.23
-34.27
-24.47
1.53
29.99
45.41
38.91
13.01
-19.36
-41.71
-42.66
-21.87
10.12
37.32
46.70
34.63
8.05
-19.59
-35.49
-33.88
-18.00
2.48
16.95
19.54
11.24
-1.71
-11.91
-15.02
-11.65
-5.95
-2.46
-3.02
-5.82
-7.14
-4.34
1.99
8.07
9.35
3.75
-6.25
-14.60
-15.02
-5.07
11.60
26.70
31.65
22.49
2.89
-17.24
-26.95
-20.12
0.65
24.94
39.90
36.97
16.66
-11.34
-33.33
-38.72
-25.35
-0.67
22.48
32.65
25.46
5.49
-16.88
-31.44
-33.23
-24.43
-12.04
-3.10
-0.50
-1.91
-2.32
1.79
9.42
15.14
12.75
-0.29
-20.12
-37.35
-41.95
-28.95
-1.80
28.30
47.63
46.95
26.00
-5.89
-34.59
-48.13
-42.01
-20.88
4.54
23.44
29.94
25.05
14.62
4.86
-1.24
-4.77
-8.91
-15.44
-22.46
-24.82
-17.46
0.68
24.56
44.43
50.42
37.88
10.33
-21.26
-43.59
-47.29
-31.08
-2.42
26.44
44.52
46.62
35.19
17.64
1.67
-8.36
-12.76
-14.81
-17.18
-19.55
-18.40
-9.62
7.78
29.58
47.15
51.41
37.81
9.57
-22.82
-46.32
-51.34
-36.42
-8.92
18.87
35.70
36.58
24.54
7.61
-6.15
-12.90
-14.50
-15.87
-20.83
-28.78
-34.39
-30.91
-14.81
11.11
37.83
54.26
52.78
33.31
3.57
-24.84
-42.13
-44.77
-36.38
-24.58
-16.16
-13.06
-11.68
-5.95
8.00
28.36
47.64
56.34
48.18
24.02
-7.88
-35.78
-50.09
-47.85
-33.58
-16.11
-3.43
1.66
2.33
4.77
13.29
26.80
38.66
40.42
27.03
0.63
-29.61
-51.72
-56.84
-43.65
-18.87
6.41
22.51
25.90
20.12
12.66
9.80
12.59
16.43
14.34
1.94
-18.97
-40.48
-52.49
-48.11
-27.74
0.90
26.57
40.17
39.20
28.40
16.26
9.85
10.60
13.93
12.66
1.93
-16.90
-36.44
-47.02
-42.18
-22.57
4.20
27.36
38.66
36.53
26.23
16.13
12.33
15.02
18.65
15.83
2.39
-19.11
-40.08
-50.21
-43.20
-20.43
9.30
34.17
45.05
39.85
23.91
6.25
-5.66
-9.69
-9.43
-10.91
-18.06
-29.61
-39.26
-39.41
-25.98
-1.42
25.71
44.94
49.06
37.96
18.43
0.21
-9.37
-9.21
-4.56
-3.23
-10.61
-25.84
-42.11
-50.47
-45.00
-26.47
-2.06
18.59
28.45
26.99
19.84
15.20
18.64
29.59
41.47
45.34
35.32
12.16
-16.58
-40.49
-51.84
-49.36
-38.60
-28.07
-23.97
-26.66
-30.50
-28.05
-14.84
7.52
31.62
48.57
52.59
44.38
30.66
20.12
18.65
25.86
35.27
38.14
28.44
6.66
-20.23
-42.36
-52.28
-48.67
-36.49
-23.70
-16.22
-14.72
-14.58
-9.43
4.26
24.69
45.01
57.20
56.52
44.17
27.07
13.80
10.00
15.31
23.31
25.43
15.73
-5.32
-30.77
-51.06
-59.15
-54.41
-42.70
-32.62
-30.27
-35.64
-42.81
-43.80
-33.71
-13.70
9.44
27.19
34.25
31.22
24.25
21.08
26.27
38.72
51.84
57.51
50.68
32.53
10.30
-6.65
-12.03
-6.17
3.95
8.67
1.27
-17.92
-41.50
-59.11
-63.32
-53.62
-36.42
-21.04
-14.00
-15.57
-19.88
-19.09
-8.55
10.43
31.10
45.36
48.48
41.69
31.53
25.82
29.05
39.76
51.15
54.94
46.19
26.38
3.03
-14.32
-19.31
-12.28
-0.24
7.21
3.34
-11.64
-30.55
-43.50
-43.71
-31.70
-15.14
-4.53
-6.93
-21.80
-41.15
-54.24
-54.05
-41.28
-24.08
-13.13
-15.33
-29.69
-47.92
-59.53
-57.91
-44.11
-25.99
-13.32
-11.97
-20.53
-31.30
-35.17
-27.05
-8.79
11.87
26.00
28.53
21.03
10.63
5.63
10.74
24.56
40.49
50.79
51.00
42.46
31.39
25.04
27.44
37.09
47.86
52.74
47.93
35.19
20.91
12.30
13.30
22.36
33.26
38.83
35.02
23.32
9.91
1.85
3.07
11.92
21.98
25.86
19.38
4.34
-12.45
-22.95
-22.50
-12.53
0.21
7.51
4.45
-7.67
-22.01
-30.33
-27.78
-15.83
-1.62
6.34
2.99
-9.95
-25.02
-33.33
-29.64
-15.62
1.21
11.83
10.89
-0.03
-13.51
-20.73
-16.72
-3.41
11.54
19.14
14.29
-1.07
-19.05
-30.36
-29.52
-18.10
-3.77
4.16
0.05
-14.47
-31.58
-41.66
-38.91
-24.97
-7.74
2.98
1.44
-10.61
-24.89
-31.54
-24.91
-6.85
14.17
28.27
29.62
20.02
7.40
1.11
6.42
21.42
38.55
48.96
47.94
37.44
24.83
18.20
21.69
33.20
45.61
51.46
46.99
34.75
21.53
14.51
16.96
26.29
35.90
38.79
31.87
17.53
2.28
-7.28
-8.17
-2.78
2.59
1.57
-8.63
-25.10
-41.01
-49.26
-46.82
-36.56
-25.86
-22.61
-30.50
-46.82
-63.51
-71.85
-67.33
-52.38
-35.19
-24.98
-26.75
-37.97
-50.18
-53.66
-43.54
-22.53
0.24
14.54
14.89
3.76
-9.83
-15.90
-9.02
8.41
27.91
40.03
39.94
30.16
18.75
14.36
20.94
35.66
50.58
57.73
53.58
41.23
28.20
21.79
24.83
33.84
41.43
40.47
28.46
9.02
-10.15
-21.60
-22.46
-15.95
-9.69
-11.16
-23.34
-42.52
-60.23
-67.74
-61.14
-43.63
-23.89
-11.32
-10.64
-19.37
-29.24
-31.40
-21.62
-2.86
16.51
27.80
27.05
17.55
7.56
5.43
14.54
31.55
48.44
57.41
55.29
45.27
34.53
29.59
32.44
39.17
42.52
36.19
18.82
-4.78
-26.21
-37.88
-37.29
-28.38
-19.37
-18.14
-27.63
-43.92
-58.34
-62.16
-51.66
-30.24
-6.52
10.37
15.98
12.68
7.71
8.54
17.91
32.43
44.52
47.18
38.29
21.92
6.00
-2.61
-1.95
3.75
6.72
0.31
-16.72
-38.89
-56.58
-61.22
-49.83
-26.83
-1.63
16.45
22.97
20.49
16.12
16.92
25.14
36.95
44.54
41.06
24.79
0.74
-21.97
-34.86
-34.63
-24.63
-12.67
-6.29
-8.41
-15.60
-20.51
-16.54
-2.11
17.82
34.39
39.59
30.88
12.57
-6.62
-18.64
-20.42
-15.24
-10.27
-11.77
-20.88
-32.53
-38.24
-31.24
-10.83
16.64
40.70
52.08
47.41
30.78
11.00
-3.44
-8.82
-7.62
-6.01
-9.40
-18.47
-28.38
-31.63
-22.81
-2.29
23.17
43.61
50.82
42.53
23.43
2.42
-12.29
-17.29
-15.24
-12.36
-14.12
-21.32
-29.41
-31.18
-21.59
-1.38
22.27
39.03
40.67
25.69
0.39
-24.14
-37.66
-35.68
-21.25
-2.44
12.47
19.54
20.57
20.86
24.76
32.04
37.42
33.68
16.50
-11.68
-41.67
-61.46
-62.36
-43.56
-12.80
17.30
35.40
36.52
23.78
5.59
-9.35
-16.63
-17.55
-16.82
-18.45
-22.29
-23.93
-17.71
-1.26
21.65
42.00
49.53
38.62
11.76
-20.53
-44.64
-50.21
-35.22
-6.74
22.76
41.47
43.72
31.73
13.49
-2.13
-10.02
-10.33
-7.24
-4.90
-4.57
-3.72
1.36
12.09
25.21
33.49
29.55
10.51
-18.91
-47.61
-63.03
-57.40
-32.16
2.42
31.64
43.60
34.46
10.24
-16.75
-34.06
-34.95
-20.91
0.19
18.72
28.36
28.35
22.40
15.40
9.83
5.09
-1.24
-10.07
-19.01
-22.76
-16.66
-0.27
20.76
36.59
38.03
21.75
-6.99
-36.09
-52.36
-48.15
-25.56
4.53
27.45
32.33
17.20
-9.91
-35.52
-47.42
-40.70
-19.67
5.07
22.38
26.32
18.32
5.39
-4.45
-6.89
-2.69
3.62
7.74
8.46
8.36
11.07
17.97
26.07
29.20
21.84
3.21
-20.71
-39.45
-43.23
-28.66
-1.41
26.05
40.23
33.83
9.50
-21.02
-42.98
-45.85
-28.62
0.25
27.56
42.24
40.74
27.66
12.32
2.87
2.06
6.63
10.40
8.79
1.96
-5.47
-7.90
-2.69
7.55
16.37
17.33
8.11
-7.58
-21.98
-27.65
-21.90
-8.33
5.24
11.40
7.42
-3.30
-13.50
-16.63
-10.81
0.12
9.18
10.66
3.76
-6.81
-13.83
-12.06
-1.76
11.19
18.72
15.40
1.91
-14.78
-25.20
-22.70
-7.60
12.60
27.01
27.28
12.41
-10.23
-28.67
-32.91
-20.55
1.58
20.98
26.48
14.66
-7.73
-27.53
-32.62
-19.02
6.47
29.94
38.20
26.57
1.76
-21.93
-30.82
-19.90
4.13
26.71
33.98
20.86
-5.66
-30.67
-39.85
-27.85
-1.41
24.48
35.25
25.02
0.05
-25.02
-35.70
-25.90
-1.47
23.46
34.68
26.19
3.67
-19.01
-28.07
-18.07
4.90
26.72
33.75
20.82
-5.33
-30.14
-39.67
-28.91
-4.62
18.64
27.13
16.08
-7.44
-28.84
-34.67
-20.62
5.85
29.91
37.89
25.27
-0.57
-24.63
-32.88
-20.28
6.24
31.83
42.11
31.42
6.11
-19.35
-30.73
-22.46
-0.76
20.03
26.09
12.53
-13.41
-36.55
-42.86
-27.84
0.41
26.07
34.76
22.21
-3.23
-25.64
-31.08
-15.90
11.10
34.10
39.78
25.20
-0.37
-21.40
-25.46
-10.71
13.11
30.70
30.52
11.72
-15.33
-35.44
-37.75
-22.06
1.07
17.11
16.17
-0.95
-23.49
-37.45
-34.16
-15.36
8.03
22.74
21.21
5.83
-12.82
-22.95
-18.57
-3.00
13.99
22.27
17.71
3.97
-10.09
-16.29
-11.73
-0.01
11.70
17.12
14.13
5.33
-4.14
-9.63
-9.33
-4.29
2.44
7.85
9.81
7.94
3.37
-1.52
-4.13
-2.48
3.54
11.82
18.60
20.17
15.23
5.80
-3.22
-6.82
-2.53
7.44
17.38
20.92
15.18
2.70
-9.58
-14.36
-8.30
5.50
19.07
24.16
17.42
2.73
-10.96
-14.96
-6.65
8.64
20.32
19.23
3.71
-18.62
-35.23
-36.20
-20.87
1.40
16.67
15.05
-2.79
-26.02
-40.35
-37.28
-19.19
2.32
14.40
11.05
-3.25
-17.18
-20.43
-10.39
6.66
20.40
23.26
14.89
1.81
-7.37
-7.14
2.26
15.71
26.55
29.94
24.72
13.80
2.52
-3.52
-1.08
8.68
20.10
25.60
20.01
4.31
-14.07
-25.33
-23.60
-11.10
2.66
7.04
-2.51
-21.01
-37.07
-40.31
-28.43
-8.59
7.42
10.85
1.36
-13.22
-22.54
-20.25
-7.42
9.01
20.82
23.13
16.39
5.53
-3.14
-4.90
1.38
12.62
22.86
25.84
18.64
3.65
-11.88
-19.75
-15.92
-3.46
8.96
12.47
3.90
-11.89
-25.17
-27.60
-17.55
-0.87
13.06
17.24
10.89
-0.49
-8.90
-8.41
1.59
16.50
28.81
32.12
24.31
9.05
-6.14
-13.76
-10.78
-0.50
9.43
11.66
4.14
-8.70
-18.76
-19.62
-10.53
3.19
13.55
14.82
6.69
-5.63
-14.60
-14.66
-5.31
8.44
18.60
18.50
6.88
-11.04
-25.95
-30.00
-21.39
-5.85
6.86
9.04
-0.32
-14.69
-24.57
-23.06
-10.15
7.58
21.01
23.64
15.20
1.43
-9.21
-10.66
-2.48
9.70
17.64
15.33
2.78
-13.63
-25.00
-25.02
-13.93
1.77
13.09
13.84
4.41
-8.91
-17.39
-15.42
-3.52
11.62
21.26
19.55
7.01
-9.47
-20.90
-21.21
-10.86
3.58
13.48
13.25
3.93
-7.76
-13.31
-7.85
7.04
24.01
34.33
32.79
20.73
5.12
-5.64
-6.44
1.82
13.00
19.42
16.38
5.22
-7.54
-13.90
-9.42
3.77
18.07
24.66
18.82
2.69
-15.85
-27.70
-27.44
-16.20
-0.87
9.84
10.30
1.21
-10.92
-17.94
-15.10
-4.08
8.23
13.91
8.84
-4.74
-19.44
-26.91
-22.47
-7.97
9.13
19.78
18.63
7.10
-7.60
-17.03
-16.32
-6.86
5.05
12.06
10.24
1.44
-7.77
-10.17
-2.41
12.42
26.43
31.38
23.74
6.82
-11.00
-20.94
-18.55
-5.99
9.25
18.56
16.95
5.88
-7.92
-16.76
-16.45
-8.60
0.92
5.60
2.36
-6.56
-14.78
-15.82
-7.17
7.58
20.54
24.05
15.27
-1.84
-18.76
-27.05
-22.95
-9.50
5.40
13.19
9.56
-3.30
-18.29
-27.70
-27.51
-19.34
-9.00
-2.85
-3.98
-10.23
-15.47
-13.70
-2.84
13.37
27.41
32.28
25.70
11.63
-1.80
-6.87
-0.67
13.02
25.94
30.04
22.25
6.34
-9.49
-17.22
-13.61
-1.71
10.95
16.81
12.64
1.31
-10.20
-15.20
-11.26
-1.48
7.56
9.99
4.23
-5.87
-13.28
-12.26
-2.00
12.55
23.39
24.17
13.96
-2.02
-15.42
-19.28
-12.13
1.32
12.80
15.21
6.72
-8.14
-21.35
-25.83
-19.48
-6.04
7.04
13.00
9.48
-0.14
-9.03
-11.09
-4.62
6.86
16.75
19.49
13.78
3.51
-4.75
-5.74
1.28
12.09
20.07
20.11
11.79
-0.22
-9.05
-9.60
-1.86
9.20
16.37
14.53
3.74
-10.56
-20.59
-20.84
-11.40
2.07
11.46
10.89
0.19
-15.04
-26.40
-27.66
-18.32
-4.04
6.81
8.05
-0.91
-14.65
-24.96
-25.53
-15.65
-0.76
10.98
13.50
6.35
-5.27
-13.66
-13.10
-3.27
10.60
20.68
21.37
12.52
-0.77
-11.15
-13.23
-6.48
4.50
12.74
13.06
5.24
-6.27
-14.87
-15.84
-8.66
2.54
11.52
13.51
8.30
0.26
-4.52
-1.91
7.71
19.60
27.23
26.11
16.73
4.43
-3.86
-3.80
3.75
13.30
17.96
13.53
1.43
-11.97
-19.23
-16.47
-5.77
6.04
11.31
6.07
-7.42
-21.70
-28.61
-24.29
-11.48
2.19
8.83
4.68
-7.46
-19.79
-24.31
-17.64
-3.17
11.17
17.54
12.63
-0.28
-13.23
-18.35
-12.62
0.42
12.88
17.24
10.54
-3.74
-17.62
-23.32
-17.79
-4.34
9.47
16.19
12.66
1.65
-9.85
-14.93
-10.83
-0.34
10.12
14.37
10.00
-0.18
-9.85
-13.07
-7.91
2.50
11.91
14.62
8.80
-2.27
-12.04
-14.59
-8.14
3.91
15.06
19.34
14.78
4.69
-4.29
-6.17
0.77
13.01
23.83
27.08
20.80
8.49
-2.94
-7.29
-2.57
7.84
17.18
19.27
12.09
-0.90
-12.98
-18.02
-13.97
-3.93
5.78
9.46
5.34
-3.43
-10.89
-11.72
-4.57
7.07
16.96
19.61
13.58
2.25
-8.00
-11.43
-6.26
4.21
13.54
15.67
8.50
-4.77
-17.38
-22.75
-18.24
-6.76
4.92
10.03
5.78
-4.98
-15.44
-18.94
-13.02
-0.95
10.18
13.68
7.38
-4.96
-15.87
-18.73
-11.89
0.24
9.81
10.16
0.08
-15.21
-27.08
-28.60
-18.62
-2.46
11.12
14.96
7.93
-4.55
-13.97
-13.81
-3.31
12.15
24.12
26.33
18.38
5.57
-4.44
-6.04
1.01
11.60
18.52
16.99
7.47
-5.00
-13.42
-13.03
-4.10
8.15
16.72
16.60
7.47
-6.03
-16.75
-19.11
-12.49
-1.32
7.45
8.14
-0.08
-12.43
-21.30
-20.97
-11.00
3.41
14.22
15.32
6.49
-6.46
-15.41
-14.80
-4.87
8.67
17.87
17.60
8.79
-2.63
-9.29
-6.82
3.60
15.86
22.73
20.30
10.21
-1.61
-8.35
-6.26
3.08
13.68
18.87
14.98
3.28
-10.47
-19.32
-19.16
-11.08
-0.51
5.90
3.86
-5.72
-17.15
-23.36
-20.21
-8.73
5.33
14.56
14.40
5.86
-5.41
-12.66
-11.88
-4.08
5.44
10.47
7.75
-1.34
-11.58
-17.00
-14.32
-4.92
6.06
12.72
11.73
4.30
-4.42
-8.38
-4.41
5.71
16.23
20.66
15.74
3.79
-8.55
-14.33
-10.47
0.56
12.06
17.16
12.98
2.38
-8.32
-12.98
-9.32
-0.21
8.21
10.43
4.85
-5.49
-14.52
-16.75
-10.47
1.00
11.44
15.09
9.93
-0.84
-10.61
-13.33
-7.18
4.28
14.10
15.99
8.27
-4.92
-16.11
-18.90
-11.71
1.29
12.59
15.93
9.79
-1.82
-11.83
-14.28
-7.84
3.53
12.83
14.07
5.81
-7.91
-19.70
-23.21
-16.61
-3.84
7.79
11.87
6.84
-3.17
-10.95
-10.72
-1.63
11.67
21.87
23.35
15.54
2.98
-7.35
-10.11
-4.53
5.21
12.75
13.17
5.86
-5.04
-13.01
-13.05
-4.85
7.07
15.64
15.46
6.36
-6.44
-15.38
-15.07
-5.65
7.20
15.77
14.90
5.12
-7.69
-15.95
-14.89
-5.24
7.33
15.50
14.71
6.06
-4.84
-11.03
-8.35
1.97
13.85
20.24
17.03
5.34
-8.75
-17.84
-17.61
-9.18
1.78
7.87
4.64
-6.53
-19.53
-26.92
-24.09
-12.16
2.53
12.30
12.22
3.04
-9.23
-16.98
-15.63
-6.07
5.87
12.93
10.94
1.44
-9.56
-15.11
-11.48
-0.54
11.33
17.20
13.47
2.10
-10.33
-16.66
-13.46
-2.83
8.85
14.48
10.83
0.37
-10.29
-14.12
-7.94
5.55
19.40
26.35
22.67
10.56
-3.35
-11.83
-11.05
-2.59
7.70
13.34
11.00
2.22
-7.64
-12.93
-11.02
-3.84
3.24
4.93
-0.71
-11.01
-19.94
-21.60
-13.98
-0.02
13.81
20.77
17.94
7.59
-4.35
-11.36
-10.14
-2.62
5.83
9.54
5.82
-2.85
-10.78
-12.71
-6.62
4.58
14.71
18.39
14.01
4.46
-4.20
-6.82
-2.23
6.45
13.22
12.82
4.28
-8.80
-19.88
-22.92
-16.19
-3.05
10.03
16.42
13.49
3.99
-6.06
-10.51
-6.74
2.63
11.80
15.25
10.90
1.66
-6.62
-8.88
-3.66
5.78
13.43
14.41
7.79
-2.69
-10.80
-11.67
-4.83
5.47
12.75
12.10
3.46
-8.32
-16.25
-15.42
-5.96
6.82
15.73
15.85
7.39
-4.16
-11.84
-11.19
-2.85
7.65
13.43
10.37
-0.34
-12.82
-19.99
-17.81
-7.36
5.60
13.89
13.16
4.08
-7.94
-15.92
-15.36
-6.50
5.67
14.28
14.58
6.44
-5.39
-14.08
-14.93
-7.85
2.62
9.77
9.17
1.05
-9.72
-16.37
-14.71
-5.50
6.09
13.06
11.15
1.25
-11.13
-18.74
-17.08
-6.94
6.42
15.96
17.31
11.11
2.30
-2.72
-0.46
7.62
16.27
19.34
14.09
2.98
-7.92
-12.10
-6.92
4.80
16.59
21.59
16.85
4.91
-7.88
-14.70
-12.33
-2.88
7.87
13.41
10.61
1.31
-8.91
-13.87
-10.60
-0.95
9.58
14.78
11.71
2.19
-8.32
-13.79
-11.44
-3.26
5.36
8.41
3.23
-8.03
-19.61
-25.08
-21.31
-9.96
3.43
12.20
12.68
5.70
-3.78
-9.71
-8.80
-2.11
5.66
8.96
5.23
-3.72
-12.55
-15.55
-10.46
0.45
11.48
16.58
13.23
3.31
-7.63
-13.79
-12.63
-5.69
2.17
5.85
3.29
-3.67
-10.19
-11.64
-6.76
1.73
8.40
8.56
1.45
-9.35
-17.54
-18.04
-10.28
1.70
11.26
13.16
6.75
-3.78
-11.65
-11.54
-2.70
10.68
21.65
24.49
17.93
5.77
-5.15
-8.92
-3.85
6.64
15.93
18.11
11.45
-0.52
-11.20
-14.89
-10.20
-0.90
6.37
6.30
-1.64
-12.84
-20.18
-18.35
-7.35
7.49
18.52
20.25
12.69
1.23
-6.47
-5.24
4.57
17.36
25.41
23.60
12.26
-2.95
-14.26
-16.57
-9.93
0.64
8.10
7.83
-0.07
-10.69
-17.57
-16.70
-8.53
1.87
8.04
5.93
-3.63
-15.08
-21.71
-19.23
-8.48
4.81
13.72
13.72
5.81
-4.46
-10.24
-7.31
2.90
14.51
20.46
16.64
4.72
-9.28
-17.89
-16.93
-7.73
4.06
11.41
10.38
2.15
-7.74
-12.74
-9.53
0.35
11.07
16.04
12.01
0.59
-12.00
-18.92
-16.42
-5.72
7.28
15.92
15.96
8.38
-1.53
-7.53
-5.72
2.53
11.88
15.98
11.37
0.02
-12.27
-18.64
-15.66
-5.31
6.45
12.84
10.68
2.04
-6.87
-9.54
-3.35
9.09
21.02
25.58
19.78
6.01
-8.91
-17.92
-17.40
-9.08
1.05
6.62
4.25
-4.01
-12.39
-14.80
-8.52
3.84
16.22
22.26
19.19
9.46
-1.10
-6.50
-4.41
2.84
9.63
10.41
3.20
-9.57
-21.99
-28.24
-25.91
-16.95
-6.96
-1.54
-3.30
-10.15
-16.52
-16.90
-8.80
4.92
17.85
23.39
18.58
6.19
-7.22
-14.53
-12.51
-3.47
6.64
11.53
8.81
0.92
-6.21
-7.20
-0.68
10.16
19.09
20.96
14.59
3.60
-5.74
-8.27
-2.75
7.24
15.53
16.73
9.38
-3.09
-14.54
-19.55
-16.50
-8.64
-1.98
-1.79
-9.15
-20.27
-28.60
-28.59
-19.11
-3.97
10.07
17.16
15.59
8.48
1.92
1.24
8.12
19.37
28.85
30.92
23.83
10.97
-0.91
-5.51
-0.62
10.45
20.92
24.47
19.30
9.19
0.99
0.37
8.03
19.55
28.53
31.12
29.18
29.15
38.16
59.01
87.93
116.36
135.29
140.10
132.46
119.06
107.85
104.34
109.94
122.18
137.42
152.77
167.45
181.93
196.54
210.63
222.07
228.41
227.87
219.84
205.22
185.84
163.68
139.87
114.66
87.52
57.91
25.97
-7.16
-39.47
-68.79
-92.50
-109.42
-119.76
-124.73
-125.93
-124.62
-121.55
-117.05
-111.51
-105.82
-101.78
-101.25
-105.93
-116.28
-131.36
-149.04
-166.82
-182.78
-196.42
-208.75
-220.93
-234.06
-248.09
-262.08
-275.36
-288.68
-304.07
-323.63
-348.35
-376.38
-404.90
-430.96
-452.87
-470.28
-483.35
-491.52
-493.17
-486.95
-471.78
-448.64
-418.81
-382.15
-335.83
-275.17
-195.54
-93.56
23.07
146.33
263.22
360.77
430.08
469.41
484.71
487.14
487.87
492.68
500.52
503.16
490.51
455.97
401.64
335.51
268.84
212.15
171.50
147.91
136.98
132.35
127.97
119.93
106.99
90.03
70.25
47.87
22.66
-5.82
-36.22
-65.41
-89.47
-105.79
-114.25
-117.54
-119.94
-125.33
-135.72
-150.36
-166.29
-179.86
-188.34
-190.83
-188.31
-182.93
-176.67
-170.48
-164.14
-155.82
-143.38
-125.45
-102.17
-75.17
-47.12
-20.57
2.74
22.52
39.70
55.67
71.51
87.39
102.50
115.52
125.46
132.26
136.85
140.92
145.90
152.58
160.93
170.80
182.25
195.60
210.39
224.34
233.55
233.54
221.74
199.07
170.05
140.31
114.50
93.84
76.31
58.71
39.55
20.49
5.44
-2.35
-2.69
0.81
2.51
-2.01
-13.29
-27.75
-39.84
-45.13
-43.15
-37.22
-32.73
-33.49
-39.81
-47.83
-52.26
-49.21
-38.91
-25.65
-15.61
-13.31
-19.06
-28.70
-36.03
-36.46
-29.51
-19.32
-11.94
-11.86
-19.10
-29.11
-35.37
-33.35
-23.09
-9.38
0.94
2.88
-3.82
-14.54
-22.61
-23.17
-15.92
-5.13
2.93
3.82
-2.54
-11.74
-17.79
-16.57
-8.48
1.94
8.60
7.48
-1.02
-12.17
-19.63
-19.18
-11.01
0.28
8.57
9.56
3.38
-5.69
-11.75
-11.02
-3.90
4.96
9.71
6.64
-3.36
-15.26
-22.60
-21.35
-12.00
0.53
9.85
11.57
5.78
-3.31
-9.95
-10.31
-4.68
2.80
6.70
3.69
-5.26
-15.37
-20.75
-17.88
-7.77
4.56
12.84
13.10
5.89
-4.10
-10.92
-10.82
-4.43
3.73
8.09
5.40
-3.16
-12.67
-17.42
-14.28
-4.74
6.02
11.98
9.81
0.76
-9.99
-16.50
-15.34
-7.78
1.37
6.23
3.73
-4.80
-14.04
-18.06
-13.43
-1.77
11.44
19.44
18.33
9.09
-2.76
-10.57
-10.18
-2.50
7.36
12.91
10.50
1.33
-9.08
-14.39
-11.14
-0.93
10.60
17.00
14.81
5.61
-5.11
-11.21
-9.56
-1.81
6.74
10.33
6.31
-3.16
-12.39
-15.53
-10.06
1.62
13.47
19.33
16.28
6.43
-4.46
-10.34
-8.39
-0.48
7.99
11.47
7.42
-2.00
-11.39
-15.20
-11.11
-1.26
8.82
13.54
10.29
1.22
-8.31
-12.70
-9.58
-0.96
7.69
10.88
6.19
-4.04
-14.13
-18.32
-14.14
-3.82
7.00
12.57
10.35
2.43
-5.70
-8.61
-4.14
5.24
13.93
16.53
10.96
-0.15
-11.02
-16.06
-13.09
-4.56
3.97
7.12
2.83
-6.28
-14.59
-16.69
-10.71
0.68
11.54
16.28
12.71
3.43
-5.75
-9.29
-5.09
4.30
13.22
16.30
11.69
2.06
-6.87
-9.95
-5.49
3.52
11.39
12.91
6.73
-4.04
-13.38
-16.13
-10.82
-0.78
8.08
10.50
5.20
-4.39
-12.11
-12.80
-5.28
6.85
17.27
20.55
15.05
4.07
-6.44
-11.10
-8.35
-0.94
5.56
6.52
0.65
-8.91
-16.70
-18.04
-12.00
-1.83
6.64
8.56
3.05
-6.52
-14.15
-15.11
-8.40
2.36
11.41
13.78
8.64
-0.57
-7.92
-8.71
-2.09
8.24
16.32
17.29
10.08
-1.66
-11.97
-15.65
-11.47
-2.58
5.15
6.94
1.72
-6.89
-12.92
-11.67
-2.64
10.14
20.13
22.15
15.51
4.15
-5.39
-8.07
-2.98
5.93
12.85
13.04
6.18
-3.92
-11.47
-12.27
-6.09
3.02
9.26
8.47
0.39
-10.71
-19.00
-19.99
-13.50
-3.31
4.57
5.78
-0.01
-8.89
-14.71
-13.13
-3.98
8.34
17.54
18.98
12.56
2.67
-4.61
-4.94
1.50
10.29
15.40
12.81
3.18
-8.58
-15.84
-14.50
-4.91
7.75
16.88
17.88
10.87
0.54
-6.99
-7.44
-1.35
6.90
11.23
8.01
-1.84
-13.34
-20.04
-18.23
-8.50
3.90
12.73
13.67
7.21
-1.99
-8.13
-7.39
-0.75
7.31
10.88
6.91
-3.29
-14.40
-20.23
-17.52
-7.37
4.71
12.65
12.55
5.43
-3.88
-9.53
-8.03
-0.60
8.04
11.98
8.27
-1.70
-12.54
-18.19
-15.42
-5.59
5.77
12.64
11.30
3.16
-6.67
-12.14
-9.84
-1.14
8.98
14.44
12.13
3.29
-6.87
-12.50
-10.50
-2.21
7.18
12.11
9.45
1.00
-8.13
-12.25
-8.61
0.83
10.79
15.34
11.90
2.28
-7.97
-13.16
-10.67
-2.40
6.30
10.18
6.77
-1.73
-10.13
-13.23
-8.88
0.61
9.97
13.63
9.33
-0.75
-11.05
-15.85
-12.69
-3.68
5.57
9.53
5.88
-2.93
-11.26
-13.78
-8.54
1.74
11.41
15.10
10.80
1.03
-8.68
-12.90
-9.41
-0.45
8.65
12.48
8.79
-0.05
-8.54
-11.26
-6.24
3.78
13.01
16.01
11.09
1.20
-7.79
-10.70
-6.13
2.92
10.74
12.39
6.47
-3.96
-13.06
-15.57
-9.60
1.95
13.15
18.20
14.72
5.30
-4.25
-8.23
-4.63
3.75
11.08
11.99
5.15
-6.05
-15.48
-17.91
-12.17
-1.58
7.85
11.12
6.94
-1.69
-9.07
-10.44
-4.39
5.99
14.92
17.26
11.28
0.17
-10.05
-13.84
-9.42
-0.07
8.21
9.99
3.99
-6.10
-14.21
-15.17
-8.30
2.56
11.27
12.89
6.78
-3.43
-11.82
-13.70
-8.28
1.15
8.83
10.05
3.80
-6.74
-15.60
-17.78
-11.92
-1.31
7.98
10.90
6.25
-2.38
-8.85
-8.48
-0.60
10.65
19.10
20.10
13.15
2.28
-6.64
-9.16
-4.63
3.43
9.72
10.05
3.74
-5.81
-13.22
-14.08
-7.63
2.63
10.83
12.11
5.62
-4.76
-12.71
-13.25
-5.84
5.20
13.28
13.59
5.94
-5.06
-12.98
-13.53
-6.90
2.32
8.22
7.07
-0.59
-10.23
-16.24
-15.08
-7.14
3.35
11.00
11.99
6.22
-2.51
-8.82
-8.62
-1.50
8.83
16.77
17.76
11.12
0.81
-7.25
-8.34
-2.11
7.09
12.97
10.98
1.41
-10.61
-18.31
-17.17
-7.82
4.48
13.03
13.45
6.29
-3.54
-10.06
-9.42
-2.24
7.02
12.81
11.48
3.60
-6.49
-13.20
-12.60
-5.05
5.11
11.88
10.91
2.37
-8.98
-16.61
-15.78
-6.85
5.11
13.21
12.77
4.55
-5.91
-11.79
-8.95
1.17
12.74
19.04
16.27
6.03
-5.98
-13.52
-13.06
-6.01
2.67
7.51
5.42
-2.29
-10.95
-15.39
-12.51
-3.43
7.33
14.27
13.61
5.77
-4.92
-12.74
-13.50
-7.31
1.55
7.12
5.10
-4.12
-15.50
-22.38
-20.30
-9.97
2.98
11.39
10.71
1.82
-9.39
-15.98
-14.04
-5.13
4.72
9.08
5.09
-4.79
-14.38
-17.95
-13.78
-5.27
1.49
2.11
-2.97
-8.19
-6.08
8.00
32.84
61.54
84.99
96.65
95.20
84.79
72.48
64.37
63.00
67.13
73.25
78.13
80.39
80.50
79.95
79.75
79.55
78.12
73.93
66.23
55.75
44.36
34.44
28.04
26.02
27.79
31.53
34.93
35.85
33.26
27.27
18.88
9.47
0.18
-8.51
-16.95
-26.07
-36.81
-49.52
-63.70
-77.94
-90.33
-99.08
-103.44
-103.90
-102.33
-101.07
-102.10
-106.61
-114.98
-126.84
-141.41
-156.19
-168.59
-176.28
-177.82
-173.44
-165.35
-156.65
-149.73
-144.90
-140.25
-131.51
-115.29
-90.48
-58.37
-22.00
15.26
50.88
83.14
110.96
133.73
151.23
163.31
169.35
167.07
154.14
130.04
97.90
64.66
38.84
26.74
29.50
43.78
61.51
74.07
76.44
68.90
55.63
41.28
28.20
15.96
2.93
-11.87
-27.67
-42.00
-52.46
-57.99
-59.46
-59.33
-60.27
-64.06
-71.13
-80.41
-90.05
-98.41
-104.83
-109.81
-114.67
-120.71
-128.63
-138.23
-148.48
-157.91
-165.16
-169.26
-169.80
-166.75
-160.20
-150.55
-137.79
-121.89
-103.00
-81.65
-58.65
-34.97
-11.50
11.08
32.29
51.71
68.90
83.32
94.55
102.52
107.66
110.92
113.52
116.51
120.47
125.33
130.39
134.84
138.14
140.41
142.49
145.67
151.36
160.52
173.36
188.89
204.89
218.13
224.91
221.95
207.37
181.60
147.25
109.45
74.34
47.14
30.35
23.01
21.28
20.21
15.89
6.92
-5.39
-18.21
-28.83
-35.91
-39.72
-41.37
-41.83
-41.34
-39.69
-36.88
-33.81
-32.10
-33.15
-37.00
-41.87
-44.73
-43.02
-36.35
-27.17
-19.88
-18.53
-24.43
-35.02
-44.77
-47.86
-41.30
-26.69
-9.70
2.55
4.96
-3.02
-17.18
-30.68
-37.44
-34.93
-25.03
-12.67
-3.16
0.45
-1.54
-6.27
-10.36
-11.88
-11.13
-9.95
-10.09
-11.74
-13.31
-12.55
-8.36
-1.91
3.69
5.09
0.87
-7.23
-14.87
-17.43
-12.71
-2.43
8.30
13.61
10.05
-1.41
-15.64
-25.90
-27.24
-18.87
-4.50
9.71
18.10
18.20
11.37
1.63
-6.81
-11.56
-12.72
-12.02
-11.10
-10.15
-7.89
-2.82
5.13
13.60
18.62
16.56
6.50
-8.62
-22.86
-29.93
-26.23
-12.77
5.20
20.57
27.63
24.53
13.76
0.47
-10.22
-15.48
-15.55
-12.70
-9.40
-6.69
-3.87
0.37
6.31
12.29
15.19
12.26
3.07
-9.53
-20.26
-23.93
-18.16
-4.86
10.38
20.95
22.36
14.45
1.33
-10.85
-16.91
-15.12
-7.61
1.15
6.90
7.70
4.56
0.27
-2.64
-3.34
-2.93
-3.24
-5.18
-7.79
-8.64
-5.50
1.91
11.03
17.46
17.15
8.78
-5.06
-18.78
-26.33
-24.19
-13.06
2.43
16.03
22.78
21.16
13.27
3.25
-5.11
-10.09
-12.29
-13.39
-14.44
-14.73
-12.21
-5.11
6.25
18.67
27.09
27.05
17.17
0.39
-16.97
-28.05
-28.58
-18.88
-3.54
10.81
18.70
18.17
11.18
2.15
-4.56
-6.70
-4.80
-1.25
1.43
2.16
1.65
1.43
2.47
4.13
4.51
1.83
-3.98
-10.60
-14.15
-11.40
-1.89
11.21
22.29
25.99
20.06
6.75
-8.12
-17.95
-18.61
-10.38
2.37
13.49
18.23
15.45
7.81
-0.02
-4.00
-2.84
1.70
6.24
7.98
6.53
3.95
3.25
6.18
11.80
16.74
17.21
11.28
0.39
-11.25
-18.85
-19.64
-14.30
-6.50
-0.80
-0.14
-4.37
-10.71
-15.65
-17.13
-15.66
-13.77
-14.18
-17.82
-22.82
-25.40
-22.00
-11.54
3.49
17.85
26.00
24.80
15.13
1.39
-10.76
-17.12
-16.74
-11.82
-6.01
-2.06
-0.24
1.34
5.05
11.54
18.78
22.74
19.70
8.63
-7.60
-23.23
-32.25
-31.35
-21.44
-7.09
5.92
13.42
14.67
12.01
8.92
7.59
7.76
7.17
3.49
-3.68
-11.99
-17.29
-16.02
-7.42
5.60
17.61
23.34
20.27
10.02
-2.61
-12.16
-15.25
-12.00
-5.52
0.18
2.57
1.97
1.06
2.82
8.35
15.80
21.19
20.65
12.82
-0.01
-12.86
-20.52
-20.28
-13.16
-3.24
4.64
7.53
5.80
2.54
1.36
4.01
9.11
13.04
12.14
5.09
-5.96
-16.34
-21.31
-18.60
-9.62
1.33
9.39
11.72
8.89
4.21
1.50
2.61
6.35
9.31
8.06
1.50
-8.15
-16.45
-19.13
-14.56
-4.71
5.83
12.32
12.45
7.47
1.25
-2.09
-0.66
4.13
8.53
8.73
3.27
-5.93
-14.60
-18.46
-15.62
-7.62
1.55
7.72
8.93
6.41
3.61
3.88
8.21
14.43
18.31
16.07
6.71
-6.96
-19.62
-26.03
-23.76
-14.34
-2.29
7.33
11.66
11.27
9.32
9.21
12.14
16.24
17.60
12.80
1.29
-13.69
-26.45
-31.66
-27.10
-14.80
-0.00
11.60
16.58
15.28
10.97
7.45
6.62
7.41
6.71
1.72
-7.89
-19.15
-27.13
-27.56
-19.23
-4.89
10.02
20.06
22.40
18.09
11.07
5.69
4.19
5.59
6.49
3.53
-4.35
-14.81
-23.29
-25.51
-19.98
-8.94
2.74
10.22
11.24
7.32
2.64
1.46
5.58
13.21
19.93
21.25
15.19
3.56
-9.07
-17.84
-20.24
-17.26
-12.47
-9.62
-10.23
-12.63
-13.10
-8.39
2.02
15.22
26.21
30.48
26.48
16.49
5.46
-1.67
-2.56
1.43
6.13
7.12
2.34
-6.70
-15.85
-20.81
-19.66
-13.90
-7.36
-3.86
-4.80
-8.25
-10.29
-7.39
1.29
13.22
23.70
28.34
25.38
16.63
6.46
-0.59
-2.28
0.26
3.34
2.98
-2.61
-11.80
-20.52
-24.64
-22.45
-15.77
-8.85
-5.84
-8.24
-13.93
-18.44
-17.61
-10.07
2.00
14.05
21.70
23.07
19.59
14.94
12.73
14.48
18.76
22.22
21.62
15.83
6.73
-1.86
-6.27
-5.20
-0.67
3.02
1.65
-6.38
-18.89
-30.90
-37.30
-35.63
-27.32
-16.78
-8.80
-5.95
-7.38
-9.75
-9.57
-5.41
1.37
7.68
10.87
10.41
8.33
7.84
11.24
18.32
26.22
30.93
29.46
21.61
10.33
0.29
-4.59
-3.23
2.05
6.87
7.39
2.59
-5.04
-10.91
-11.19
-5.15
4.42
12.78
16.24
14.61
11.53
12.65
22.53
42.13
68.39
95.73
118.66
133.98
141.76
144.57
145.58
147.09
149.70
152.51
154.31
154.38
153.06
151.61
151.16
151.51
150.64
144.68
129.34
101.74
61.60
11.69
-42.73
-95.07
-137.69
-164.08
-170.75
-158.78
-134.52
-108.64
-93.12
-97.02
-123.13
-167.08
-219.36
-268.82
-307.35
-330.32
-336.77
-328.34
-308.28
-280.82
-250.58
-221.92
-198.22
-181.09
-170.11
-163.53
-159.21
-155.36
-150.37
-143.32
-133.91
-122.45
-109.99
-98.43
-90.17
-87.30
-90.80
-99.75
-111.31
-121.44
-126.18
-123.18
-112.82
-97.91
-82.35
-69.12
-58.43
-47.55
-31.83
-6.80
29.56
75.65
127.00
178.28
225.53
267.76
306.84
345.24
384.52
423.91
459.75
487.92
505.48
511.67
507.16
492.19
464.71
420.42
357.49
275.64
180.06
81.82
-5.17
-69.15
-104.90
-115.58
-111.30
-104.11
-103.90
-114.67
-134.19
-156.58
-176.00
-189.33
-196.89
-200.94
-203.24
-204.06
-201.40
-192.30
-174.68
-148.31
-114.97
-77.20
-36.96
4.61
46.17
85.16
117.22
136.56
138.93
124.08
97.02
66.34
40.75
24.93
18.33
16.19
13.24
7.40
1.09
-0.70
5.85
20.31
37.46
49.95
52.39
44.22
30.11
16.95
9.81
9.06
10.48
8.18
-1.37
-16.76
-31.68
-38.30
-31.62
-12.53
12.12
32.67
41.33
35.90
20.81
4.29
-6.08
-7.84
-4.45
-2.98
-9.35
-24.09
-41.22
-51.31
-46.80
-26.78
1.77
27.12
38.71
32.51
13.11
-9.24
-24.51
-28.47
-24.74
-21.96
-27.95
-44.21
-64.05
-76.08
-70.81
-46.68
-11.91
19.12
33.22
25.21
0.73
-27.28
-45.82
-49.01
-40.72
-31.35
-30.86
-42.17
-58.99
-69.58
-64.05
-40.68
-7.55
21.57
34.60
27.65
6.76
-16.04
-29.89
-30.98
-24.12
-18.88
-23.28
-38.43
-57.44
-69.32
-65.35
-44.21
-12.93
16.90
35.36
39.54
34.82
31.33
37.77
56.36
81.47
102.86
111.36
103.80
84.51
62.49
46.11
38.55
36.40
32.34
20.20
-0.59
-23.69
-38.95
-38.15
-19.79
9.38
37.55
53.75
53.43
40.31
23.65
12.26
9.41
11.06
8.97
-3.77
-27.44
-54.39
-72.63
-72.30
-51.39
-17.45
15.90
35.78
36.44
21.91
2.91
-9.67
-11.22
-5.81
-3.27
-12.50
-35.26
-63.95
-85.44
-88.38
-69.87
-37.39
-4.97
14.61
16.55
6.22
-4.81
-6.26
4.62
21.41
32.73
29.15
9.14
-19.71
-44.89
-56.01
-50.40
-34.28
-18.84
-13.50
-20.45
-33.35
-41.27
-35.29
-13.84
16.27
43.67
58.83
59.13
49.86
40.35
37.97
43.67
51.66
53.18
42.06
18.75
-9.29
-31.48
-39.67
-32.29
-14.94
3.00
13.57
14.50
10.00
7.60
12.97
26.01
40.34
46.64
38.01
14.31
-17.05
-44.56
-58.49
-55.74
-41.17
-24.54
-14.85
-15.29
-21.66
-25.50
-19.90
-4.39
13.90
23.79
16.50
-8.80
-43.51
-73.47
-86.17
-77.04
-51.51
-21.62
0.67
9.77
8.63
5.70
8.67
19.21
31.54
36.35
26.96
4.64
-20.95
-36.46
-32.08
-7.01
29.97
64.98
85.99
88.38
76.21
58.67
44.41
36.96
33.81
29.27
19.22
4.54
-8.95
-13.98
-6.84
9.43
25.47
29.94
15.38
-17.37
-58.55
-93.56
-109.61
-101.53
-73.87
-38.11
-6.71
12.74
20.26
21.47
22.82
26.94
31.28
30.56
21.53
6.47
-6.92
-9.69
2.66
26.58
51.21
63.35
54.07
23.61
-18.30
-56.60
-77.95
-76.58
-56.32
-27.78
-2.42
13.10
19.33
21.85
26.39
34.36
41.75
42.00
31.03
11.07
-9.43
-20.04
-14.51
5.13
28.82
43.12
38.04
12.27
-25.67
-61.30
-80.89
-77.63
-54.11
-20.22
12.34
35.47
47.40
51.31
51.26
48.54
40.65
23.72
-3.40
-36.10
-64.48
-77.64
-69.47
-42.52
-7.72
20.50
31.04
21.63
-0.06
-20.50
-27.35
-15.77
9.44
36.60
53.47
53.31
37.85
15.15
-5.39
-18.35
-24.23
-27.71
-32.95
-39.75
-42.71
-34.64
-11.87
21.97
56.03
76.83
74.83
49.72
11.16
-25.48
-46.46
-45.94
-28.24
-4.73
12.44
16.56
9.23
-1.73
-7.58
-4.07
6.40
16.85
20.78
16.67
9.22
6.18
12.80
27.43
41.46
43.44
25.58
-11.13
-56.06
-93.25
-108.60
-96.22
-60.84
-15.26
25.69
51.40
59.08
52.94
40.05
25.75
11.06
-6.28
-28.20
-52.73
-72.81
-79.18
-65.53
-32.92
9.32
47.15
68.20
67.64
50.09
26.82
9.41
3.87
8.13
14.28
14.04
4.01
-11.98
-25.33
-27.83
-16.85
2.81
21.29
29.04
22.12
4.61
-13.73
-22.90
-18.25
-2.97
13.91
22.76
18.94
5.45
-9.05
-15.63
-10.47
2.68
14.70
16.50
4.62
-16.17
-35.34
-42.35
-32.65
-10.29
14.22
29.64
29.93
17.42
0.91
-9.61
-8.83
1.06
11.93
14.92
5.84
-11.71
-28.35
-34.24
-24.97
-4.38
17.32
29.12
25.39
9.17
-9.61
-19.93
-15.99
-0.57
16.80
25.44
19.78
2.80
-15.90
-25.76
-21.53
-6.24
10.72
19.30
14.74
0.70
-13.09
-16.46
-5.01
17.27
39.97
52.02
47.59
29.24
6.16
-11.17
-16.93
-12.97
-7.27
-8.75
-21.43
-41.22
-57.64
-59.56
-41.52
-7.19
32.10
63.02
76.63
72.20
56.38
38.34
24.17
13.85
2.33
-15.97
-42.29
-71.03
-91.59
-93.61
-72.68
-33.24
12.83
51.52
72.94
75.28
64.39
49.25
36.38
26.36
14.51
-4.86
-33.29
-65.38
-90.38
-97.47
-81.81
-47.62
-6.75
26.88
43.74
42.72
30.60
17.37
10.33
10.39
12.48
9.57
-2.20
-20.40
-37.14
-43.49
-34.76
-13.66
10.65
27.21
28.99
16.66
-1.73
-15.35
-16.58
-5.16
11.88
24.46
25.33
14.37
-1.48
-12.46
-12.01
-0.69
14.01
22.31
18.05
2.85
-14.58
-23.30
-16.65
3.75
28.51
45.41
45.82
29.08
2.64
-22.41
-37.17
-39.19
-32.67
-24.79
-20.72
-20.11
-17.51
-6.41
15.68
44.33
69.18
78.79
66.56
34.83
-5.68
-40.64
-58.96
-57.71
-42.95
-25.62
-15.42
-15.58
-21.75
-25.58
-20.56
-6.60
9.53
18.30
13.62
-2.66
-20.95
-29.06
-19.10
7.74
41.59
68.81
78.77
68.75
44.44
16.10
-7.11
-21.34
-28.65
-33.94
-40.55
-47.08
-47.84
-36.58
-11.40
22.48
53.63
69.40
62.07
33.31
-5.98
-40.50
-57.79
-53.76
-34.05
-10.20
6.63
11.30
6.43
-0.29
-1.56
5.00
15.65
23.29
22.35
12.68
0.01
-7.68
-5.39
5.25
16.33
18.05
4.75
-20.84
-47.85
-62.45
-55.07
-25.68
15.63
53.22
73.21
69.68
46.72
15.40
-12.22
-28.70
-33.39
-30.51
-24.93
-18.43
-8.92
6.98
29.83
54.72
72.05
71.74
48.90
7.52
-39.73
-76.59
-90.31
-77.42
-45.09
-7.51
20.83
31.52
25.19
9.88
-4.27
-10.44
-8.07
-1.95
1.69
-0.45
-6.70
-11.99
-11.50
-4.33
5.58
11.82
9.87
0.53
-9.77
-12.45
-2.13
19.30
42.51
54.89
46.96
17.70
-23.83
-62.16
-82.27
-76.29
-46.74
-4.91
34.52
59.93
66.98
58.64
41.84
22.90
4.55
-13.73
-32.90
-51.11
-62.64
-60.47
-40.82
-6.90
30.86
58.69
65.92
50.38
19.77
-11.94
-31.49
-32.63
-18.69
-0.01
12.22
11.92
1.05
-12.46
-19.93
-17.28
-7.08
3.55
8.03
4.95
-0.76
-0.86
10.43
31.95
54.94
67.02
58.53
28.02
-16.18
-59.28
-86.61
-89.99
-70.75
-38.21
-4.50
21.17
35.97
42.73
46.18
48.62
47.96
39.28
19.02
-11.05
-42.69
-64.42
-67.28
-50.02
-20.48
7.74
21.89
16.39
-4.39
-28.42
-42.26
-37.69
-15.39
16.17
45.57
64.21
69.78
65.69
57.29
47.61
35.51
17.24
-9.60
-42.34
-72.33
-88.30
-82.09
-53.61
-12.28
26.67
48.98
48.10
28.41
2.67
-14.58
-14.34
2.80
27.69
47.98
54.55
45.80
27.21
7.31
-7.69
-16.99
-24.57
-35.20
-49.91
-63.84
-68.40
-56.55
-27.97
9.17
41.28
56.00
48.64
25.03
-1.34
-16.36
-12.42
8.06
34.52
54.18
58.44
46.73
25.57
4.08
-11.43
-20.45
-27.54
-38.37
-55.00
-73.29
-84.48
-80.21
-58.00
-24.04
8.83
27.06
23.43
1.23
-27.05
-45.95
-44.73
-22.40
12.56
47.32
71.35
80.95
79.22
72.22
64.11
54.59
40.01
17.27
-12.35
-41.93
-61.53
-63.50
-47.20
-20.50
3.35
11.91
-0.10
-27.66
-57.35
-73.73
-66.74
-36.50
6.88
48.17
74.11
78.86
65.45
42.81
20.51
4.28
-5.47
-11.98
-18.64
-26.08
-31.78
-32.22
-26.14
-16.34
-8.68
-8.54
-16.80
-28.13
-33.22
-24.06
0.61
33.31
60.84
71.09
59.76
33.23
5.50
-9.31
-4.54
15.46
37.74
47.77
37.14
8.05
-27.79
-55.39
-64.07
-52.72
-30.02
-9.59
-2.73
-12.49
-32.47
-50.57
-55.79
-44.12
-20.23
5.63
23.57
29.47
26.40
21.75
22.06
29.08
39.28
46.92
48.31
44.45
40.26
40.90
47.85
57.32
62.22
56.40
38.73
14.26
-7.97
-19.92
-19.06
-9.91
-1.80
-3.82
-19.79
-45.71
-71.47
-85.97
-83.06
-64.89
-40.96
-23.10
-18.90
-27.42
-39.60
-43.64
-31.88
-5.65
25.03
46.97
51.19
38.23
17.83
3.29
3.76
19.14
39.96
52.81
47.83
24.32
-8.43
-36.14
-47.04
-38.18
-16.97
2.89
8.96
-2.82
-25.65
-45.46
-48.80
-30.38
3.54
38.36
58.99
58.14
40.18
18.09
5.76
9.82
25.94
41.48
43.07
24.70
-8.23
-41.64
-60.58
-57.48
-36.49
-10.98
4.35
2.10
-13.36
-28.80
-30.24
-11.80
20.26
50.88
64.96
56.30
31.36
5.06
-8.44
-4.38
9.75
19.08
10.85
-17.09
-54.17
-82.81
-88.49
-68.36
-32.83
0.53
17.32
14.52
1.55
-6.41
1.42
24.30
50.18
63.24
53.90
25.01
-9.58
-33.57
-37.91
-26.00
-10.99
-6.92
-19.57
-42.65
-61.64
-62.88
-42.16
-7.28
26.62
46.07
46.68
34.74
22.11
18.18
24.11
32.74
33.87
21.25
-3.41
-31.14
-50.69
-54.42
-41.60
-17.76
8.69
30.48
43.92
49.09
48.54
45.41
41.90
38.45
33.71
25.09
10.43
-9.91
-31.77
-47.85
-50.78
-37.38
-11.51
16.69
35.52
38.10
26.34
9.57
-1.70
-2.78
1.91
2.14
-10.52
-35.75
-63.15
-77.95
-70.32
-41.82
-4.81
24.77
36.58
31.04
17.50
7.15
5.57
9.99
12.42
5.80
-10.91
-31.93
-48.01
-51.66
-40.81
-19.13
6.26
28.15
41.84
46.30
44.02
39.48
37.06
39.04
44.09
47.52
43.66
29.34
6.77
-16.73
-32.18
-34.28
-25.09
-13.39
-9.59
-18.80
-36.89
-52.35
-53.34
-35.52
-5.34
23.55
38.47
35.21
19.94
4.31
-2.66
-0.18
4.78
3.06
-9.97
-30.85
-49.82
-56.42
-45.22
-18.48
15.05
44.22
60.24
60.06
47.50
30.81
18.35
14.00
14.83
12.96
0.86
-22.70
-50.39
-69.61
-69.92
-49.56
-17.04
13.91
32.21
35.38
29.61
24.43
25.88
32.83
38.47
35.09
19.19
-6.25
-33.01
-51.57
-55.31
-43.34
-21.13
1.91
16.55
18.38
10.36
1.24
0.24
10.92
28.13
40.70
38.33
18.64
-10.86
-36.95
-48.89
-44.58
-31.03
-19.01
-15.92
-21.30
-27.95
-27.06
-14.03
9.11
35.05
55.18
63.73
59.98
48.21
35.22
27.08
25.99
28.85
28.49
17.68
-5.96
-37.16
-64.60
-76.80
-68.88
-45.85
-19.80
-2.55
1.50
-2.52
-4.24
4.12
22.10
41.15
50.22
42.83
20.99
-6.00
-27.03
-35.03
-29.87
-17.49
-6.22
-2.41
-7.44
-17.02
-23.40
-19.39
-2.81
21.42
42.95
51.35
42.24
20.20
-3.82
-19.26
-22.53
-18.72
-17.45
-25.62
-42.03
-57.76
-61.71
-47.77
-18.49
16.20
44.34
57.86
55.70
43.48
29.70
21.21
19.90
21.94
20.21
8.74
-12.93
-38.12
-55.83
-56.75
-38.91
-9.29
19.71
37.07
38.88
29.59
18.25
12.48
14.05
18.53
18.70
9.33
-9.31
-30.94
-46.13
-47.06
-31.69
-5.38
21.40
38.30
40.36
30.60
17.50
9.38
8.98
12.00
10.39
-1.77
-23.50
-46.69
-60.23
-56.14
-34.15
-1.97
28.40
46.58
48.47
37.69
22.69
11.51
7.06
5.83
0.74
-13.54
-36.11
-59.10
-71.57
-65.55
-40.76
-5.42
27.77
47.82
50.64
40.35
26.19
16.59
14.30
15.18
11.42
-2.88
-26.87
-52.26
-67.43
-63.57
-40.02
-4.95
28.47
48.72
51.32
40.37
25.29
14.87
12.31
13.89
12.12
1.13
-18.83
-40.39
-52.91
-48.18
-25.50
7.17
36.84
51.97
48.28
30.50
9.22
-5.51
-9.61
-6.40
-3.52
-7.41
-18.72
-31.47
-36.54
-27.20
-3.71
25.88
49.27
56.19
43.71
17.82
-10.02
-29.06
-34.34
-28.31
-18.15
-10.89
-9.19
-9.88
-6.65
5.34
25.27
45.86
56.70
49.93
25.21
-9.39
-41.06
-58.35
-56.28
-38.26
-13.54
7.89
20.20
24.24
25.65
30.15
38.92
47.15
46.77
31.90
3.29
-30.58
-56.98
-65.14
-51.74
-22.86
8.89
30.73
36.07
27.24
12.93
2.16
-1.22
-0.29
-2.25
-13.20
-33.30
-55.54
-69.04
-65.06
-42.23
-8.15
24.45
44.36
47.46
38.09
25.77
19.15
21.06
27.31
29.43
20.11
-1.97
-30.67
-55.48
-67.09
-62.21
-44.76
-23.21
-5.82
3.69
7.53
11.87
22.21
39.21
57.28
67.26
61.71
39.43
7.06
-23.84
-42.50
-44.15
-32.32
-16.59
-7.11
-8.74
-18.57
-28.12
-28.54
-16.09
5.77
28.48
43.29
46.10
39.54
30.70
26.28
28.39
33.11
33.13
22.47
0.60
-26.42
-48.60
-57.28
-49.74
-30.81
-10.31
2.51
3.78
-2.91
-9.01
-6.40
7.48
27.82
45.04
50.16
39.91
18.76
-3.86
-18.80
-22.24
-17.50
-12.59
-15.04
-27.12
-44.06
-56.51
-55.90
-39.25
-11.23
18.09
38.46
44.60
38.49
27.51
19.66
18.70
22.19
23.21
15.02
-4.23
-29.56
-51.47
-60.90
-54.12
-34.67
-11.39
6.40
13.77
12.61
9.61
11.50
20.73
33.86
43.68
43.50
31.34
11.58
-7.24
-17.25
-15.55
-5.63
4.98
9.03
3.78
-7.55
-17.69
-19.82
-11.93
1.91
13.90
17.03
9.00
-6.37
-21.17
-27.75
-23.20
-10.85
1.82
7.68
3.75
-7.18
-18.30
-22.60
-16.98
-4.13
9.09
15.58
12.02
0.61
-12.30
-19.49
-16.76
-4.99
10.31
22.29
26.31
22.05
13.04
4.16
-1.19
-2.86
-3.48
-6.09
-11.43
-16.76
-17.13
-8.48
9.29
31.34
49.37
55.55
46.51
25.53
1.00
-17.55
-24.21
-19.81
-11.31
-7.85
-14.95
-30.86
-47.43
-55.00
-48.01
-28.22
-3.64
16.16
25.45
25.54
23.35
26.71
39.09
57.10
72.33
76.58
66.71
46.63
25.21
10.86
7.04
10.50
13.52
8.69
-6.76
-28.83
-48.81
-58.14
-53.41
-38.79
-23.94
-18.88
-28.33
-48.88
-70.57
-82.06
-76.62
-55.64
-27.84
-4.37
7.41
7.99
4.66
6.30
17.71
36.53
54.82
63.94
59.53
44.05
25.52
12.57
9.51
13.76
17.57
13.07
-2.48
-24.17
-41.59
-44.45
-28.73
0.63
31.72
51.65
52.96
37.22
13.46
-6.94
-16.63
-15.69
-10.55
-9.08
-15.30
-26.55
-35.04
-32.73
-16.68
8.22
31.09
40.70
31.54
7.04
-21.97
-42.82
-47.43
-36.22
-17.46
-1.99
3.25
-1.28
-8.48
-9.64
-0.11
17.44
34.05
39.37
27.72
1.76
-28.84
-52.05
-59.46
-49.78
-29.04
-6.76
9.34
17.00
19.46
21.97
27.61
34.78
37.76
30.20
9.79
-18.85
-45.48
-59.03
-53.27
-29.77
2.60
31.90
48.83
50.69
41.71
29.29
19.37
13.56
9.32
2.70
-7.82
-19.19
-24.97
-19.42
-1.77
22.36
42.80
49.40
37.35
10.05
-21.90
-45.67
-52.15
-39.85
-15.15
11.12
29.09
34.39
29.19
19.67
11.61
7.20
4.42
-0.64
-9.98
-21.17
-28.22
-25.17
-10.31
11.92
32.45
41.80
35.22
15.26
-9.39
-28.54
-35.57
-30.35
-18.54
-8.12
-4.59
-8.03
-13.63
-15.17
-8.98
3.83
17.81
26.23
24.99
15.13
1.94
-8.07
-10.87
-6.87
-0.50
2.56
-0.93
-9.58
-18.11
-20.41
-13.08
2.35
19.71
31.12
31.02
19.22
0.93
-15.89
-24.52
-22.84
-13.97
-4.09
1.50
1.54
-0.81
-0.37
6.14
17.25
26.74
27.03
13.79
-10.54
-37.05
-54.40
-54.69
-37.66
-10.81
14.54
29.15
30.45
23.05
14.94
12.09
14.57
16.80
11.68
-4.07
-26.41
-45.30
-50.02
-35.48
-5.52
28.27
52.03
56.60
41.92
16.40
-7.84
-21.27
-21.15
-11.78
-0.83
5.88
7.34
7.09
9.85
17.75
27.99
33.89
28.78
10.17
-18.06
-46.49
-64.06
-63.30
-44.31
-14.94
12.68
27.46
24.51
7.58
-13.42
-27.91
-30.11
-21.24
-7.86
2.67
7.06
7.69
9.88
17.06
27.70
35.43
32.69
16.21
-9.82
-34.94
-47.59
-40.90
-16.59
15.36
41.51
51.44
42.30
19.73
-5.08
-21.21
-23.27
-13.29
1.54
13.47
18.50
18.17
17.29
19.74
24.54
26.15
18.00
-2.57
-30.87
-55.67
-64.72
-51.61
-19.50
19.63
50.24
60.75
48.78
21.51
-8.42
-28.90
-33.71
-24.39
-8.14
6.99
15.91
18.39
17.71
17.45
18.15
16.70
8.67
-8.17
-30.76
-50.71
-58.15
-47.27
-20.25
12.85
38.33
45.44
31.74
4.28
-24.30
-41.88
-42.27
-27.48
-5.63
13.90
25.20
27.63
24.74
21.00
18.48
15.34
7.66
-7.16
-27.64
-47.32
-57.40
-51.35
-29.24
1.52
29.26
43.25
39.13
20.94
-1.29
-17.47
-22.35
-17.73
-10.54
-7.83
-11.76
-18.18
-19.58
-9.84
11.24
36.75
55.79
59.04
43.81
15.54
-14.61
-35.26
-40.22
-31.29
-16.13
-3.52
1.53
0.34
-1.01
3.49
15.05
28.71
35.80
29.09
7.83
-20.74
-44.74
-53.55
-43.16
-17.98
11.77
35.44
47.07
47.44
42.09
37.24
35.71
35.03
29.47
14.13
-11.16
-40.05
-62.07
-67.75
-53.84
-25.42
6.34
29.63
37.91
32.77
21.94
14.01
13.25
17.25
18.93
11.38
-7.23
-32.07
-53.79
-63.41
-57.02
-38.00
-14.97
2.75
9.94
8.13
4.18
5.76
16.48
33.41
48.66
53.98
45.58
26.72
5.61
-9.13
-13.53
-10.17
-6.32
-9.24
-21.81
-40.25
-56.09
-60.77
-50.44
-28.10
-2.19
17.85
26.66
25.42
20.52
19.20
25.00
35.13
42.20
38.69
21.67
-4.95
-31.90
-49.32
-51.97
-41.89
-26.95
-16.48
-15.99
-23.73
-32.11
-32.16
-18.97
5.08
31.38
50.06
55.47
49.30
39.03
33.26
36.31
45.75
54.19
54.02
41.93
21.16
-0.37
-14.73
-18.47
-14.55
-10.63
-14.67
-29.85
-52.21
-72.30
-80.08
-70.46
-46.56
-18.39
2.56
9.40
3.40
-6.98
-11.35
-3.55
14.91
36.22
50.96
53.77
46.44
36.32
31.50
35.83
46.66
56.40
57.30
45.94
25.42
3.46
-11.80
-16.28
-12.15
-6.25
-6.24
-16.11
-33.77
-52.02
-62.63
-60.87
-48.58
-33.57
-25.44
-30.06
-45.81
-63.94
-73.36
-67.33
-47.55
-23.63
-7.60
-6.89
-19.68
-36.04
-43.64
-34.91
-11.31
17.70
40.38
49.13
44.61
34.59
28.96
33.72
47.84
64.20
74.09
72.60
61.49
47.85
39.66
41.07
49.49
57.23
56.02
41.70
16.80
-10.59
-31.25
-40.00
-38.16
-32.93
-33.17
-44.04
-63.29
-82.34
-90.60
-81.30
-55.89
-23.74
2.99
15.56
13.35
3.93
-1.80
3.57
19.90
40.05
54.21
56.24
47.51
35.35
28.34
31.10
41.17
50.64
51.19
38.98
17.09
-5.92
-21.03
-24.04
-17.78
-10.60
-11.76
-25.78
-49.18
-72.18
-83.58
-76.82
-54.02
-25.09
-2.29
5.93
-0.35
-13.00
-20.86
-16.51
-0.17
20.81
36.52
40.77
34.79
25.81
22.36
28.75
42.00
53.57
54.47
40.39
14.77
-12.74
-31.62
-36.25
-28.73
-17.83
-13.66
-21.76
-39.75
-58.58
-67.48
-60.07
-38.15
-10.45
12.18
22.60
21.35
15.52
14.04
22.15
38.36
55.39
64.79
62.01
48.84
32.27
20.15
16.47
18.87
20.29
13.14
-5.80
-32.65
-58.04
-71.95
-68.99
-51.51
-28.67
-11.07
-5.11
-9.63
-16.77
-17.17
-5.87
14.60
35.49
46.85
43.34
27.49
7.82
-6.06
-8.97
-3.01
4.10
3.82
-8.00
-28.02
-46.89
-54.28
-44.58
-20.10
9.86
34.09
45.23
43.23
34.72
28.18
28.74
35.04
40.19
36.26
19.49
-6.70
-33.16
-49.62
-50.56
-38.10
-20.78
-8.78
-8.47
-18.55
-31.32
-37.05
-29.60
-10.02
14.18
33.56
41.67
38.52
29.94
23.32
22.93
27.26
29.81
23.19
4.18
-23.60
-50.69
-66.42
-64.68
-47.32
-23.10
-3.12
5.22
2.31
-4.67
-6.41
2.78
21.19
40.71
51.84
48.80
33.01
12.24
-4.25
-10.78
-8.04
-2.69
-2.85
-12.79
-30.06
-46.10
-50.76
-38.23
-10.68
22.57
49.11
59.98
54.21
38.29
22.18
13.20
11.72
11.79
5.79
-10.67
-34.61
-57.01
-67.73
-61.00
-38.62
-9.34
16.15
30.53
32.90
28.66
25.05
26.31
31.19
33.31
25.31
4.18
-25.95
-54.87
-70.81
-66.74
-44.30
-12.77
15.18
30.34
31.44
24.59
19.13
21.53
30.98
40.27
40.58
26.62
0.92
-27.39
-47.51
-52.61
-43.27
-27.02
-13.42
-8.74
-12.79
-18.97
-18.97
-8.14
11.85
33.09
45.84
44.08
28.85
7.63
-9.58
-15.98
-11.63
-2.67
2.08
-3.23
-17.42
-33.09
-40.51
-33.13
-12.00
14.85
37.03
46.88
43.87
34.07
25.64
23.71
27.26
29.51
22.93
4.23
-23.13
-49.46
-64.17
-61.37
-42.72
-16.82
5.41
16.64
16.72
11.82
10.64
18.55
33.96
49.44
55.44
45.97
22.73
-5.81
-28.70
-38.09
-33.75
-22.66
-14.27
-15.29
-25.26
-36.89
-40.70
-30.77
-8.17
18.84
39.78
47.77
42.76
31.53
22.90
22.19
28.06
33.46
29.58
11.80
-16.89
-47.22
-67.67
-70.81
-57.49
-36.01
-17.64
-10.61
-15.16
-24.24
-28.12
-19.95
-0.23
23.72
42.52
49.65
45.04
34.51
25.55
22.48
24.17
24.37
16.04
-3.69
-31.16
-56.76
-69.76
-64.10
-41.90
-12.58
11.60
22.39
19.78
11.14
6.75
13.17
29.04
46.06
53.90
46.07
24.22
-2.95
-24.46
-32.73
-27.54
-15.43
-5.45
-3.74
-9.79
-17.04
-17.03
-5.09
16.29
38.23
50.04
45.36
25.81
0.27
-20.08
-28.01
-24.11
-15.73
-12.28
-19.33
-34.93
-50.82
-57.15
-48.22
-25.78
2.01
25.06
36.68
36.88
31.50
28.32
32.27
42.63
53.76
58.83
54.20
41.75
27.93
19.97
21.43
29.89
38.21
38.57
27.18
6.90
-14.33
-27.79
-28.79
-19.61
-8.11
-3.45
-11.12
-29.58
-51.14
-66.13
-68.07
-57.34
-40.97
-28.78
-28.00
-38.96
-54.92
-65.74
-63.97
-49.18
-28.36
-11.93
-7.23
-14.11
-24.74
-28.32
-17.88
5.39
32.76
52.86
58.51
51.05
39.01
33.00
38.99
54.50
70.56
76.76
67.60
45.87
20.70
2.47
-3.27
0.82
6.04
2.67
-14.03
-40.30
-66.16
-80.36
-76.89
-58.69
-35.51
-18.68
-14.66
-21.12
-29.05
-28.14
-13.12
12.68
39.75
57.56
60.81
52.35
40.60
34.43
37.37
45.20
48.86
39.78
15.59
-17.57
-48.08
-64.48
-61.53
-43.12
-19.65
-2.59
1.95
-3.65
-10.78
-9.82
3.76
26.36
48.72
60.96
58.35
43.94
26.26
14.18
11.75
15.85
18.62
12.00
-7.02
-34.19
-60.03
-74.56
-72.67
-56.71
-35.09
-17.90
-11.32
-14.68
-21.14
-22.07
-12.39
6.46
27.14
40.51
40.91
29.37
12.69
-0.49
-4.79
-1.33
3.41
1.73
-10.06
-28.34
-43.68
-45.74
-29.42
1.53
36.18
61.69
69.94
61.35
43.71
27.17
17.80
14.63
11.34
0.86
-18.71
-42.44
-60.40
-63.40
-48.51
-20.51
9.97
32.12
40.13
35.57
25.58
17.83
16.09
18.01
16.84
6.51
-14.40
-40.16
-60.53
-65.90
-52.34
-24.39
7.48
31.83
42.19
39.98
32.34
27.53
29.25
34.29
35.07
24.36
0.84
-29.49
-55.57
-67.32
-61.11
-41.32
-18.32
-2.56
0.70
-6.16
-14.92
-16.86
-7.70
9.78
27.26
35.99
31.38
16.11
-1.87
-13.79
-15.06
-8.11
-0.01
1.62
-5.96
-18.63
-27.65
-24.84
-7.92
17.77
41.66
53.44
48.62
30.45
8.01
-9.26
-16.66
-16.16
-14.47
-17.89
-27.88
-39.25
-43.21
-32.58
-6.70
26.98
56.31
70.21
64.29
43.02
16.89
-3.20
-11.52
-9.66
-4.40
-2.89
-8.02
-16.70
-21.98
-17.88
-3.51
15.51
29.70
30.67
16.08
-8.65
-32.96
-46.35
-43.70
-27.55
-5.98
12.17
22.04
24.81
25.60
29.26
36.39
42.47
40.51
25.55
-1.48
-32.97
-57.53
-65.40
-53.23
-25.80
6.06
30.69
40.78
36.50
24.13
11.67
4.08
0.37
-4.59
-16.11
-34.70
-54.64
-66.36
-61.90
-39.84
-6.60
26.39
48.48
54.72
47.68
35.12
25.02
21.05
20.92
18.73
9.31
-7.65
-26.34
-37.59
-34.19
-15.37
11.84
35.23
43.50
31.70
4.31
-27.18
-49.82
-55.38
-44.18
-23.68
-4.24
6.96
8.68
5.21
2.35
2.72
4.35
1.70
-9.44
-28.32
-47.77
-57.71
-50.81
-26.84
5.59
33.52
45.32
36.98
13.68
-12.93
-30.79
-33.62
-22.81
-6.18
7.72
14.07
14.20
13.64
17.48
26.96
37.61
42.22
34.95
15.41
-10.24
-32.40
-42.61
-38.51
-24.47
-9.62
-2.10
-4.68
-12.97
-18.02
-12.13
6.84
33.08
56.21
66.36
59.74
40.63
18.38
2.51
-3.08
-1.34
0.13
-5.40
-19.01
-35.03
-43.83
-38.01
-16.57
13.32
40.20
53.93
50.76
35.24
16.59
3.87
0.35
2.65
3.09
-4.91
-21.98
-42.15
-55.31
-53.42
-34.64
-5.19
23.89
42.39
45.88
37.81
26.24
19.34
19.94
24.41
25.20
15.71
-4.84
-30.70
-51.79
-59.46
-50.55
-29.47
-5.40
12.48
19.48
17.69
13.24
12.71
18.15
26.10
29.46
21.95
2.74
-22.76
-44.65
-54.11
-47.53
-28.62
-6.14
11.14
18.69
18.62
16.95
19.92
29.29
41.20
48.60
45.23
30.00
7.47
-13.89
-26.75
-28.42
-22.03
-14.69
-12.81
-18.78
-28.82
-35.68
-32.27
-16.23
8.28
32.51
47.08
47.26
34.67
16.69
1.68
-5.45
-5.54
-4.53
-8.62
-20.47
-36.17
-47.61
-46.66
-30.28
-3.06
25.18
43.79
47.09
36.50
19.63
5.25
-1.85
-2.71
-3.62
-10.76
-26.40
-45.88
-60.30
-61.03
-44.71
-15.98
15.21
38.01
46.49
41.69
30.65
21.24
17.29
16.93
13.51
1.28
-20.96
-47.22
-67.39
-72.02
-57.66
-29.15
3.02
27.35
37.34
33.64
23.27
14.29
11.08
12.05
10.84
1.25
-18.77
-44.09
-64.95
-71.36
-58.78
-30.68
2.98
30.58
44.72
45.32
38.99
33.94
34.93
40.05
42.25
34.28
14.02
-12.89
-35.73
-44.09
-34.17
-10.61
15.88
34.64
40.62
36.32
29.37
26.95
31.12
37.15
36.85
23.49
-3.43
-37.03
-66.03
-80.34
-76.17
-57.43
-33.76
-15.14
-7.13
-8.15
-11.20
-8.35
4.41
24.39
43.63
53.06
47.79
29.87
7.22
-10.72
-18.16
-15.84
-10.03
-8.19
-13.88
-24.17
-31.26
-27.27
-9.41
17.65
44.02
59.43
58.69
43.97
23.40
6.26
-2.21
-3.08
-2.62
-7.54
-20.68
-38.28
-52.10
-53.75
-39.70
-13.72
14.99
36.35
44.75
41.64
33.98
29.22
30.89
36.15
37.81
28.74
6.60
-24.02
-53.36
-71.11
-71.81
-57.26
-35.85
-17.55
-8.87
-9.23
-12.23
-9.71
2.77
22.92
42.81
53.38
49.82
34.40
15.15
0.75
-4.15
-1.86
0.75
-3.54
-17.17
-35.76
-49.97
-50.69
-34.47
-5.79
24.24
43.72
45.54
31.34
9.69
-8.33
-15.71
-12.61
-5.66
-3.34
-10.33
-24.53
-38.04
-42.11
-31.96
-10.11
15.61
36.00
45.77
45.84
42.28
41.95
48.09
58.36
66.04
64.45
51.06
29.62
8.05
-5.69
-8.55
-3.97
-0.10
-5.05
-21.94
-46.73
-70.23
-82.93
-80.19
-65.10
-46.48
-34.50
-34.64
-44.93
-56.80
-60.23
-49.34
-26.11
0.69
20.31
25.90
18.61
6.64
0.47
6.43
23.47
43.41
56.53
57.02
46.77
33.62
26.80
30.95
43.33
55.46
57.88
45.62
20.98
-7.61
-30.40
-41.09
-40.35
-34.27
-30.94
-35.05
-45.26
-54.79
-55.76
-43.97
-21.92
2.38
19.82
25.43
21.22
14.75
14.34
23.91
40.53
55.96
61.46
52.67
32.23
8.23
-10.12
-17.58
-15.39
-10.58
-11.47
-22.81
-42.17
-61.02
-69.11
-60.55
-37.49
-9.36
12.36
20.49
16.28
8.11
6.07
15.53
33.77
51.88
60.07
53.64
35.44
13.98
-1.72
-7.28
-5.16
-2.47
-6.56
-20.33
-40.25
-58.08
-65.50
-58.58
-40.30
-18.67
-2.47
3.82
2.41
0.41
5.08
19.02
38.23
54.17
58.88
49.43
29.95
9.10
-4.87
-8.51
-4.88
-1.37
-5.41
-19.74
-40.50
-58.83
-65.21
-54.61
-29.18
2.36
29.11
43.27
44.15
37.63
32.32
34.16
42.87
52.51
55.42
47.32
30.11
10.93
-2.30
-5.41
-0.79
4.55
2.90
-9.32
-29.34
-49.29
-60.85
-59.58
-47.87
-32.92
-23.15
-22.72
-29.32
-35.23
-32.22
-16.43
8.95
35.18
52.71
56.22
47.49
33.75
23.38
20.85
24.46
27.45
22.29
5.46
-19.96
-45.38
-60.97
-60.90
-46.49
-25.52
-7.73
0.45
-0.34
-3.50
-0.88
11.61
31.07
49.10
56.78
50.17
32.74
13.32
0.86
-0.92
4.45
8.49
3.03
-14.81
-40.35
-63.61
-74.31
-67.20
-44.69
-15.59
9.47
23.23
25.06
20.24
16.31
18.07
24.93
31.02
29.21
15.41
-8.08
-33.53
-51.37
-55.56
-46.52
-31.14
-18.68
-15.47
-21.14
-29.21
-30.98
-21.09
-0.83
22.39
39.55
45.26
41.07
33.88
31.50
37.46
48.86
58.04
57.56
44.74
23.67
2.65
-10.51
-13.14
-9.12
-6.56
-12.74
-29.53
-51.60
-69.29
-73.77
-62.16
-39.53
-15.97
-1.32
0.53
-6.34
-12.53
-9.26
6.59
30.25
52.27
63.69
61.45
49.85
37.78
33.17
38.50
49.11
56.32
52.18
34.29
7.44
-18.86
-35.54
-38.75
-32.15
-24.53
-24.99
-37.25
-57.11
-74.43
-78.92
-65.85
-39.33
-9.77
11.60
19.16
15.71
10.10
11.33
23.01
41.00
56.37
60.73
51.51
33.42
15.47
5.49
5.53
10.65
12.23
3.30
-17.04
-42.23
-61.67
-66.22
-53.13
-27.62
-0.07
19.48
26.35
23.42
18.50
19.36
28.78
42.95
53.77
53.70
40.26
17.70
-5.60
-21.41
-26.36
-23.18
-19.02
-20.79
-31.18
-46.50
-58.93
-60.45
-47.70
-23.70
3.06
23.46
32.03
30.05
24.04
21.75
27.04
37.87
46.93
46.54
33.03
9.46
-16.11
-34.47
-40.52
-35.29
-25.46
-18.92
-20.48
-28.83
-37.71
-39.41
-29.61
-9.66
13.66
32.18
40.50
38.87
32.29
26.77
25.17
25.33
21.48
8.46
-14.07
-40.12
-59.81
-64.39
-51.26
-25.57
2.23
21.43
26.48
19.44
8.10
1.22
3.59
13.59
24.40
28.21
20.78
4.23
-14.37
-26.83
-28.68
-21.33
-11.25
-5.63
-8.10
-16.21
-23.08
-21.66
-9.31
10.28
29.12
39.31
37.50
26.54
13.51
5.50
5.68
11.47
16.70
15.02
4.04
-13.34
-30.06
-39.01
-36.68
-25.49
-11.89
-3.29
-3.38
-10.09
-16.86
-16.42
-5.28
14.09
34.24
47.01
47.59
37.39
22.39
9.75
3.26
1.67
-0.47
-8.58
-24.53
-44.46
-60.59
-65.27
-55.20
-33.51
-8.31
11.44
20.96
21.39
18.98
20.55
29.42
42.98
54.81
58.11
50.27
34.50
18.03
8.02
7.18
12.28
15.70
10.27
-6.68
-30.82
-53.09
-64.09
-59.21
-40.91
-17.64
0.78
8.44
6.12
0.48
-0.64
6.95
20.92
34.11
38.54
30.58
13.18
-5.82
-18.12
-19.87
-13.85
-7.69
-8.99
-20.70
-38.60
-53.62
-56.55
-43.40
-17.64
11.37
33.39
42.64
40.36
33.45
29.65
32.75
40.31
45.35
40.68
23.55
-2.19
-27.91
-44.60
-47.74
-39.69
-28.05
-21.12
-22.93
-30.93
-37.55
-34.84
-19.41
5.28
30.58
47.31
50.46
41.96
28.77
18.81
15.97
18.35
19.44
12.56
-4.67
-28.32
-49.47
-59.05
-52.20
-31.47
-5.15
16.72
27.74
28.38
24.77
24.91
33.04
47.52
61.10
65.87
57.81
39.36
18.33
2.98
-2.22
0.18
2.93
-2.20
-18.92
-43.88
-68.39
-82.59
-81.26
-65.92
-44.61
-26.69
-18.22
-18.44
-20.82
-17.71
-4.88
14.94
34.10
43.71
39.30
23.48
4.32
-8.95
-11.67
-5.76
1.00
0.41
-11.47
-31.31
-49.93
-57.37
-47.98
-24.05
5.96
31.32
44.79
45.99
40.54
36.36
38.18
45.03
50.48
47.10
31.11
5.32
-21.72
-40.28
-44.42
-35.39
-20.39
-8.60
-5.85
-11.20
-17.88
-17.54
-5.56
15.88
38.52
52.47
51.39
36.00
13.28
-7.31
-19.14
-21.64
-19.93
-20.98
-28.77
-41.30
-51.49
-51.27
-36.46
-9.76
20.32
43.52
53.02
48.74
36.73
25.50
20.82
22.55
25.24
21.91
8.81
-11.55
-31.12
-40.59
-34.46
-14.32
11.78
33.56
43.56
40.83
30.36
19.51
13.24
11.24
8.46
-1.30
-20.82
-46.50
-69.46
-79.62
-70.99
-45.40
-11.76
17.97
34.77
36.72
29.17
20.86
18.21
21.55
25.07
21.08
5.37
-18.96
-42.40
-53.88
-47.00
-23.68
6.62
31.86
43.79
41.68
31.97
23.52
22.03
26.84
31.63
28.68
13.72
-10.72
-36.46
-53.95
-57.19
-47.17
-30.98
-18.12
-15.03
-21.58
-31.37
-35.47
-27.89
-9.08
13.71
30.86
35.32
26.58
10.87
-2.90
-8.10
-4.41
2.62
5.07
-2.17
-17.61
-33.48
-39.72
-29.86
-4.93
26.59
52.99
65.26
61.61
47.66
32.39
22.66
19.35
17.49
9.92
-7.54
-32.64
-57.18
-70.98
-67.22
-46.06
-14.81
15.57
35.84
42.70
39.62
34.05
32.48
36.39
41.37
40.28
27.78
4.39
-22.99
-44.49
-52.42
-45.87
-31.03
-17.88
-14.74
-23.23
-37.59
-47.80
-45.70
-29.53
-5.11
17.69
30.56
31.34
24.74
18.91
20.05
28.49
38.43
41.55
32.10
10.54
-16.17
-38.01
-47.08
-41.48
-26.38
-10.68
-2.26
-3.36
-9.36
-11.95
-4.15
14.69
38.27
56.42
60.78
49.69
28.84
7.95
-5.06
-8.32
-6.65
-8.26
-19.23
-39.57
-62.41
-77.33
-75.99
-56.50
-25.06
7.29
30.04
38.31
35.15
28.65
26.85
32.45
41.29
45.03
36.33
14.10
-15.51
-41.84
-55.40
-53.18
-39.51
-23.74
-14.47
-15.01
-21.56
-25.71
-19.75
-1.12
25.35
50.32
64.82
65.00
54.31
40.74
32.11
31.31
34.91
35.71
27.36
8.68
-15.05
-35.06
-43.88
-39.97
-28.29
-17.92
-16.65
-26.35
-41.87
-53.40
-52.24
-35.49
-8.21
19.25
36.85
40.00
32.16
22.26
19.30
27.20
42.56
57.07
62.53
55.98
41.41
27.21
20.95
24.63
33.52
38.95
33.63
15.96
-8.54
-30.30
-40.87
-37.85
-26.00
-14.52
-11.85
-20.87
-37.43
-52.85
-59.31
-54.24
-41.91
-30.87
-28.83
-38.18
-54.15
-67.57
-70.13
-59.23
-39.71
-21.17
-12.87
-18.10
-32.16
-44.77
-45.65
-30.36
-2.97
26.09
45.96
51.32
45.14
36.62
35.48
46.01
64.64
82.38
90.34
84.91
69.84
53.66
44.30
44.46
50.19
53.59
47.58
30.21
5.98
-16.87
-30.96
-33.94
-29.66
-25.91
-29.94
-44.11
-64.31
-81.83
-88.08
-79.22
-58.64
-35.47
-19.84
-17.48
-26.42
-38.10
-42.14
-32.30
-10.20
15.78
35.29
42.03
37.32
28.75
25.06
30.58
42.52
52.90
53.52
41.18
19.62
-2.55
-16.80
-19.46
-13.46
-6.50
-6.26
-15.91
-31.72
-44.79
-45.94
-30.59
-2.13
29.81
53.94
63.03
57.59
44.43
32.31
26.22
24.77
21.53
9.67
-12.94
-41.60
-66.54
-77.84
-70.69
-47.69
-17.72
8.87
25.18
30.47
29.75
29.54
33.84
41.08
45.32
39.88
21.63
-5.98
-34.36
-53.84
-58.62
-49.94
-34.87
-22.25
-17.34
-18.85
-20.15
-13.52
4.20
29.45
52.82
64.31
59.04
39.71
15.34
-3.98
-12.46
-11.57
-8.51
-11.08
-22.84
-40.07
-53.47
-53.72
-36.51
-6.02
27.28
51.49
59.24
51.32
35.01
19.61
10.76
7.61
4.39
-5.41
-23.67
-45.78
-62.71
-65.89
-52.67
-27.63
-0.90
17.23
21.78
15.03
5.19
1.31
8.30
24.30
42.04
53.62
54.59
46.59
36.07
29.66
30.49
35.69
38.37
31.46
12.17
-15.62
-43.19
-61.02
-64.00
-54.29
-39.71
-29.88
-30.58
-40.36
-51.94
-56.02
-47.25
-26.96
-2.81
15.91
23.69
21.36
15.56
14.19
21.48
35.84
50.49
58.15
55.12
43.36
29.41
19.99
18.06
20.67
20.64
10.96
-10.84
-39.93
-65.98
-78.20
-70.99
-47.67
-18.72
3.26
10.15
2.95
-9.56
-16.05
-9.24
9.89
32.93
49.14
51.72
41.29
25.04
11.69
6.24
7.17
7.98
1.79
-13.89
-34.91
-52.43
-57.79
-47.10
-23.76
3.39
24.64
34.07
32.23
24.97
19.16
18.66
21.53
21.89
13.75
-4.74
-28.95
-49.66
-57.87
-49.34
-27.53
-1.60
18.32
26.33
23.77
17.63
15.55
21.03
30.49
35.79
29.27
8.84
-19.42
-44.16
-54.76
-46.68
-24.33
1.76
20.57
26.06
19.92
9.59
2.88
3.69
9.48
13.72
10.19
-3.01
-21.66
-37.60
-43.39
-35.91
-18.35
1.81
16.78
22.15
18.94
12.49
8.72
11.05
18.07
24.77
25.53
17.25
1.74
-14.98
-26.06
-27.28
-19.79
-9.64
-4.24
-8.26
-20.53
-34.16
-40.60
-34.26
-16.14
6.31
23.53
29.02
23.07
12.72
7.12
12.02
26.28
42.03
49.68
43.36
24.52
1.30
-16.33
-22.31
-17.87
-10.61
-9.47
-18.97
-35.89
-50.81
-53.19
-37.69
-7.52
26.85
52.95
62.62
55.90
40.13
25.19
17.74
17.70
19.01
14.03
-1.33
-24.38
-46.56
-58.08
-53.15
-33.21
-6.39
17.04
29.80
31.01
25.83
21.30
21.57
25.26
26.42
18.56
-0.76
-27.36
-52.05
-64.91
-60.66
-41.36
-15.35
6.98
18.59
18.98
13.69
10.51
14.29
23.65
31.70
30.12
14.62
-11.41
-38.12
-53.92
-51.78
-33.24
-7.35
14.39
24.35
22.54
15.87
12.98
18.74
30.79
40.92
40.03
23.53
-5.28
-36.47
-58.35
-63.06
-50.04
-26.09
-1.33
15.70
21.67
19.26
14.33
11.54
11.67
11.09
4.66
-9.75
-28.49
-43.29
-44.91
-29.12
-0.06
31.12
50.77
49.83
28.82
-2.51
-30.12
-42.29
-35.90
-16.62
5.12
19.89
24.52
22.62
20.50
22.21
26.45
26.70
16.32
-6.28
-35.23
-58.71
-64.78
-48.31
-13.93
25.55
54.81
63.67
51.68
27.09
2.45
-12.16
-14.13
-7.82
-0.90
0.87
-2.28
-4.89
-0.85
12.32
30.61
44.88
46.23
30.85
2.59
-28.15
-49.52
-54.28
-42.48
-21.26
-0.60
12.34
16.28
15.39
16.04
22.06
31.75
39.12
36.86
20.86
-6.33
-36.34
-58.79
-65.82
-55.97
-34.80
-11.38
6.03
13.99
15.11
15.40
19.77
28.48
36.20
35.09
20.14
-6.84
-37.05
-58.70
-63.20
-50.00
-26.65
-4.53
7.41
7.56
1.95
-0.24
7.39
24.12
42.38
52.25
47.23
28.19
3.07
-17.50
-26.07
-22.08
-11.92
-4.92
-7.96
-21.13
-37.88
-48.45
-45.35
-27.65
-1.33
23.90
39.61
42.91
37.59
30.90
28.98
32.85
37.38
34.75
19.51
-7.35
-37.87
-60.50
-66.49
-54.59
-31.60
-9.05
3.46
3.56
-3.14
-7.11
-0.78
16.20
36.97
51.59
52.57
39.36
18.78
0.61
-7.95
-6.10
-0.06
1.08
-8.70
-28.37
-49.66
-61.04
-54.33
-29.51
4.80
35.37
51.11
48.92
34.34
17.75
7.86
6.70
9.10
7.00
-5.02
-25.48
-46.21
-56.92
-51.02
-29.49
-0.41
25.23
39.38
40.34
33.14
25.63
23.58
27.35
31.79
29.60
15.88
-8.15
-35.21
-55.19
-60.24
-48.76
-26.14
-1.70
16.06
23.66
23.71
22.41
25.00
32.14
39.01
38.29
24.72
-0.92
-31.22
-55.36
-64.76
-57.44
-39.00
-19.59
-8.11
-7.44
-13.01
-16.03
-9.01
9.06
31.93
49.47
53.39
41.90
20.95
0.39
-11.46
-12.18
-6.43
-2.39
-6.61
-19.58
-35.04
-43.21
-36.63
-14.90
14.88
41.42
55.16
53.29
40.94
27.55
21.30
24.22
30.84
32.04
20.45
-4.57
-35.82
-61.71
-72.44
-64.97
-44.40
-21.16
-4.93
0.37
-1.76
-3.23
3.37
19.61
39.94
54.96
56.71
43.54
21.36
0.14
-11.78
-12.08
-5.59
-1.21
-6.29
-22.44
-44.23
-62.19
-67.92
-58.85
-39.19
-17.33
-1.25
5.88
7.07
8.78
16.50
31.43
49.05
61.69
62.96
51.48
31.82
12.33
0.46
-1.74
1.64
2.51
-6.28
-26.10
-50.81
-69.63
-72.72
-56.61
-27.00
4.42
26.13
32.78
27.67
20.27
19.64
28.47
41.93
50.37
45.52
25.85
-1.92
-26.73
-38.83
-34.93
-19.96
-3.69
4.96
2.67
-6.56
-13.87
-11.24
3.32
24.63
42.45
47.29
35.69
12.52
-11.94
-27.21
-28.40
-19.04
-8.40
-5.92
-15.71
-33.82
-50.37
-55.58
-45.49
-24.24
-1.94
11.40
11.46
2.30
-6.30
-4.82
10.22
33.76
54.86
63.05
54.21
32.95
10.48
-1.95
0.43
13.36
25.47
24.96
6.43
-25.58
-58.95
-80.34
-82.61
-68.54
-48.88
-35.76
-35.66
-45.97
-57.11
-58.78
-46.52
-24.15
-1.26
12.94
15.29
10.38
7.26
13.92
32.20
56.50
77.03
85.17
78.20
60.75
42.14
31.09
30.99
38.25
44.09
39.83
22.07
-5.09
-31.70
-47.13
-46.22
-32.04
-14.22
-3.52
-5.35
-16.63
-27.95
-29.21
-16.04
7.98
33.26
49.92
53.28
46.33
36.87
32.96
37.94
48.33
56.73
56.25
44.66
25.98
8.15
-1.92
-2.16
3.66
7.80
3.47
-11.13
-31.46
-49.23
-56.62
-51.09
-37.22
-23.99
-20.04
-28.90
-46.55
-63.53
-70.54
-63.76
-46.92
-29.76
-22.06
-27.84
-42.66
-56.23
-58.00
-43.78
-18.62
6.23
19.41
16.11
0.94
-14.78
-19.79
-9.24
12.46
34.18
44.82
39.76
23.52
7.05
1.06
9.50
27.18
43.01
46.48
34.10
11.63
-9.25
-17.68
-9.49
10.61
31.85
43.85
42.30
30.98
18.98
15.30
23.30
38.97
53.87
59.91
54.19
40.65
27.18
20.67
23.19
30.64
35.17
30.11
13.95
-8.76
-29.62
-41.00
-40.63
-32.82
-26.05
-28.49
-43.19
-65.67
-86.10
-94.65
-86.81
-66.05
-42.35
-26.41
-23.63
-31.09
-39.42
-38.34
-22.91
3.27
30.32
47.67
50.00
40.40
28.24
23.23
29.61
43.95
57.24
60.50
50.46
31.58
13.04
3.33
5.23
13.89
19.93
15.08
-3.08
-29.52
-54.25
-67.74
-66.23
-53.31
-37.71
-28.40
-29.34
-37.03
-42.89
-38.32
-19.83
8.64
37.59
57.36
63.25
57.66
48.20
42.91
45.26
52.17
56.35
50.71
32.96
7.50
-16.72
-31.43
-33.59
-27.25
-21.32
-24.24
-38.53
-58.83
-74.67
-76.34
-60.69
-33.67
-7.18
7.28
4.95
-9.51
-24.91
-29.83
-19.30
2.74
26.03
40.26
41.02
32.43
23.92
24.37
36.57
55.66
72.36
78.65
72.48
58.68
45.62
39.89
42.45
48.39
50.01
41.60
22.77
-0.89
-21.18
-31.54
-30.52
-22.78
-16.57
-19.23
-32.86
-52.90
-70.27
-76.31
-67.95
-49.79
-31.49
-22.44
-26.22
-38.36
-49.02
-49.11
-36.20
-15.99
0.65
4.03
-8.46
-30.19
-48.95
-53.90
-41.31
-16.98
6.78
18.11
12.28
-5.61
-23.84
-30.36
-19.73
3.63
28.60
44.15
45.70
37.46
29.64
31.55
45.58
65.74
81.79
85.35
74.95
56.82
40.63
33.47
35.55
40.88
40.92
29.88
8.28
-17.10
-37.08
-45.17
-40.62
-28.97
-19.31
-19.47
-31.91
-52.26
-71.67
-81.22
-76.46
-60.28
-41.33
-29.05
-28.18
-36.12
-44.13
-42.47
-26.61
-0.34
26.52
43.73
46.54
38.56
29.38
28.41
38.87
56.12
70.77
74.40
64.69
46.76
29.73
20.86
21.33
25.94
26.30
16.05
-5.23
-31.21
-52.24
-60.51
-54.14
-38.15
-22.12
-15.05
-20.20
-33.28
-44.94
-45.69
-31.30
-5.50
21.93
40.67
45.38
38.42
27.96
22.78
26.81
36.50
43.11
38.29
19.34
-8.31
-33.88
-47.17
-44.57
-31.46
-19.18
-18.56
-33.26
-57.24
-77.69
-82.10
-65.64
-33.86
0.47
24.50
32.36
27.96
21.71
23.45
36.30
54.90
69.16
70.89
58.76
39.29
22.51
15.62
18.69
24.72
24.07
10.49
-14.88
-43.56
-64.25
-68.93
-57.09
-36.01
-16.60
-7.52
-10.40
-19.31
-24.58
-18.55
-0.17
24.41
45.62
55.89
53.60
43.33
32.42
26.23
24.81
23.06
14.51
-4.12
-30.26
-55.89
-71.29
-70.08
-52.77
-26.56
-1.65
13.73
17.33
13.54
10.34
14.50
27.51
45.02
59.45
64.30
57.78
43.59
28.64
18.96
16.10
16.45
13.47
1.59
-19.99
-46.01
-67.25
-75.06
-66.10
-44.25
-18.65
0.86
8.83
6.96
2.47
3.32
13.01
28.52
42.03
45.36
34.97
14.36
-7.86
-22.82
-26.54
-21.74
-16.02
-17.22
-28.39
-45.41
-59.18
-60.67
-46.49
-20.73
6.98
26.53
32.77
28.15
20.51
18.12
24.39
36.31
46.43
47.41
36.66
18.06
-0.26
-10.70
-10.77
-4.38
0.41
-4.15
-20.64
-44.42
-65.65
-74.42
-66.38
-45.08
-20.21
-2.61
1.74
-4.88
-13.51
-13.88
-0.77
23.16
48.92
66.18
69.17
59.83
46.08
36.68
35.83
41.22
46.05
43.52
31.35
13.35
-2.79
-10.30
-7.55
1.10
7.93
6.24
-5.82
-23.96
-40.22
-47.49
-43.74
-33.19
-23.70
-22.35
-31.35
-46.45
-59.24
-62.05
-52.69
-36.07
-21.34
-16.74
-24.69
-40.02
-52.65
-53.37
-39.45
-16.39
5.37
16.50
14.18
3.62
-5.07
-3.05
11.90
33.97
53.19
61.59
57.84
47.81
40.71
43.26
55.56
70.85
79.73
76.07
60.61
40.55
25.13
20.22
24.85
31.56
30.68
16.18
-10.53
-40.91
-63.65
-70.66
-61.41
-43.53
-28.73
-26.43
-38.43
-57.83
-73.02
-74.06
-58.21
-31.50
-5.46
9.31
9.13
-0.99
-10.66
-10.32
3.35
25.64
46.51
56.49
52.06
37.73
23.05
16.73
21.55
32.71
40.37
35.46
15.08
-15.17
-43.93
-60.22
-59.40
-45.40
-28.07
-17.40
-17.61
-24.80
-29.61
-23.25
-3.22
24.84
50.37
63.83
61.94
49.26
34.82
26.41
25.99
28.69
26.33
12.83
-11.38
-38.79
-58.40
-61.40
-46.02
-18.47
9.97
28.62
32.59
24.64
12.80
5.23
5.31
9.63
10.61
1.48
-18.74
-43.64
-62.49
-65.90
-51.02
-23.37
6.36
28.14
37.71
38.01
36.24
38.34
45.04
51.13
49.08
34.29
8.73
-19.21
-39.10
-44.13
-34.89
-19.03
-7.01
-6.37
-17.38
-32.89
-42.40
-37.72
-17.65
11.20
37.80
52.25
50.86
37.67
21.56
11.02
9.26
12.58
13.01
3.51
-17.08
-42.51
-62.13
-66.57
-53.07
-27.22
0.12
19.06
25.83
24.44
23.31
29.32
43.27
59.07
67.33
61.36
41.59
15.93
-4.56
-11.80
-5.41
7.15
14.66
8.22
-13.64
-43.94
-70.93
-84.25
-80.39
-64.62
-47.80
-40.45
-46.72
-62.03
-75.76
-77.44
-62.87
-36.70
-9.73
7.22
9.53
1.24
-7.63
-7.36
5.59
26.63
46.13
55.67
53.16
43.96
37.38
40.58
54.07
71.38
82.95
82.05
68.89
50.61
36.91
34.36
42.32
53.25
56.83
45.63
19.45
-14.38
-44.54
-61.61
-62.83
-53.45
-43.24
-40.96
-49.21
-62.98
-72.61
-69.38
-50.82
-22.54
4.86
22.09
26.41
22.90
20.71
26.97
42.04
59.09
67.80
60.54
37.23
5.87
-21.66
-35.99
-35.27
-25.79
-18.09
-21.00
-36.42
-58.12
-75.27
-78.47
-65.22
-41.64
-18.63
-5.48
-4.47
-9.80
-11.56
-2.23
18.61
43.74
62.42
66.93
57.18
40.83
28.62
27.98
38.59
52.65
59.33
50.70
26.42
-5.81
-34.12
-48.62
-46.55
-33.63
-20.31
-15.48
-21.18
-31.57
-36.87
-29.36
-8.41
18.72
40.68
48.29
39.68
21.17
3.31
-5.53
-3.94
2.12
3.48
-6.34
-26.71
-49.79
-64.63
-63.38
-45.75
-19.59
3.49
14.58
12.62
4.65
1.08
9.29
29.14
52.88
69.54
70.96
56.25
32.35
9.82
-2.91
-4.42
-0.67
-0.98
-11.91
-32.79
-55.68
-69.60
-66.62
-46.50
-17.07
9.77
24.38
24.49
15.91
8.45
9.49
19.45
31.56
36.10
26.35
2.99
-25.77
-48.19
-55.11
-44.76
-23.49
-1.96
10.99
13.33
10.49
11.14
21.12
39.22
57.08
63.70
51.81
22.61
-13.92
-43.71
-55.65
-47.35
-25.76
-2.86
11.49
14.71
11.96
11.80
20.14
35.90
51.18
55.66
42.58
13.29
-22.80
-52.74
-66.69
-62.73
-47.26
-30.56
-20.77
-19.41
-21.32
-18.55
-5.77
15.89
38.83
52.99
51.49
34.72
10.59
-9.92
-18.80
-15.36
-6.36
-1.83
-8.86
-27.28
-49.49
-64.66
-64.69
-48.85
-24.16
-1.47
10.50
9.95
2.61
-2.16
2.78
18.06
37.41
51.60
54.06
45.03
31.32
21.88
22.08
30.01
37.35
34.34
15.86
-14.99
-47.73
-69.90
-73.36
-58.38
-33.36
-10.34
1.24
-0.59
-9.61
-15.40
-9.59
9.02
33.66
53.59
60.62
53.71
39.04
25.43
18.38
16.83
14.47
4.35
-16.16
-43.08
-67.33
-79.01
-72.22
-48.21
-15.14
15.29
33.30
35.79
27.86
19.57
19.76
30.30
44.74
52.40
45.23
23.50
-4.17
-25.99
-34.05
-28.37
-16.06
-6.19
-4.22
-9.30
-15.36
-15.30
-5.19
13.14
32.63
43.98
40.15
20.39
-8.54
-35.03
-48.50
-45.33
-30.89
-16.31
-11.23
-17.24
-26.57
-27.39
-12.14
16.72
47.22
64.91
61.21
38.38
7.44
-18.36
-30.75
-29.58
-21.04
-12.83
-9.57
-11.01
-13.07
-10.69
-0.86
15.32
32.65
43.69
42.28
27.24
3.94
-17.61
-28.12
-24.55
-12.31
-2.27
-3.73
-17.84
-36.22
-45.98
-38.00
-12.88
19.19
44.55
54.01
47.49
32.34
17.81
9.04
5.01
0.52
-9.19
-24.86
-42.41
-54.80
-55.45
-41.26
-14.58
17.00
42.77
53.02
43.56
18.53
-10.85
-31.77
-36.65
-27.02
-12.03
-2.00
-1.21
-5.04
-3.70
9.99
34.29
58.12
67.38
53.94
21.47
-16.15
-42.54
-47.74
-32.69
-7.48
15.36
27.66
28.54
23.00
17.52
15.86
17.02
16.23
7.86
-11.14
-38.71
-67.37
-86.72
-88.20
-69.74
-37.56
-3.56
20.72
30.27
28.73
25.18
27.62
37.65
49.59
54.46
45.94
24.46
-2.98
-26.74
-39.58
-39.78
-31.44
-21.80
-17.42
-20.82
-28.95
-34.35
-29.09
-9.67
19.97
49.53
67.61
68.37
55.33
39.25
31.04
34.68
44.49
49.19
39.79
16.25
-12.13
-32.77
-37.81
-29.10
-16.73
-12.48
-22.49
-43.93
-67.00
-80.77
-79.06
-63.11
-40.54
-21.17
-12.39
-15.78
-26.47
-35.39
-33.66
-17.61
8.88
35.76
52.10
52.60
41.21
28.95
26.97
39.05
58.60
72.29
68.52
45.36
12.40
-15.10
-25.75
-19.06
-5.62
0.04
-11.05
-36.43
-63.71
-78.46
-72.81
-49.79
-20.85
1.28
9.61
5.79
-2.22
-5.60
0.62
15.43
33.25
47.23
52.44
48.19
38.34
29.36
27.03
33.12
44.07
52.75
52.73
42.74
28.05
17.32
16.88
26.32
38.32
43.18
34.88
14.91
-8.86
-27.00
-33.97
-30.71
-23.62
-20.60
-26.91
-42.52
-61.93
-76.80
-80.00
-69.64
-50.79
-33.30
-26.52
-33.35
-47.65
-57.42
-52.25
-30.32
-0.15
24.40
32.79
24.40
8.50
-2.19
0.23
14.43
31.65
41.96
40.50
29.57
16.11
6.94
5.13
9.30
15.15
18.04
14.78
4.63
-10.13
-24.64
-33.04
-31.38
-20.28
-5.62
4.15
3.06
-8.02
-21.26
-26.48
-17.89
1.67
22.03
32.20
27.67
13.65
1.46
0.75
12.86
29.61
38.69
31.86
10.63
-14.62
-31.39
-32.71
-21.08
-6.24
1.58
-1.99
-13.23
-23.46
-24.93
-15.36
1.27
17.63
27.43
28.17
21.42
10.99
0.75
-6.77
-10.80
-12.22
-13.02
-15.58
-21.25
-28.77
-33.95
-31.31
-17.36
6.31
32.47
51.27
55.49
45.19
27.88
14.17
11.07
17.29
23.83
19.83
0.30
-29.38
-55.60
-64.18
-49.04
-16.30
18.91
41.24
43.94
32.29
19.41
17.27
28.80
45.96
55.30
46.88
21.48
-9.15
-28.88
-26.61
-2.81
30.98
59.14
71.11
67.17
57.45
54.89
66.71
89.71
112.17
121.26
111.27
87.50
63.51
53.02
61.63
83.27
103.82
109.40
94.54
65.31
35.39
18.13
19.20
34.48
53.58
66.48
68.66
62.25
52.96
45.87
42.99
43.32
44.99
47.13
50.13
54.96
62.59
73.69
88.80
108.02
129.62
149.48
162.05
163.19
153.52
139.51
130.36
132.53
145.04
158.71
160.70
142.45
105.50
61.61
26.65
12.76
21.03
43.48
67.64
83.27
86.26
78.18
62.71
42.30
16.94
-14.79
-53.38
-97.36
-143.21
-186.12
-221.22
-244.84
-256.08
-258.07
-257.38
-261.16
-272.74
-288.20
-297.21
-288.58
-257.67
-210.20
-160.13
-121.62
-100.37
-90.68
-80.04
-58.54
-26.78
3.80
18.61
10.27
-15.07
-40.43
-48.46
-32.74
-2.30
23.28
26.04
0.99
-40.65
-78.04
-93.47
-83.03
-57.95
-36.81
-33.00
-46.02
-61.97
-63.16
-40.03
2.33
46.72
74.31
75.31
53.84
24.11
0.56
-10.93
-15.16
-22.95
-42.55
-73.26
-105.24
-125.29
-124.98
-105.86
-78.44
-55.78
-46.03
-48.05
-52.89
-50.00
-34.18
-8.51
17.75
35.51
41.40
39.29
37.06
40.82
50.54
59.93
60.73
48.20
24.19
-3.91
-27.41
-40.84
-44.42
-42.83
-41.84
-44.89
-51.76
-59.25
-63.29
-60.93
-51.51
-36.49
-18.24
1.19
20.84
40.71
61.05
81.46
100.20
114.73
122.86
123.91
119.20
111.36
102.88
94.92
86.74
76.38
62.24
43.94
22.10
-2.55
-29.56
-58.47
-88.14
-115.94
-137.84
-149.88
-149.98
-139.07
-120.69
-99.44
-79.17
-61.76
-46.80
-32.76
-18.33
-3.56
10.06
20.17
24.46
21.78
12.97
1.19
-9.09
-13.59
-10.18
0.03
12.50
20.71
18.78
4.24
-20.20
-47.19
-67.12
-71.90
-58.88
-32.81
-4.06
15.72
19.59
9.39
-4.32
-6.85
13.07
56.73
113.74
166.33
197.95
201.68
184.30
162.85
155.83
173.32
211.13
252.45
275.88
265.74
219.72
150.28
79.25
28.37
10.21
23.68
55.88
88.68
106.88
104.03
82.87
51.66
18.28
-14.27
-48.57
-89.87
-142.07
-204.80
-273.60
-342.13
-404.78
-458.13
-500.71
-532.04
-551.62
-559.10
-554.67
-539.23
-514.43
-482.36
-445.49
-406.77
-369.55
-337.00
-310.97
-290.93
-273.84
-255.37
-231.83
-201.94
-167.55
-132.81
-102.56
-80.21
-66.36
-58.89
-53.80
-46.88
-35.24
-17.82
5.01
32.14
62.21
93.20
122.14
145.26
159.53
164.66
164.62
167.14
180.68
209.78
251.44
295.01
326.17
332.92
310.11
260.75
193.72
119.65
47.90
-14.24
-60.64
-85.77
-85.90
-61.84
-20.70
24.47
58.62
70.33
55.69
19.05
-29.91
-80.13
-123.17
-154.50
-172.74
-178.37
-171.99
-154.34
-126.48
-90.38
-48.90
-5.85
34.29
67.39
90.44
105.37
119.08
141.07
178.74
233.01
296.21
354.70
394.77
408.27
395.54
363.19
319.41
270.34
219.74
171.51
131.98
109.63
110.77
134.79
171.60
204.36
215.81
194.77
139.74
58.19
-36.79
-130.82
-210.92
-266.85
-291.77
-282.96
-243.03
-180.60
-109.31
-44.60
0.39
19.19
13.75
-6.90
-29.94
-44.06
-43.23
-28.24
-5.34
16.96
30.66
31.37
18.18
-7.05
-40.60
-77.05
-109.26
-129.49
-131.86
-115.22
-84.51
-49.60
-21.12
-5.67
-3.09
-8.23
-15.52
-23.29
-34.66
-53.89
-80.96
-107.90
-120.71
-106.05
-59.14
12.03
89.39
152.88
189.35
197.21
184.85
164.62
146.07
132.37
121.11
108.11
91.46
73.34
58.60
52.00
55.12
65.91
79.93
92.65
101.45
106.36
109.56
113.55
119.55
126.72
132.59
134.22
129.63
118.70
103.24
86.12
70.06
56.70
46.27
37.89
30.41
23.07
15.77
8.98
3.26
-1.13
-4.39
-6.97
-9.23
-11.11
-12.14
-11.84
-10.09
-7.39
-4.72
-3.07
-2.91
-3.93
-5.02
-4.97
-3.06
0.37
4.03
6.16
5.00
-0.97
-12.78
-30.92
-54.27
-79.51
-101.35
-114.02
-113.54
-99.88
-76.86
-52.21
-33.49
-24.86
-26.06
-33.50
-42.81
-51.04
-57.59
-63.32
-69.18
-74.98
-79.55
-81.75
-81.43
-79.60
-77.84
-77.67
-79.48
-82.47
-84.88
-84.72
-80.70
-72.65
-61.63
-49.05
-36.30
-24.27
-13.18
-2.66
7.81
18.39
28.70
37.92
45.08
49.48
50.99
50.11
47.85
45.31
43.29
42.10
41.49
40.97
39.98
38.33
36.27
34.42
33.53
34.06
36.01
38.87
41.85
44.21
45.65
46.47
47.44
49.42
52.88
57.63
62.80
67.21
69.90
70.55
69.62
68.16
67.28
67.87
70.54
75.68
83.23
92.33
100.90
105.67
103.12
90.96
69.49
41.95
13.46
-11.13
-29.04
-40.36
-47.19
-51.93
-55.79
-58.35
-58.58
-55.79
-50.71
-45.36
-42.08
-42.14
-45.02
-48.63
-50.46
-48.95
-44.26
-38.15
-32.93
-30.22
-30.05
-31.00
-31.07
-28.89
-24.54
-19.51
-15.97
-15.50
-18.24
-22.69
-26.49
-27.61
-25.44
-21.07
-16.68
-14.29
-14.66
-16.89
-18.99
-19.12
-16.67
-12.64
-9.03
-7.64
-9.01
-12.12
-15.10
-16.34
-15.49
-13.53
-12.13
-12.57
-14.86
-17.82
-19.73
-19.40
-16.86
-13.31
-10.47
-9.62
-10.93
-13.35
-15.22
-15.15
-12.69
-8.53
-4.04
-0.53
1.46
2.40
3.44
5.62
9.19
13.36
16.74
18.11
17.29
15.32
13.96
14.67
17.74
22.00
25.48
26.41
24.37
20.51
16.96
15.57
16.86
19.68
21.97
21.98
19.36
15.41
12.30
11.73
13.88
17.21
19.32
18.32
13.95
7.77
2.29
-0.50
-0.21
1.75
3.09
2.02
-1.59
-6.11
-9.06
-8.60
-4.66
1.00
5.66
7.18
5.18
1.22
-2.13
-2.82
-0.54
3.16
5.75
5.22
1.33
-4.21
-8.67
-9.88
-7.41
-2.80
1.36
2.93
1.47
-1.55
-3.70
-3.06
0.52
5.27
8.44
7.90
3.43
-3.08
-8.66
-10.85
-9.09
-4.93
-1.04
0.34
-1.27
-4.35
-6.40
-5.41
-1.16
4.65
9.31
10.63
8.17
3.46
-0.85
-2.56
-1.09
2.19
4.83
4.75
1.45
-3.63
-8.03
-9.65
-7.95
-4.07
-0.14
2.12
2.37
1.69
1.81
3.84
7.60
11.66
14.27
14.53
12.97
11.35
11.51
14.18
18.41
21.92
22.43
19.01
12.91
7.07
4.85
8.28
16.99
28.13
37.42
40.89
36.53
25.25
10.76
-1.89
-8.35
-7.01
0.08
8.16
11.95
8.40
-1.88
-15.04
-26.14
-31.81
-31.74
-28.38
-25.16
-24.42
-26.34
-29.50
-32.24
-34.04
-35.69
-38.44
-42.69
-47.11
-49.11
-46.18
-37.49
-24.64
-11.07
-0.33
5.83
8.24
9.78
13.37
20.21
28.92
36.23
38.92
35.55
27.30
17.28
8.85
4.05
2.84
3.57
4.25
3.65
1.89
0.01
-1.00
-1.06
-1.25
-3.11
-7.56
-13.95
-20.02
-22.74
-19.85
-11.05
1.65
14.77
25.01
30.76
32.78
33.52
35.68
40.66
47.86
55.08
59.89
60.97
58.82
55.26
52.27
50.83
50.41
49.56
47.05
42.82
38.10
34.59
33.25
33.53
33.53
31.07
25.00
16.05
6.53
-0.81
-4.24
-3.93
-1.81
-0.55
-2.18
-7.09
-13.91
-20.36
-24.40
-25.30
-23.87
-21.89
-21.04
-21.98
-24.03
-25.60
-25.29
-22.68
-18.69
-15.09
-13.45
-14.25
-16.60
-18.80
-19.41
-18.13
-15.84
-13.99
-13.45
-13.78
-13.41
-10.77
-5.51
0.85
5.56
6.31
2.77
-2.84
-6.73
-5.53
1.71
12.90
23.90
30.57
30.87
25.65
18.01
11.27
7.05
4.06
-1.34
-13.18
-33.81
-62.17
-93.87
-122.71
-143.01
-151.30
-146.87
-131.20
-107.13
-78.26
-48.85
-23.52
-6.35
0.43
-2.32
-10.78
-19.61
-24.27
-22.80
-16.20
-7.39
0.53
5.59
7.24
5.80
1.93
-3.69
-10.42
-17.35
-23.55
-28.14
-30.35
-29.80
-26.66
-21.74
-16.59
-13.00
-12.36
-14.96
-19.67
-24.43
-27.17
-26.76
-23.47
-18.72
-14.36
-11.81
-11.53
-12.73
-13.72
-12.51
-7.70
0.75
11.16
20.74
26.84
28.34
26.34
23.60
22.97
25.74
30.94
35.95
38.19
36.61
32.30
27.83
25.62
26.64
29.88
32.94
33.51
30.56
25.00
19.11
15.36
14.96
17.27
20.09
20.87
18.16
12.46
5.93
1.23
0.03
2.14
5.66
8.15
7.98
5.21
1.43
-1.30
-1.66
0.14
2.57
3.74
2.53
-0.74
-4.47
-6.70
-6.25
-3.32
0.57
3.48
4.08
2.34
-0.46
-2.59
-2.81
-1.12
1.32
2.87
2.42
0.06
-2.97
-5.02
-4.99
-2.99
-0.28
1.47
1.15
-1.10
-3.96
-5.68
-5.14
-2.46
0.95
3.28
3.28
1.09
-1.86
-3.64
-2.98
0.05
4.01
6.97
7.61
5.99
3.46
1.85
2.33
4.77
7.80
9.64
9.17
6.57
3.24
0.97
0.90
2.88
5.57
7.21
6.66
4.06
0.78
-1.39
-1.27
0.97
3.95
5.81
5.38
2.87
-0.21
-1.94
-1.18
1.74
5.17
7.03
6.06
2.58
-1.67
-4.49
-4.49
-1.94
1.47
3.52
2.85
-0.26
-4.06
-6.35
-5.83
-2.82
0.88
3.10
2.56
-0.31
-3.68
-5.38
-4.27
-0.85
3.01
5.21
4.63
1.80
-1.44
-3.10
-2.12
0.94
4.29
5.99
5.05
2.02
-1.32
-3.04
-2.18
0.72
3.93
5.57
4.69
1.84
-1.27
-2.82
-1.94
0.74
3.53
4.66
3.33
0.28
-2.73
-3.87
-2.41
0.92
4.24
5.67
4.34
0.97
-2.62
-4.51
-3.79
-1.10
1.82
3.13
2.00
-0.86
-3.70
-4.74
-3.30
-0.18
2.79
3.81
2.22
-1.09
-4.19
-5.24
-3.58
-0.14
3.09
4.19
2.42
-1.29
-4.96
-6.68
-5.72
-3.00
-0.46
0.06
-2.04
-5.71
-8.92
-9.82
-7.91
-4.36
-1.31
-0.63
-2.74
-6.34
-9.06
-8.87
-5.20
0.67
6.28
9.44
9.42
7.44
6.02
7.51
12.82
20.75
28.66
33.83
34.96
32.86
29.85
28.28
29.13
31.47
33.30
32.85
29.81
25.37
21.44
19.32
19.02
19.42
19.12
17.37
14.38
11.03
8.05
5.43
2.26
-2.72
-10.42
-20.60
-31.72
-41.24
-46.60
-46.32
-40.73
-31.95
-22.92
-16.09
-12.41
-11.08
-10.40
-8.96
-6.42
-3.61
-1.74
-1.46
-2.34
-3.05
-2.23
0.58
4.49
7.56
7.86
4.51
-1.61
-8.21
-12.65
-13.34
-10.55
-6.30
-3.22
-3.07
-5.77
-9.46
-11.59
-10.49
-6.33
-1.11
2.54
2.74
-0.63
-5.93
-10.74
-13.14
-12.61
-10.04
-7.01
-4.80
-3.68
-2.96
-1.59
1.04
4.56
7.74
9.18
8.08
4.87
1.06
-1.42
-1.28
1.50
5.64
9.18
10.60
9.55
7.01
4.67
3.88
4.92
6.82
7.99
7.21
4.36
0.53
-2.60
-3.75
-2.73
-0.55
1.17
1.13
-0.87
-3.88
-6.33
-7.01
-5.71
-3.39
-1.55
-1.38
-2.99
-5.37
-6.98
-6.68
-4.37
-1.10
1.57
2.45
1.41
-0.59
-2.08
-1.99
-0.29
2.04
3.48
2.95
0.34
-3.38
-6.75
-8.64
-8.83
-8.06
-7.60
-8.39
-10.54
-13.27
-15.38
-16.03
-15.26
-14.01
-13.60
-14.93
-17.84
-21.16
-23.25
-22.91
-20.03
-15.64
-11.29
-8.16
-6.41
-5.14
-3.10
0.47
5.27
10.03
13.26
14.22
13.38
12.18
12.16
13.96
16.88
19.18
19.07
15.75
10.02
3.91
-0.33
-1.39
0.41
3.42
5.54
5.45
3.28
0.50
-1.05
-0.29
2.45
5.65
7.46
6.83
4.11
0.85
-1.17
-1.01
0.82
2.69
2.85
0.47
-3.70
-7.69
-9.36
-7.66
-3.18
2.05
5.74
6.55
4.82
2.30
1.00
2.00
4.80
7.61
8.51
6.63
2.71
-1.28
-3.37
-2.71
-0.09
2.58
3.44
1.80
-1.34
-3.95
-4.16
-1.37
3.26
7.47
9.10
7.36
3.19
-1.23
-3.80
-3.66
-1.59
0.52
0.85
-1.15
-4.49
-7.15
-7.39
-4.77
-0.47
3.33
4.69
3.01
-0.65
-4.20
-5.75
-4.72
-2.06
0.28
0.60
-1.53
-4.98
-7.71
-7.98
-5.39
-1.11
2.81
4.55
3.65
1.17
-0.94
-1.02
1.27
4.78
7.53
7.86
5.46
1.64
-1.40
-1.77
1.03
5.89
10.68
13.49
13.70
12.27
11.07
11.73
14.61
18.66
22.02
23.17
21.86
19.25
17.22
17.29
19.72
23.43
26.68
28.10
27.57
26.30
26.11
28.28
32.84
38.44
43.16
45.62
45.87
45.37
46.16
49.58
55.30
61.25
64.49
62.60
55.11
44.07
33.36
27.15
28.16
36.38
49.11
62.17
71.59
75.07
72.47
65.08
54.52
41.85
27.39
11.49
-4.70
-19.04
-29.19
-33.90
-33.90
-31.67
-30.24
-31.46
-35.15
-39.32
-41.55
-40.54
-36.79
-32.12
-28.32
-25.96
-24.17
-21.27
-16.12
-8.99
-1.43
4.52
7.45
7.40
5.81
4.64
5.72
9.90
16.79
25.14
33.04
38.55
40.31
37.71
30.94
20.66
7.59
-7.64
-24.45
-42.03
-59.10
-74.03
-85.28
-92.05
-94.71
-94.81
-94.43
-95.25
-97.71
-100.79
-102.49
-100.79
-94.55
-84.02
-70.66
-56.47
-42.86
-30.37
-18.69
-7.40
3.14
11.76
16.89
17.67
14.86
10.75
8.11
8.62
11.89
15.44
16.00
11.19
0.76
-13.22
-27.38
-38.40
-44.19
-44.28
-39.34
-30.53
-19.01
-5.84
7.74
20.00
28.73
31.65
27.16
15.11
-2.69
-22.79
-41.21
-55.05
-63.69
-68.89
-73.45
-79.08
-84.97
-87.86
-84.08
-72.38
-55.88
-41.88
-39.03
-53.24
-84.20
-124.58
-162.75
-187.47
-192.39
-178.53
-153.17
-126.33
-107.01
-100.25
-105.77
-119.41
-135.06
-146.50
-148.97
-139.85
-119.14
-89.75
-57.08
-27.55
-7.24
-0.36
-6.55
-21.86
-39.26
-50.30
-47.86
-31.21
-2.74
32.65
69.13
101.60
127.15
144.47
154.00
157.12
155.46
150.87
144.87
138.94
134.49
132.47
132.82
134.12
133.76
129.03
118.93
104.79
90.20
79.49
75.57
78.29
84.29
88.40
86.12
75.96
60.00
42.83
29.52
23.50
25.34
32.98
42.91
51.76
57.59
59.97
59.43
56.63
51.86
45.07
36.47
26.98
18.35
12.57
10.96
13.27
17.62
21.38
22.41
20.23
16.15
12.46
11.06
12.47
15.73
19.07
21.04
21.28
20.48
19.80
19.90
20.56
20.81
19.67
16.90
13.31
10.43
9.66
11.45
15.04
18.69
20.66
20.08
17.37
14.00
11.63
11.14
12.16
13.28
12.90
10.25
6.00
2.09
0.74
3.26
9.19
16.45
22.30
24.74
23.46
19.86
16.22
14.38
14.84
16.62
18.01
17.57
14.77
10.17
4.90
0.16
-3.29
-5.19
-5.80
-5.73
-5.86
-7.20
-10.60
-16.54
-24.91
-35.05
-45.90
-56.19
-64.49
-69.50
-70.47
-67.70
-62.96
-59.14
-59.27
-64.95
-75.35
-87.28
-96.51
-99.83
-96.51
-88.51
-79.10
-70.97
-64.79
-59.26
-52.49
-43.50
-33.22
-23.86
-17.54
-14.91
-14.70
-14.54
-12.41
-7.76
-1.68
4.02
8.16
11.05
14.44
20.48
30.32
43.19
56.52
67.02
72.13
71.23
65.88
59.00
53.48
50.86
50.90
51.94
52.12
50.44
47.27
43.89
41.59
40.91
41.40
42.12
42.41
42.32
42.52
43.72
45.88
48.03
48.66
46.66
42.18
36.89
33.32
33.69
38.79
47.33
56.15
61.35
59.72
50.17
34.34
16.18
0.58
-8.34
-9.06
-2.93
6.39
14.67
19.38
20.65
20.46
20.40
20.21
17.24
7.82
-10.81
-39.01
-74.39
-113.33
-152.32
-188.20
-217.59
-236.16
-238.86
-221.72
-184.29
-131.15
-71.60
-16.91
23.49
45.05
49.07
41.28
28.82
17.28
9.24
4.32
0.55
-3.76
-9.04
-14.35
-18.19
-19.70
-19.13
-17.63
-16.49
-16.31
-16.45
-15.52
-12.17
-6.22
0.84
6.27
7.28
2.58
-6.58
-16.46
-22.38
-21.01
-12.30
0.02
10.15
13.01
6.97
-5.37
-18.74
-28.34
-32.39
-32.68
-32.64
-34.50
-37.33
-37.40
-30.84
-16.54
2.54
20.52
31.71
33.49
27.52
18.38
10.94
7.90
8.86
11.19
11.91
9.54
4.82
0.14
-1.80
0.51
6.57
14.21
20.66
23.95
23.69
21.07
17.79
14.91
12.39
9.39
5.36
0.97
-1.98
-1.48
2.95
9.34
13.88
12.73
4.63
-7.97
-19.57
-24.23
-18.63
-3.50
16.67
36.05
50.50
59.41
65.60
73.31
85.50
102.04
120.02
135.27
144.57
147.65
147.36
148.29
154.54
167.52
183.53
197.21
203.55
199.74
185.55
162.77
133.79
100.83
66.15
32.16
1.33
-25.00
-47.92
-70.91
-98.15
-131.73
-169.52
-205.20
-230.82
-241.27
-236.65
-222.67
-207.69
-198.27
-195.66
-194.86
-187.46
-166.30
-130.13
-84.97
-41.94
-12.23
-2.17
-10.66
-30.07
-50.20
-62.58
-63.13
-52.27
-33.74
-12.65
5.91
17.82
20.72
14.62
2.17
-11.85
-21.78
-23.11
-14.11
3.45
24.95
44.47
56.41
57.14
46.11
26.14
2.68
-17.68
-29.14
-28.91
-18.12
-1.10
16.55
30.14
37.19
37.71
33.37
26.53
19.69
15.10
14.52
18.88
27.88
40.06
53.37
65.91
76.43
84.26
88.97
90.18
87.85
82.91
77.53
74.50
75.75
80.90
86.93
89.63
85.74
75.12
61.38
50.43
47.47
54.31
67.99
81.90
88.44
82.55
63.70
36.12
7.45
-13.89
-21.37
-12.38
10.05
37.99
59.90
63.45
39.74
-12.62
-85.49
-162.84
-225.78
-259.19
-257.82
-226.92
-179.38
-130.85
-94.84
-79.15
-84.57
-105.27
-130.80
-148.80
-148.86
-126.40
-84.45
-32.20
19.02
60.63
90.18
109.78
122.99
131.88
136.25
134.96
128.00
117.77
108.32
103.19
102.88
105.29
106.89
104.62
97.48
87.06
76.76
69.94
68.10
69.78
71.14
67.76
57.08
40.17
22.13
10.21
10.49
24.47
46.94
67.12
72.54
54.43
11.81
-47.68
-110.86
-164.34
-199.11
-212.84
-208.44
-190.95
-164.91
-133.87
-101.60
-73.31
-55.39
-52.97
-67.69
-95.60
-127.93
-153.51
-162.49
-149.64
-116.15
-70.51
-22.93
18.25
49.30
71.72
90.49
110.30
132.11
151.84
162.54
159.03
141.53
116.37
92.81
77.71
71.47
67.66
56.92
32.67
-4.48
-47.00
-84.33
-108.22
-116.31
-112.28
-102.78
-93.27
-85.33
-76.67
-63.94
-45.98
-25.60
-8.76
-1.53
-6.56
-21.26
-38.76
-51.18
-53.49
-45.63
-31.80
-17.65
-7.22
-1.17
2.59
6.82
12.84
19.72
25.21
27.68
27.64
27.67
30.97
39.40
52.21
66.25
77.64
83.64
83.80
79.68
73.53
66.95
60.19
52.66
44.02
34.94
27.05
21.92
19.93
19.69
18.65
14.39
6.01
-5.40
-17.18
-26.45
-31.42
-31.91
-29.18
-24.95
-20.67
-17.02
-13.97
-11.24
-8.75
-6.88
-6.30
-7.59
-10.80
-15.10
-18.97
-20.71
-19.21
-14.42
-7.33
0.60
8.28
15.34
22.16
29.17
36.33
42.72
46.90
47.51
44.06
37.32
29.31
22.57
19.49
21.47
28.43
38.76
49.49
56.83
56.87
46.60
24.98
-6.21
-42.50
-78.10
-108.01
-129.73
-143.74
-152.58
-158.99
-164.49
-168.95
-171.29
-170.68
-167.03
-160.45
-150.30
-134.94
-112.73
-83.88
-51.66
-22.04
-1.58
5.23
-2.04
-19.37
-40.01
-56.57
-63.44
-58.97
-44.14
-21.10
7.28
37.92
67.68
93.32
112.17
122.63
124.85
120.86
113.69
106.07
99.54
94.05
88.38
81.24
72.28
62.61
54.56
50.58
51.98
58.46
68.22
78.64
87.09
91.55
90.74
84.30
72.87
57.97
41.98
27.63
17.31
12.38
12.86
17.64
25.07
33.43
41.15
46.82
49.22
47.52
41.64
32.44
21.62
11.25
2.96
-2.64
-6.01
-8.31
-10.71
-13.85
-17.63
-21.39
-24.27
-25.56
-24.87
-22.09
-17.51
-11.89
-6.43
-2.74
-2.39
-6.28
-14.12
-24.24
-34.05
-41.06
-43.88
-42.71
-39.14
-35.24
-32.57
-31.49
-31.29
-30.79
-29.10
-26.09
-22.32
-18.56
-15.43
-13.09
-11.46
-10.48
-10.35
-11.55
-14.49
-19.06
-24.31
-28.52
-29.77
-26.93
-20.37
-12.08
-4.98
-1.59
-2.78
-7.40
-12.83
-16.46
-16.95
-14.73
-11.37
-8.38
-6.19
-4.11
-1.07
3.27
8.01
11.35
11.63
8.42
3.03
-2.03
-4.28
-2.70
1.67
6.16
7.86
5.13
-1.45
-9.38
-15.45
-17.40
-15.01
-10.19
-5.95
-4.85
-7.69
-13.22
-18.92
-22.40
-22.48
-19.59
-15.22
-10.88
-7.27
-4.17
-0.92
2.74
6.38
8.93
9.52
8.10
5.76
4.18
4.78
7.90
12.59
17.12
19.81
19.72
17.02
12.63
7.67
2.85
-1.79
-6.81
-12.88
-20.25
-28.47
-36.36
-42.40
-45.16
-43.86
-38.63
-30.65
-21.81
-14.15
-9.20
-7.49
-8.53
-11.15
-14.07
-16.23
-16.86
-15.26
-10.77
-3.10
7.17
18.27
27.54
32.38
31.50
25.78
18.03
11.80
9.73
12.39
18.14
24.16
27.95
28.55
26.80
24.50
23.15
22.92
22.57
20.20
14.66
6.49
-2.10
-8.49
-11.05
-10.13
-7.74
-6.16
-6.35
-7.22
-6.40
-1.83
6.49
16.19
23.52
25.40
21.18
13.06
4.89
0.15
0.15
3.62
7.66
9.53
8.20
4.80
1.73
1.00
2.90
5.73
6.93
4.78
-0.30
-5.69
-7.78
-4.05
5.54
18.34
30.20
37.29
37.83
32.53
23.94
15.06
8.06
3.64
1.23
-0.26
-1.57
-2.62
-2.72
-1.23
1.70
4.90
6.56
5.20
0.54
-5.98
-11.81
-14.41
-12.55
-6.97
-0.02
5.57
8.16
7.92
6.64
6.55
8.97
13.43
17.87
19.78
17.67
12.08
5.38
0.51
-0.60
1.84
5.61
7.75
6.40
2.04
-2.55
-3.89
0.15
9.02
19.56
27.58
30.02
26.31
18.32
8.97
0.53
-6.34
-12.32
-18.14
-23.37
-26.14
-24.22
-16.65
-5.10
6.30
12.58
10.37
-0.28
-15.52
-29.49
-36.99
-35.86
-27.79
-17.25
-9.25
-7.01
-10.77
-18.10
-25.37
-29.58
-29.47
-25.57
-19.36
-12.17
-4.57
3.39
11.32
17.71
19.94
15.32
2.88
-15.32
-34.23
-47.63
-50.86
-43.13
-28.00
-11.78
-0.55
2.51
-1.69
-9.12
-14.97
-16.02
-11.87
-4.45
3.53
10.21
15.20
19.08
22.34
24.54
24.38
20.75
13.90
5.96
0.30
-0.16
5.30
14.44
22.88
26.16
21.99
11.61
-0.69
-9.63
-11.52
-5.91
4.29
14.47
20.60
21.00
16.79
10.79
5.74
2.91
1.78
0.86
-0.83
-2.90
-3.71
-1.52
3.97
10.98
16.12
16.11
9.65
-1.52
-13.11
-20.25
-19.87
-12.17
-0.50
10.43
16.81
17.36
13.54
8.20
3.79
1.04
-0.99
-3.77
-7.82
-11.84
-13.35
-10.27
-2.57
7.07
14.32
15.22
8.45
-3.61
-15.83
-22.75
-21.18
-11.77
1.38
12.87
18.55
17.34
11.29
4.09
-1.03
-2.78
-2.05
-0.75
-0.29
-0.59
-0.36
1.71
5.53
9.24
9.94
5.42
-4.13
-15.61
-24.21
-25.75
-18.88
-6.00
7.86
17.38
19.40
14.35
5.62
-2.43
-6.70
-6.70
-4.23
-1.83
-1.01
-1.31
-0.82
2.18
7.73
13.58
16.16
12.62
2.71
-10.50
-21.78
-26.21
-21.64
-9.81
4.51
15.89
20.74
18.78
12.63
5.99
1.53
-0.34
-1.07
-2.48
-5.14
-7.74
-7.97
-4.29
2.66
9.80
13.03
9.54
-0.34
-12.80
-22.23
-24.01
-16.88
-3.63
10.29
19.42
20.84
15.35
6.55
-1.27
-5.40
-5.73
-4.16
-3.01
-3.23
-3.83
-2.74
1.47
8.16
14.48
16.67
12.13
1.18
-12.58
-23.79
-27.85
-23.17
-11.88
1.39
11.80
16.59
16.03
12.61
9.09
6.71
4.57
0.63
-6.45
-15.84
-24.35
-27.94
-24.03
-13.12
1.01
13.04
18.57
16.12
7.70
-2.52
-10.50
-14.31
-14.80
-14.49
-15.66
-18.64
-21.57
-21.65
-17.19
-9.07
-0.85
2.95
-0.84
-12.10
-27.14
-40.33
-46.77
-44.62
-35.84
-25.01
-16.82
-13.87
-15.78
-20.14
-24.38
-27.45
-30.22
-34.51
-41.41
-50.10
-57.99
-62.03
-60.49
-53.93
-45.01
-37.05
-32.36
-30.88
-30.33
-27.51
-20.29
-9.08
3.13
12.23
15.40
12.93
8.41
6.80
11.71
23.48
38.90
53.15
62.40
65.77
65.39
64.64
65.86
68.89
71.42
70.59
64.97
55.70
46.01
39.47
37.94
40.49
43.78
43.93
38.56
28.25
16.26
6.83
2.83
4.28
8.48
11.70
11.30
7.22
1.96
-1.05
0.43
6.03
12.90
17.35
16.95
11.92
5.15
0.57
0.94
6.35
14.14
20.39
22.04
18.64
12.54
7.58
6.93
11.36
18.94
26.24
30.27
30.13
27.36
24.89
25.33
29.55
36.36
43.54
48.96
51.59
51.33
48.56
43.36
35.16
23.33
8.32
-7.19
-18.43
-20.20
-9.83
10.40
32.99
47.84
46.86
28.03
-2.95
-34.74
-55.11
-56.34
-38.10
-7.20
25.88
51.65
64.94
65.73
57.57
45.02
31.52
19.30
9.67
4.34
5.78
16.20
36.15
63.32
92.68
116.87
130.12
129.84
116.82
94.02
65.18
33.73
2.61
-25.01
-47.44
-64.06
-75.43
-83.43
-90.63
-99.40
-110.77
-123.77
-136.10
-145.42
-150.15
-150.20
-146.76
-140.64
-132.24
-120.92
-106.29
-88.87
-70.58
-53.55
-38.65
-24.80
-9.80
7.58
25.80
40.42
46.19
39.57
20.93
-5.57
-34.07
-59.60
-79.62
-93.88
-103.22
-108.27
-109.14
-106.02
-100.32
-94.66
-91.02
-88.50
-82.91
-68.16
-40.15
-0.01
45.37
86.17
113.84
125.10
122.93
114.16
105.49
99.92
96.08
90.20
79.91
66.57
54.85
49.73
52.93
61.27
68.02
66.45
53.82
32.95
10.80
-5.52
-12.63
-12.36
-9.98
-10.56
-15.73
-23.00
-27.73
-26.32
-18.59
-7.95
0.43
2.39
-3.15
-13.77
-24.95
-32.43
-34.23
-31.41
-27.15
-25.11
-27.30
-33.21
-40.38
-45.90
-47.90
-46.61
-44.38
-44.40
-48.76
-57.11
-66.50
-72.45
-71.15
-61.57
-46.49
-31.28
-21.21
-18.39
-20.48
-22.05
-18.13
-7.44
6.45
17.09
19.05
11.27
-2.12
-14.33
-19.88
-17.37
-9.69
-1.81
2.46
2.66
1.33
1.72
5.70
12.62
19.76
23.92
23.24
18.14
11.05
5.28
3.58
7.18
15.43
26.28
37.35
47.13
55.61
64.36
75.35
89.63
106.45
123.34
137.15
145.29
146.67
141.49
130.78
115.54
96.90
76.82
58.69
47.10
46.72
60.54
87.27
121.43
153.37
171.58
166.40
134.25
80.06
16.49
-40.11
-75.88
-84.74
-70.76
-45.82
-24.09
-16.10
-25.38
-48.92
-80.09
-111.91
-139.09
-158.53
-168.68
-168.80
-158.95
-140.45
-116.41
-91.50
-70.74
-57.47
-52.29
-52.65
-54.16
-52.80
-46.70
-36.73
-25.67
-16.50
-10.73
-7.99
-6.66
-5.20
-3.00
-0.58
1.04
1.42
1.13
1.43
3.28
6.61
10.07
11.81
10.59
6.71
2.09
-0.63
0.43
5.26
11.82
16.94
18.08
14.66
8.47
2.69
0.13
1.68
5.89
9.91
11.13
8.81
4.39
0.55
-0.51
1.63
5.33
7.92
7.39
3.60
-1.55
-5.27
-5.46
-2.00
3.23
7.37
8.25
5.53
0.91
-2.97
-4.00
-1.87
1.88
4.80
5.00
2.31
-1.66
-4.49
-4.43
-1.47
2.64
5.42
5.13
1.85
-2.56
-5.50
-5.19
-1.71
3.04
6.40
6.52
3.40
-1.09
-4.35
-4.55
-1.69
2.40
5.19
4.93
1.77
-2.39
-5.05
-4.61
-1.34
2.71
5.01
4.01
0.13
-4.45
-7.09
-6.19
-2.19
2.72
5.82
5.43
1.85
-2.82
-5.93
-5.82
-2.74
1.35
3.98
3.66
0.79
-2.66
-4.34
-3.02
0.66
4.53
6.20
4.47
0.12
-4.54
-6.94
-5.79
-1.74
2.92
5.63
4.93
1.39
-2.81
-5.11
-4.07
-0.24
4.15
6.48
5.28
1.15
-3.61
-6.29
-5.38
-1.44
3.22
5.96
5.24
1.63
-2.65
-5.02
-4.14
-0.60
3.38
5.33
4.00
0.14
-3.97
-5.89
-4.47
-0.55
3.54
5.41
4.02
0.24
-3.60
-5.18
-3.54
0.38
4.30
5.95
4.39
0.59
-3.23
-4.89
-3.50
0.01
3.46
4.74
3.10
-0.49
-3.86
-5.00
-3.27
0.20
3.22
3.84
1.52
-2.44
-5.73
-6.39
-3.93
0.32
3.93
4.81
2.39
-2.01
-5.95
-7.21
-5.07
-0.67
3.62
5.59
4.40
1.01
-2.36
-3.60
-1.95
1.64
5.02
6.16
4.34
0.65
-2.70
-3.68
-1.68
2.08
5.26
5.79
3.20
-1.08
-4.53
-5.03
-2.17
2.49
6.32
7.15
4.55
0.08
-3.64
-4.53
-2.18
1.89
5.18
5.68
3.03
-1.27
-4.78
-5.55
-3.22
0.72
3.93
4.50
2.12
-1.72
-4.66
-4.87
-2.17
1.81
4.63
4.40
1.03
-3.68
-7.02
-6.97
-3.37
1.90
5.96
6.57
3.39
-1.77
-6.03
-7.12
-4.60
-0.10
3.70
4.70
2.61
-0.99
-3.69
-3.80
-1.40
1.69
3.13
1.55
-2.53
-6.92
-9.05
-7.59
-3.27
1.41
3.56
1.59
-3.74
-9.73
-13.19
-12.21
-7.28
-1.11
2.93
2.63
-1.80
-7.81
-11.99
-11.99
-7.79
-1.67
3.12
4.26
1.67
-2.58
-5.51
-5.07
-1.32
3.61
6.95
6.92
3.87
0.10
-1.67
0.00
4.36
8.83
10.60
8.36
3.25
-1.83
-3.86
-1.54
3.90
9.34
11.63
9.30
3.55
-2.51
-5.60
-4.18
0.70
6.07
8.69
7.05
2.13
-3.13
-5.60
-3.80
1.26
6.62
9.16
7.32
2.10
-3.55
-6.47
-5.04
-0.18
5.29
8.21
6.91
2.22
-3.07
-5.86
-4.48
0.31
5.73
8.68
7.48
2.85
-2.50
-5.50
-4.50
-0.19
