1544027344.00
64.000000
-0.00
-0.00
-0.00
-0.00
-0.00
-0.00
-0.00
-0.00
-0.00
-0.00
0.00
0.01
0.01
-0.00
-0.03
-0.05
-0.05
0.00
0.13
0.36
0.66
1.01
1.37
1.72
2.06
2.40
2.79
3.24
3.80
4.43
5.08
5.71
6.30
6.85
7.42
8.11
8.95
10.05
11.33
12.67
13.97
15.16
16.30
17.55
19.12
21.14
23.86
27.07
30.53
33.93
37.11
40.15
43.34
47.13
51.82
57.81
64.75
72.15
79.47
86.35
92.91
99.64
107.29
116.39
127.52
140.16
153.54
166.80
179.39
191.38
203.43
216.90
230.54
246.60
265.68
287.93
312.16
335.49
353.59
361.84
356.83
337.68
306.75
267.88
225.43
182.70
141.25
101.32
62.71
25.55
-9.54
-41.46
-70.01
-95.43
-118.38
-139.45
-158.84
-176.36
-191.60
-204.47
-215.20
-224.80
-234.54
-245.12
-256.86
-269.27
-281.55
-293.02
-303.74
-314.70
-327.34
-342.67
-360.02
-376.98
-389.90
-395.32
-391.31
-377.99
-357.02
-330.52
-300.43
-268.12
-235.20
-203.68
-175.89
-153.51
-136.37
-122.59
-109.11
-93.61
-75.76
-57.47
-41.56
-30.02
-22.80
-17.65
-11.77
-3.27
7.36
17.83
25.27
28.09
27.25
25.46
25.99
30.32
37.47
44.34
47.64
45.86
40.23
34.24
31.39
33.46
39.16
45.12
47.62
44.88
38.07
30.58
26.24
26.85
31.50
36.75
38.91
36.04
29.14
21.63
17.37
18.41
23.65
29.64
32.36
29.55
22.19
13.99
9.34
10.84
17.84
26.75
32.83
32.98
27.39
19.26
13.05
11.82
15.59
21.30
24.75
23.24
17.01
9.25
4.19
4.41
9.46
15.99
19.79
18.24
11.82
3.84
-1.35
-1.18
3.95
10.61
14.60
13.11
6.51
-1.83
-7.77
-8.53
-4.53
1.16
4.35
2.51
-4.00
-12.09
-17.80
-18.65
-14.84
-9.46
-6.21
-7.63
-13.38
-20.55
-25.33
-25.10
-20.18
-13.34
-8.54
-8.38
-12.76
-18.75
-22.39
-21.08
-14.89
-6.84
-0.84
0.18
-3.57
-9.25
-13.01
-12.16
-6.86
0.13
4.83
4.75
0.01
-6.54
-11.04
-10.79
-5.76
1.30
6.75
7.84
4.59
-0.47
-3.65
-2.38
3.22
10.55
15.76
16.19
11.83
5.51
1.10
1.29
6.18
13.05
18.16
18.72
14.90
9.35
5.83
6.95
12.61
20.12
25.64
26.60
22.91
17.18
13.09
13.28
17.85
24.24
28.94
29.22
24.99
18.79
14.26
14.10
18.33
24.50
28.82
28.60
23.71
16.78
11.55
10.69
14.42
20.12
24.19
23.83
18.93
11.90
6.35
5.10
8.33
13.76
17.77
17.69
13.10
6.28
0.91
-0.25
3.26
9.05
13.56
13.84
9.51
3.01
-2.01
-2.64
1.30
7.37
11.66
11.39
6.44
-0.57
-5.70
-6.16
-1.71
4.87
9.75
10.00
5.42
-1.38
-6.55
-7.04
-2.68
4.05
9.19
9.78
5.44
-1.28
-6.42
-7.09
-2.85
3.65
8.61
9.03
4.70
-1.75
-6.52
-6.64
-1.98
4.94
10.15
10.69
6.29
-0.58
-5.97
-6.93
-3.01
3.33
8.26
8.78
4.52
-2.07
-7.10
-7.57
-3.12
3.76
9.12
9.96
5.80
-0.90
-6.23
-7.21
-3.29
3.16
8.37
9.25
5.31
-1.09
-6.18
-6.86
-2.61
4.16
9.57
10.46
6.28
-0.62
-6.31
-7.60
-3.90
2.51
7.90
9.11
5.46
-0.85
-6.12
-7.26
-3.59
2.80
8.27
9.59
6.04
-0.38
-5.96
-7.49
-4.27
1.71
6.70
7.63
3.81
-2.65
-7.93
-9.01
-5.16
1.47
7.11
8.68
5.35
-0.80
-6.08
-7.44
-3.97
2.22
7.59
8.99
5.55
-0.67
-6.08
-7.46
-4.02
2.20
7.63
9.02
5.58
-0.72
-6.30
-7.98
-4.92
1.05
6.36
7.97
4.96
-0.88
-6.02
-7.41
-4.10
2.06
7.61
9.38
6.35
0.31
-5.16
-6.84
-3.70
2.47
8.08
9.78
6.51
0.04
-6.05
-8.42
-5.91
-0.13
5.39
7.47
4.97
-0.55
-5.69
-7.33
-4.39
1.44
6.72
8.37
5.22
-0.99
-6.76
-8.88
-6.17
-0.33
5.27
7.37
4.85
-0.63
-5.77
-7.43
-4.57
1.16
6.48
8.23
5.41
-0.36
-5.80
-7.67
-4.89
1.08
6.78
8.96
6.33
0.31
-5.59
-8.00
-5.57
0.28
6.01
8.25
5.60
-0.38
-6.10
-8.28
-5.55
0.43
6.10
8.13
5.27
-0.74
-6.45
-8.51
-5.68
0.37
6.21
8.48
5.91
0.08
-5.63
-7.79
-5.16
0.81
6.70
9.06
6.57
0.66
-5.21
-7.60
-5.16
0.71
6.54
8.93
6.45
0.50
-5.45
-8.03
-5.71
0.18
6.27
9.09
7.06
1.42
-4.48
-7.18
-5.08
0.59
6.51
9.16
6.89
1.01
-5.13
-7.98
-5.91
-0.17
5.84
8.50
6.13
0.02
-6.38
-9.39
-7.25
-1.15
5.44
8.82
7.06
1.19
-5.36
-8.86
-7.33
-1.75
4.63
8.03
6.46
0.92
-5.27
-8.40
-6.61
-0.90
5.47
8.77
7.19
1.75
-4.30
-7.35
-5.64
-0.10
6.01
9.20
7.62
2.15
-4.05
-7.52
-6.38
-1.46
4.15
7.06
5.36
-0.04
-5.98
-9.03
-7.32
-1.89
4.15
7.27
5.56
0.07
-6.06
-9.18
-7.40
-1.61
5.11
9.03
8.10
3.01
-3.23
-6.91
-6.01
-1.08
4.85
8.19
6.92
1.69
-4.39
-7.72
-6.33
-0.98
5.15
8.52
7.06
1.53
-4.88
-8.63
-7.57
-2.44
3.76
7.45
6.42
1.33
-4.87
-8.54
-7.48
-2.29
4.17
8.18
7.51
2.66
-3.51
-7.36
-6.68
-1.86
4.28
8.14
7.52
2.79
-3.29
-7.12
-6.42
-1.54
4.67
8.56
7.75
2.52
-4.16
-8.48
-7.95
-2.87
3.87
8.40
8.16
3.45
-2.81
-6.88
-6.41
-1.67
4.44
8.28
7.56
2.69
-3.53
-7.59
-7.13
-2.49
3.60
7.62
7.22
2.60
-3.62
-7.80
-7.46
-2.80
3.58
8.01
7.92
3.32
-3.08
-7.51
-7.48
-3.08
3.03
7.07
6.54
1.70
-4.59
-8.63
-8.07
-3.11
3.35
7.59
7.24
2.55
-3.75
-8.11
-8.02
-3.61
2.52
6.91
7.03
2.87
-3.23
-7.71
-7.95
-3.84
2.24
6.66
6.72
2.13
-4.56
-9.55
-10.08
-5.98
0.12
4.36
3.84
-1.49
-8.87
-14.37
-15.24
-11.41
-5.53
-1.49
-2.01
-7.19
-14.52
-20.40
-22.11
-19.41
-14.67
-11.39
-12.25
-17.62
-25.38
-32.13
-35.23
-34.42
-31.87
-30.90
-34.06
-41.54
-51.09
-59.29
-63.88
-64.93
-64.87
-67.00
-73.50
-84.00
-95.69
-105.11
-110.29
-112.00
-113.39
-118.17
-128.06
-141.14
-152.15
-154.86
-145.25
-123.86
-96.02
-69.44
-50.49
-41.29
-38.71
-36.19
-26.82
-6.24
25.97
66.85
112.09
157.88
201.83
242.96
280.80
314.70
343.50
365.79
379.94
384.73
379.69
365.07
342.04
312.53
278.79
242.99
207.44
172.61
137.66
100.75
59.20
10.20
-48.14
-115.24
-186.48
-252.72
-301.95
-322.68
-308.80
-263.16
-197.68
-129.60
-75.04
-42.88
-32.09
-33.86
-36.11
-29.69
-11.78
14.33
42.28
65.91
81.02
86.16
81.66
69.47
53.75
41.41
41.37
61.60
105.55
169.03
240.28
303.63
345.07
356.70
337.94
293.53
230.17
153.93
70.01
-15.98
-96.90
-164.95
-213.08
-238.90
-246.01
-242.75
-238.33
-238.95
-245.77
-255.85
-264.96
-270.48
-272.80
-274.52
-278.55
-286.41
-297.71
-310.58
-322.75
-332.60
-339.74
-344.80
-348.57
-351.29
-352.10
-349.27
-341.56
-327.53
-306.59
-279.27
-247.10
-211.97
-175.64
-139.28
-103.49
-68.60
-34.83
-2.69
26.97
53.30
75.66
94.03
108.96
121.36
132.28
142.63
152.94
163.34
173.80
184.13
194.05
203.45
212.44
221.61
232.08
245.36
262.59
283.69
306.64
327.63
342.21
346.83
340.12
323.30
299.20
271.10
241.59
212.36
184.63
159.63
138.52
121.89
109.14
98.49
87.77
75.65
62.48
50.00
40.20
33.99
30.59
27.77
23.37
16.48
8.11
0.55
-4.16
-5.42
-4.54
-3.97
-5.73
-10.28
-16.09
-20.58
-21.59
-18.47
-12.54
-6.15
-1.55
0.29
-0.10
-1.20
-1.38
0.27
3.80
8.63
14.05
19.69
25.59
32.04
39.28
47.07
54.66
60.88
64.58
65.24
63.30
60.12
57.25
55.44
54.32
52.99
51.37
51.29
56.32
69.92
93.06
122.83
153.21
177.67
192.28
197.34
196.60
194.61
193.87
193.43
189.74
178.82
158.42
129.03
93.26
54.21
14.28
-25.87
-66.87
-109.89
-155.88
-205.22
-258.10
-314.53
-373.88
-433.90
-489.99
-535.44
-563.22
-568.50
-550.67
-513.73
-464.66
-410.93
-358.12
-309.13
-264.70
-224.66
-188.75
-156.69
-127.52
-99.13
-68.48
-32.55
10.25
59.01
110.18
158.19
197.27
223.24
234.87
234.24
225.57
213.54
201.54
190.90
181.15
171.05
159.68
147.01
133.90
121.54
111.05
103.19
98.35
96.56
97.53
100.61
104.75
108.67
111.21
111.70
110.22
107.60
105.11
104.11
105.66
110.34
118.19
128.67
140.66
152.34
161.25
164.82
161.02
149.00
129.48
104.34
75.79
45.47
14.18
-17.64
-49.03
-78.01
-102.05
-119.12
-129.08
-134.00
-137.33
-142.11
-149.13
-156.09
-158.14
-149.83
-127.38
-90.48
-42.82
8.73
56.03
92.00
112.52
117.34
109.72
95.03
78.69
64.64
54.65
48.72
46.04
45.84
47.93
52.15
58.04
64.20
68.37
67.88
60.13
42.81
13.81
-28.60
-84.75
-152.35
-225.57
-295.47
-352.20
-388.02
-399.56
-388.40
-359.59
-319.44
-273.86
-227.65
-184.67
-147.91
-118.44
-94.46
-71.65
-45.21
-12.96
22.88
56.41
81.05
92.86
91.81
80.73
62.92
40.65
15.58
-9.58
-30.20
-41.07
-39.56
-27.97
-13.51
-4.93
-7.69
-20.60
-36.25
-44.79
-39.00
-17.90
13.04
44.54
67.90
78.62
77.42
68.97
59.10
51.82
47.72
44.10
36.86
23.03
2.65
-20.87
-42.11
-55.91
-59.52
-53.44
-40.76
-25.45
-10.59
2.45
13.56
22.75
29.20
31.34
27.86
19.12
7.65
-2.57
-7.90
-6.94
-1.18
5.86
10.66
11.63
9.88
8.26
9.45
14.28
21.26
27.58
30.80
30.14
26.66
22.38
19.06
17.41
17.04
17.00
16.53
15.45
14.17
13.29
13.16
13.51
13.52
12.16
8.95
4.36
-0.14
-2.78
-2.44
0.67
4.97
8.28
9.02
6.93
3.13
-0.66
-3.09
-3.85
-3.67
-3.62
-4.48
-6.20
-8.07
-9.17
-8.91
-7.38
-5.23
-3.36
-2.45
-2.61
-3.36
-3.89
-3.49
-1.93
0.39
2.66
4.09
4.38
3.85
3.17
3.00
3.66
5.14
7.32
10.10
13.34
16.69
19.48
21.07
21.32
20.91
21.13
23.10
26.92
31.58
35.55
37.69
37.82
36.49
34.24
31.05
26.68
21.43
16.66
14.31
15.58
19.89
25.01
28.52
29.36
28.55
28.39
30.64
35.25
40.59
44.53
45.85
45.18
44.69
47.08
54.44
67.52
85.61
106.69
127.87
145.82
157.33
160.14
153.25
136.73
111.30
77.87
37.53
-7.90
-55.33
-100.27
-137.55
-162.72
-173.54
-170.84
-158.21
-140.85
-123.67
-109.59
-99.13
-91.22
-84.32
-77.76
-71.93
-67.71
-65.43
-64.27
-62.49
-58.31
-50.91
-40.97
-30.63
-22.92
-20.81
-25.82
-36.98
-50.67
-61.60
-65.11
-59.23
-45.72
-29.20
-14.81
-5.73
-1.97
-1.07
-0.10
2.36
5.66
8.02
8.11
6.13
3.62
2.33
3.08
5.38
7.87
9.21
8.73
6.58
3.43
0.08
-2.93
-5.34
-7.08
-8.17
-8.57
-8.31
-7.49
-6.33
-5.12
-4.05
-3.15
-2.28
-1.29
-0.08
1.22
2.38
3.13
3.36
3.18
2.94
3.02
3.73
5.03
6.59
7.93
8.64
8.60
8.04
7.38
6.95
6.82
6.76
6.45
5.77
4.93
4.34
4.45
5.41
7.07
8.98
10.64
11.70
12.07
11.94
11.67
11.67
12.25
13.48
15.20
17.03
18.58
19.59
20.04
20.17
20.36
20.96
22.13
23.80
25.68
27.31
28.13
27.59
25.24
20.92
14.94
8.08
1.54
-3.44
-5.89
-5.44
-2.44
2.23
7.40
11.93
14.97
16.05
14.99
11.74
6.30
-1.22
-10.36
-20.28
-29.71
-37.26
-41.82
-42.95
-41.15
-37.72
-34.34
-32.33
-32.21
-33.55
-35.34
-36.63
-36.93
-36.34
-35.22
-33.84
-32.18
-30.02
-27.20
-23.82
-20.19
-16.61
-13.06
-9.24
-4.94
-0.33
3.98
7.28
9.36
10.70
12.33
15.10
19.01
23.01
25.36
24.62
20.51
14.22
7.96
3.89
3.01
4.77
7.43
9.10
8.75
6.62
3.90
1.89
1.31
2.12
3.90
6.46
9.99
14.90
21.09
27.66
33.09
36.03
36.33
35.60
36.70
41.99
51.75
63.65
74.06
80.22
81.72
80.18
77.78
75.79
74.50
74.41
77.36
86.23
102.89
125.68
148.29
161.35
156.46
130.29
86.96
36.74
-7.89
-36.76
-44.68
-31.55
-1.09
41.31
89.61
137.67
179.25
208.22
219.61
211.02
184.29
146.03
106.28
75.27
59.79
60.60
72.54
87.14
96.29
95.47
84.68
67.48
48.28
29.96
12.83
-4.84
-25.28
-49.91
-78.82
-111.04
-144.83
-177.98
-207.80
-231.51
-247.04
-253.43
-251.25
-242.24
-228.50
-211.99
-194.23
-176.44
-159.73
-145.11
-133.17
-123.85
-116.40
-109.68
-102.65
-94.73
-85.89
-76.43
-66.88
-57.77
-49.56
-42.60
-37.07
-32.91
-29.95
-27.96
-26.81
-26.43
-26.68
-27.31
-27.89
-27.96
-27.16
-25.31
-22.47
-18.97
-15.29
-11.93
-9.25
-7.33
-5.96
-4.76
-3.31
-1.28
1.47
5.00
9.21
13.85
18.44
22.39
25.12
26.46
26.68
26.55
26.88
28.08
29.83
31.17
30.96
28.49
23.99
18.70
14.52
13.26
15.79
21.66
29.15
36.09
40.92
43.47
45.07
47.60
52.20
58.54
64.74
68.62
69.19
67.24
64.61
62.93
62.64
63.12
63.69
64.27
65.11
65.75
64.29
58.00
45.40
28.25
11.74
2.41
4.28
15.86
29.98
36.78
28.61
3.70
-32.95
-72.07
-104.30
-123.91
-130.32
-127.34
-120.70
-114.98
-111.92
-110.51
-108.25
-103.24
-95.30
-86.04
-77.15
-69.39
-62.43
-55.69
-49.52
-45.09
-43.25
-43.21
-42.23
-36.98
-25.85
-10.33
5.73
18.38
25.94
29.43
31.26
32.85
33.53
31.40
25.38
16.71
8.58
4.71
7.27
16.40
30.67
47.95
66.16
83.30
97.87
108.78
116.09
120.63
123.08
122.64
116.36
100.18
71.17
30.03
-18.25
-65.78
-104.87
-130.88
-143.42
-145.43
-140.95
-133.08
-123.09
-111.02
-96.96
-82.12
-68.78
-59.34
-55.10
-55.37
-57.77
-59.45
-58.36
-54.12
-47.84
-41.26
-35.65
-31.18
-27.02
-22.07
-15.74
-8.46
-1.37
4.24
7.61
8.86
8.68
7.93
7.26
6.88
6.79
6.93
7.35
8.10
9.13
10.14
10.65
10.14
8.44
5.85
3.10
1.07
0.33
0.82
1.90
2.59
2.10
0.18
-2.74
-5.79
-8.01
-8.70
-7.59
-5.01
-1.92
0.48
1.08
-0.46
-3.58
-7.05
-9.47
-9.88
-7.58
-1.86
7.63
20.26
33.77
44.57
49.10
45.81
36.20
24.25
14.04
7.46
3.06
-2.30
-10.67
-20.91
-28.54
-28.70
-19.10
-1.90
17.09
31.66
38.08
36.44
29.20
19.48
9.32
-0.26
-8.54
-14.48
-16.84
-15.39
-11.56
-8.11
-7.60
-10.93
-16.77
-22.38
-25.45
-25.42
-23.63
-22.06
-22.02
-23.21
-24.41
-24.26
-22.07
-18.25
-13.60
-9.23
-5.87
-3.57
-1.91
-0.15
2.14
4.90
7.24
8.16
7.05
4.21
0.89
-1.34
-1.45
0.56
3.63
6.27
7.38
6.71
4.79
2.66
1.20
0.82
1.36
2.32
3.07
3.27
2.91
2.29
1.86
1.91
2.44
3.17
3.69
3.69
3.07
1.97
0.65
-0.60
-1.56
-2.06
-2.01
-1.41
-0.38
0.85
1.91
2.48
2.44
1.88
1.12
0.49
0.15
0.01
-0.21
-0.83
-1.98
-3.49
-4.93
-5.87
-6.04
-5.55
-4.81
-4.36
-4.67
-5.89
-7.79
-9.81
-11.29
-11.68
-10.85
-9.23
-7.71
-7.29
-8.60
-11.50
-15.10
-18.09
-19.30
-18.30
-15.63
-12.59
-10.69
-11.08
-14.12
-19.08
-24.41
-27.95
-27.75
-22.69
-12.98
-0.22
12.86
22.95
26.95
23.27
13.06
0.71
-7.26
-4.92
9.84
33.52
58.01
74.25
76.77
66.48
49.81
35.01
27.65
28.22
32.92
37.12
38.28
37.13
36.25
37.25
39.37
40.01
37.01
30.99
25.52
25.04
31.57
42.61
51.96
53.07
42.60
22.18
-2.77
-26.03
-43.41
-53.87
-58.49
-58.79
-55.53
-49.00
-40.03
-30.61
-23.28
-20.06
-21.26
-25.53
-30.81
-35.17
-37.62
-38.09
-36.88
-34.63
-31.98
-29.50
-27.52
-26.05
-24.87
-23.60
-21.96
-19.82
-17.30
-14.62
-12.04
-9.72
-7.67
-5.76
-3.79
-1.68
0.50
2.48
4.02
5.04
5.66
6.18
6.92
8.03
9.48
11.02
12.41
13.47
14.16
14.47
14.46
14.14
13.46
12.37
10.93
9.26
7.66
6.45
5.84
5.85
6.18
6.36
5.92
4.60
2.59
0.41
-1.24
-1.81
-1.21
0.16
1.56
2.24
1.62
-0.49
-3.90
-7.94
-11.63
-13.78
-13.38
-10.08
-4.48
1.99
7.49
10.72
11.46
10.61
9.79
10.46
13.16
17.17
20.62
21.17
16.95
7.52
-5.72
-19.90
-31.62
-38.39
-39.61
-36.60
-31.76
-27.30
-24.32
-22.73
-21.70
-20.40
-17.98
-13.37
-5.02
8.38
26.55
46.68
63.67
72.10
68.57
53.43
30.39
4.68
-19.23
-39.07
-54.69
-67.03
-77.16
-85.74
-93.54
-101.12
-108.75
-115.90
-120.50
-119.34
-108.79
-86.11
-50.82
-5.84
42.37
84.72
112.16
119.08
106.32
81.54
56.32
41.06
40.38
51.86
68.73
84.50
96.59
106.37
116.21
125.81
130.90
125.19
104.50
69.96
28.27
-11.12
-40.52
-56.90
-62.27
-61.63
-59.66
-58.88
-59.26
-59.29
-57.53
-53.73
-48.88
-44.50
-41.64
-40.15
-38.91
-36.48
-32.06
-26.15
-20.32
-16.58
-16.26
-19.36
-24.43
-29.23
-31.69
-30.59
-26.07
-19.45
-12.78
-8.28
-7.74
-12.02
-20.67
-31.79
-42.53
-49.94
-52.11
-48.83
-41.47
-32.26
-23.26
-15.69
-9.91
-5.74
-3.03
-1.81
-2.08
-3.64
-5.78
-7.63
-8.18
-6.46
-1.94
5.34
14.26
22.61
27.78
27.86
22.73
13.89
3.64
-6.20
-14.97
-23.17
-31.73
-41.59
-53.26
-66.55
-80.46
-92.65
-99.17
-95.14
-76.42
-41.81
5.53
58.45
107.97
146.10
167.99
172.49
161.40
137.82
105.42
68.13
30.30
-3.01
-26.85
-37.60
-34.50
-20.28
-0.70
17.50
28.86
30.90
24.34
11.77
-3.87
-20.63
-37.42
-53.32
-66.82
-75.65
-76.99
-68.56
-49.29
-19.46
19.80
67.07
119.78
173.35
220.80
253.96
266.21
254.64
221.47
172.73
116.11
57.16
-2.07
-62.80
-126.54
-192.83
-259.16
-321.96
-378.90
-429.49
-476.22
-519.17
-558.81
-594.07
-622.12
-639.42
-642.54
-634.88
-618.44
-595.05
-566.05
-532.79
-496.05
-454.39
-407.81
-357.60
-305.74
-253.84
-203.38
-155.23
-110.07
-68.03
-29.06
6.43
37.99
65.30
89.15
110.65
131.06
151.22
171.41
191.17
209.28
224.56
236.48
245.99
254.89
265.31
278.70
295.40
314.31
333.15
349.53
362.03
371.25
379.91
392.46
413.69
446.61
490.22
538.49
581.32
607.68
609.77
585.90
541.25
485.74
430.47
384.21
351.34
331.29
319.28
308.14
290.39
261.02
219.78
171.77
126.03
92.30
77.10
81.09
98.52
119.47
133.70
134.55
121.20
98.48
74.09
54.71
43.04
36.89
31.16
21.42
6.49
-11.52
-29.60
-46.59
-64.60
-87.07
-115.84
-148.67
-179.71
-202.01
-210.83
-205.14
-187.26
-161.09
-130.11
-97.01
-63.95
-33.05
-6.37
15.14
31.89
45.60
58.01
69.81
80.12
87.16
89.63
87.55
82.57
76.75
71.44
66.40
60.12
50.78
37.03
18.59
-4.34
-31.33
-61.74
-94.16
-126.34
-155.28
-178.25
-193.78
-202.12
-204.87
-203.92
-200.62
-195.46
-188.62
-180.40
-171.45
-162.41
-153.53
-144.48
-134.64
-123.75
-112.25
-101.23
-91.90
-85.02
-80.88
-79.16
-79.49
-81.65
-85.60
-91.29
-98.51
-106.78
-115.55
-124.53
-133.69
-143.17
-152.95
-162.61
-171.28
-178.03
-182.31
-184.27
-184.63
-184.15
-183.11
-180.94
-176.35
-167.96
-155.17
-138.80
-121.17
-105.59
-95.14
-91.50
-94.40
-101.75
-110.64
-118.70
-124.95
-129.58
-133.21
-135.81
-136.46
-133.61
-125.52
-110.43
-85.90
-48.40
6.07
79.51
169.60
268.04
361.85
437.26
484.20
499.09
484.54
446.74
392.54
328.84
263.24
205.20
164.68
148.11
154.81
175.44
195.59
201.81
187.92
156.85
117.91
81.25
52.77
32.77
17.90
4.63
-8.22
-19.88
-29.22
-36.33
-42.38
-48.46
-53.56
-54.35
-46.39
-26.65
4.27
41.66
78.09
106.40
122.19
125.18
118.25
105.81
91.92
79.29
69.67
63.95
62.83
66.62
75.04
86.94
100.56
113.88
125.26
133.70
138.87
140.82
139.96
136.80
131.61
124.36
114.39
100.30
80.30
52.88
17.79
-23.05
-65.23
-102.48
-128.21
-137.72
-129.96
-108.10
-78.57
-48.73
-24.53
-9.13
-2.82
-4.07
-10.94
-21.78
-35.26
-49.82
-63.21
-72.76
-76.17
-72.59
-63.24
-51.15
-40.02
-32.55
-29.59
-29.80
-30.52
-29.16
-24.27
-16.19
-6.81
1.26
5.80
5.83
2.02
-3.49
-7.88
-8.69
-4.88
2.61
11.23
17.84
20.27
18.57
15.27
14.21
18.89
30.77
48.78
69.66
89.02
102.30
105.28
94.92
70.80
36.86
1.82
-22.85
-27.34
-8.35
28.54
70.54
102.98
115.37
104.92
76.11
37.18
-3.89
-41.72
-73.29
-96.66
-110.05
-112.21
-103.85
-88.41
-71.42
-58.58
-53.75
-57.48
-67.26
-78.51
-86.47
-87.97
-82.24
-71.06
-58.05
-47.70
-44.04
-49.59
-64.51
-86.37
-110.99
-133.56
-149.87
-157.19
-154.91
-144.93
-131.67
-121.21
-119.53
-130.13
-152.41
-181.38
-209.61
-230.15
-239.08
-236.29
-224.40
-207.05
-187.62
-168.96
-153.81
-144.62
-142.41
-145.58
-149.75
-149.36
-140.28
-122.02
-97.81
-73.12
-53.14
-40.61
-35.35
-35.11
-37.04
-39.01
-40.22
-41.04
-42.61
-46.08
-51.74
-58.33
-62.96
-60.96
-46.56
-14.52
37.92
108.96
191.47
274.30
345.29
395.24
420.45
423.58
411.85
393.72
375.50
359.08
342.00
319.00
285.16
238.75
182.75
124.49
73.48
38.11
22.58
25.46
40.00
56.73
66.27
61.90
41.14
5.77
-39.07
-86.49
-129.57
-163.06
-184.10
-192.39
-189.57
-178.40
-162.26
-144.45
-127.95
-114.63
-104.65
-96.43
-87.11
-73.98
-55.60
-32.62
-7.19
18.33
42.48
65.18
87.29
109.65
132.27
154.08
172.89
185.62
188.69
178.91
155.06
119.51
78.69
41.43
15.64
4.83
6.74
14.73
21.63
23.40
20.79
17.71
18.26
24.07
33.72
44.39
53.74
60.96
65.91
67.76
64.18
52.32
31.23
3.60
-24.26
-44.73
-52.29
-45.86
-28.24
-3.54
25.55
59.08
97.78
139.70
178.11
202.72
204.54
181.57
141.83
101.28
76.35
75.57
94.90
119.02
129.86
116.31
80.74
38.23
8.15
3.60
24.15
56.81
84.08
94.24
87.36
73.56
65.15
68.21
78.76
85.42
76.50
46.33
-2.78
-62.88
-125.24
-183.88
-236.40
-282.57
-322.14
-353.53
-374.36
-382.03
-374.83
-352.75
-318.42
-277.91
-239.59
-211.67
-198.15
-195.50
-192.41
-173.82
-127.84
-52.34
42.51
137.22
210.32
246.73
243.15
208.42
159.14
112.89
82.20
71.40
76.99
90.62
103.30
108.75
105.18
94.43
79.81
63.84
47.13
28.97
8.94
-11.25
-27.92
-37.09
-36.81
-28.87
-18.23
-11.02
-11.60
-20.74
-35.51
-51.04
-62.54
-67.12
-64.19
-55.00
-42.01
-28.11
-16.26
-8.71
-6.14
-7.35
-9.28
-8.36
-2.27
8.74
21.61
31.57
34.08
26.77
10.60
-10.25
-29.77
-42.04
-43.51
-34.31
-18.29
-1.70
9.32
10.74
1.88
-15.27
-37.51
-61.62
-84.00
-100.00
-103.76
-90.06
-57.79
-12.35
34.84
70.58
85.84
79.39
57.84
31.82
10.69
-0.55
-1.53
5.68
18.75
35.58
53.64
69.37
79.03
80.71
75.80
68.57
63.70
63.31
65.85
67.06
62.89
51.96
36.41
20.69
9.11
3.72
3.57
5.81
7.57
7.50
6.03
4.34
3.35
3.32
4.49
7.66
14.13
24.39
36.26
44.25
41.30
22.04
-13.49
-58.59
-101.83
-131.52
-140.39
-127.74
-98.79
-62.03
-26.14
2.15
19.23
24.96
22.52
17.26
14.77
18.55
28.38
40.21
47.62
44.81
29.26
2.78
-29.19
-59.46
-81.12
-89.24
-81.61
-58.84
-24.06
17.72
60.67
98.90
127.50
143.05
144.42
133.21
113.38
90.13
68.07
49.37
33.05
15.84
-6.24
-35.87
-72.91
-114.29
-154.81
-188.77
-211.69
-221.39
-218.46
-205.72
-186.83
-165.14
-142.86
-121.00
-99.88
-79.70
-60.95
-44.36
-30.52
-19.56
-10.95
-3.84
2.67
9.02
15.24
20.74
24.63
26.35
26.15
25.35
25.78
29.02
35.36
43.37
50.45
53.63
50.61
40.25
22.58
-1.34
-29.64
-59.24
-85.69
-103.52
-107.29
-93.14
-60.71
-13.98
39.54
91.04
133.64
164.45
184.36
195.80
200.15
196.76
184.75
165.86
145.64
132.76
134.93
154.68
187.77
225.87
261.77
293.99
328.04
371.35
429.86
503.93
587.76
671.72
746.01
803.21
838.97
854.99
852.87
833.94
799.19
750.01
688.92
619.84
547.31
473.94
401.71
330.40
258.54
184.23
106.36
25.45
-56.32
-135.81
-209.96
-276.50
-335.17
-386.69
-432.06
-471.64
-504.87
-530.52
-547.59
-556.10
-557.21
-553.61
-548.53
-545.03
-545.38
-550.49
-559.33
-568.61
-572.95
-565.62
-540.56
-494.13
-426.81
-343.62
-253.24
-165.90
-90.84
-34.24
1.92
19.46
22.91
17.75
8.50
-2.37
-15.00
-31.68
-55.35
-88.43
-132.03
-185.87
-248.50
-317.16
-386.94
-450.37
-498.50
-523.94
-524.51
-505.50
-478.01
-454.00
-440.31
-435.08
-429.13
-411.68
-377.24
-329.48
-279.57
-240.20
-218.90
-214.34
-217.84
-218.35
-208.04
-185.24
-153.89
-120.02
-88.14
-59.46
-32.20
-3.93
26.18
56.65
84.61
107.64
125.31
139.42
152.96
168.67
187.65
208.87
229.75
247.56
260.66
269.98
279.19
293.28
316.03
346.88
379.42
403.24
408.02
388.20
345.59
288.57
228.01
172.79
127.37
92.18
65.77
46.69
33.65
24.14
13.42
-4.70
-34.92
-77.74
-128.34
-178.51
-220.30
-248.95
-264.12
-268.61
-266.41
-260.73
-253.80
-247.10
-241.91
-239.27
-238.91
-238.65
-234.72
-222.97
-200.54
-167.25
-125.67
-79.86
-34.12
8.09
44.62
74.73
98.69
117.72
133.81
149.49
166.97
187.02
208.28
227.04
238.81
240.59
232.83
219.74
207.33
200.38
199.87
202.37
201.95
193.42
175.04
149.49
122.01
97.49
77.95
61.89
45.92
27.59
7.76
-9.18
-17.55
-13.59
2.02
24.27
45.89
60.71
65.90
62.28
52.64
40.06
26.99
15.60
8.27
7.47
14.57
28.50
45.38
59.72
67.00
65.56
57.04
45.27
34.07
26.00
21.75
20.60
21.37
23.15
25.43
27.72
29.37
29.52
27.40
23.00
17.30
12.02
8.82
8.44
10.31
13.06
15.30
16.37
16.57
16.60
16.90
17.14
16.58
14.95
12.99
12.34
14.62
20.30
28.28
36.49
42.88
46.34
46.99
45.68
43.43
40.99
38.73
36.62
34.31
31.32
27.39
22.81
18.37
14.88
12.65
11.11
9.18
6.28
2.98
0.97
1.79
5.64
10.65
13.87
13.20
8.81
3.22
0.00
2.07
10.56
24.79
42.75
61.71
78.55
90.12
93.78
88.23
73.82
52.42
26.87
0.07
-25.51
-48.09
-66.64
-80.86
-91.24
-99.12
-106.59
-115.92
-128.70
-144.90
-162.10
-175.59
-179.36
-168.34
-140.53
-98.58
-49.71
-3.38
31.50
49.48
49.64
35.08
11.53
-13.70
-32.48
-36.90
-21.29
14.96
65.69
118.50
158.28
172.25
154.69
109.08
46.90
-16.20
-65.84
-93.65
-99.45
-90.17
-76.17
-66.91
-67.78
-79.26
-98.29
-120.62
-142.45
-160.84
-172.95
-175.21
-163.77
-135.64
-90.27
-30.54
37.20
104.08
159.93
195.31
203.96
185.08
144.34
92.35
41.24
0.12
-27.31
-42.71
-50.56
-54.76
-56.38
-53.60
-43.42
-24.04
3.49
35.09
64.58
85.36
92.27
83.17
59.66
26.95
-7.51
-36.42
-55.01
-62.51
-61.85
-57.73
-54.28
-53.33
-54.26
-54.98
-53.59
-49.27
-42.28
-33.38
-22.93
-10.87
2.84
17.29
30.55
40.31
45.13
45.37
43.23
41.61
42.69
46.82
52.44
56.94
57.95
54.28
46.11
34.54
21.00
6.94
-6.15
-16.69
-23.27
-25.26
-23.26
-19.10
-15.12
-13.08
-13.36
-14.97
-16.11
-15.08
-11.20
-5.07
1.79
7.53
10.83
11.43
10.17
8.67
8.65
11.18
16.34
23.17
30.13
35.58
38.17
36.89
31.05
20.47
5.84
-10.87
-26.57
-37.92
-42.55
-39.97
-31.53
-19.55
-6.15
7.50
21.01
34.03
45.57
53.99
57.70
55.98
49.47
39.76
28.65
17.46
6.81
-3.13
-12.26
-20.30
-26.84
-31.44
-33.80
-33.86
-31.91
-28.58
-24.73
-21.06
-17.78
-14.30
-9.49
-2.34
7.06
17.08
24.84
27.43
23.35
13.43
0.57
-11.45
-19.59
-22.72
-21.65
-18.40
-14.93
-12.28
-10.39
-8.48
-5.75
-1.92
2.64
7.04
10.17
11.20
9.91
6.99
3.88
2.37
3.94
9.26
17.95
28.69
39.45
47.65
50.39
44.99
29.98
6.17
-22.76
-50.85
-71.64
-80.53
-76.45
-62.12
-42.50
-22.62
-5.65
7.50
17.28
23.89
26.27
22.47
11.09
-7.14
-28.59
-47.63
-58.69
-58.52
-47.61
-29.82
-10.54
5.69
16.71
23.01
26.52
28.96
30.78
31.08
28.55
22.58
13.88
4.25
-4.28
-10.28
-13.47
-14.56
-14.68
-14.72
-14.93
-14.89
-14.08
-12.44
-10.95
-11.46
-15.86
-24.97
-37.60
-50.53
-59.58
-61.27
-54.37
-40.45
-23.19
-6.68
6.08
14.01
17.59
17.88
15.53
10.54
2.67
-7.64
-18.80
-28.21
-33.25
-32.48
-26.51
-17.84
-10.02
-5.85
-6.35
-10.49
-15.93
-20.72
-24.45
-28.28
-33.76
-41.56
-50.89
-60.21
-68.26
-74.51
-78.51
-78.73
-72.21
-55.64
-27.81
8.67
47.37
80.42
102.17
111.69
112.84
111.80
113.44
118.58
123.61
122.59
110.44
85.83
51.96
15.64
-15.60
-36.62
-46.25
-46.90
-42.55
-36.20
-28.75
-19.62
-8.50
3.14
12.27
15.97
13.49
7.13
1.24
-0.11
4.52
13.16
21.43
24.79
20.85
10.47
-2.83
-14.44
-20.58
-19.46
-11.57
0.82
14.49
26.27
33.64
35.24
31.10
22.47
11.45
0.39
-8.76
-14.82
-17.42
-16.75
-13.34
-7.84
-1.15
5.52
10.85
13.80
14.10
12.46
10.32
8.92
8.53
8.05
5.52
-0.70
-10.60
-22.09
-31.55
-35.52
-32.33
-22.85
-10.08
2.40
11.97
17.81
20.68
21.95
22.51
22.37
20.90
17.60
12.62
7.01
2.32
0.01
0.81
4.43
9.68
14.95
18.87
20.77
20.76
19.33
16.77
12.92
7.35
0.02
-8.19
-15.47
-19.79
-19.84
-15.81
-9.34
-2.71
2.29
5.04
6.20
7.01
8.49
10.80
13.27
14.79
14.53
12.32
8.80
5.04
2.10
0.58
0.29
0.47
0.08
-1.57
-4.53
-8.15
-11.37
-13.28
-13.62
-12.90
-12.05
-11.85
-12.23
-12.28
-10.60
-6.30
0.31
7.44
12.52
13.38
9.40
1.89
-6.40
-12.51
-14.45
-11.86
-5.76
2.22
10.70
18.92
26.52
33.03
37.46
38.33
34.35
25.27
12.49
-1.18
-12.47
-19.03
-20.31
-17.82
-14.21
-12.00
-12.44
-15.08
-18.30
-20.22
-19.66
-16.47
-11.40
-5.78
-1.24
0.50
-2.14
-9.93
-22.28
-36.92
-50.19
-58.05
-57.47
-47.54
-29.92
-8.42
12.24
27.74
35.40
34.74
27.44
16.61
5.69
-2.59
-6.85
-7.17
-4.55
-0.18
5.00
10.42
15.61
20.03
23.06
24.16
23.10
20.10
15.69
10.55
5.31
0.48
-3.63
-6.82
-9.05
-10.37
-10.80
-10.26
-8.62
-5.86
-2.32
1.25
3.84
4.60
3.36
0.79
-1.82
-3.20
-2.70
-0.54
2.33
4.80
6.13
6.30
5.81
5.31
5.14
5.18
5.05
4.44
3.42
2.45
2.14
2.84
4.43
6.23
7.44
7.42
6.11
3.94
1.56
-0.52
-2.21
-3.76
-5.52
-7.53
-9.44
-10.60
-10.45
-8.90
-6.42
-3.83
-1.90
-0.93
-0.65
-0.49
0.06
1.02
1.89
1.91
0.48
-2.32
-5.66
-8.24
-8.84
-6.88
-2.65
2.79
8.03
11.85
13.57
13.20
11.25
8.41
5.25
2.03
-1.11
-4.02
-6.32
-7.53
-7.26
-5.52
-2.89
-0.29
1.38
1.76
1.13
0.27
-0.03
0.63
2.00
3.40
4.12
3.78
2.54
1.02
-0.10
-0.34
0.28
1.30
2.11
2.29
1.88
1.38
1.43
2.39
4.01
5.54
6.13
5.31
3.29
0.84
-1.20
-2.35
-2.80
-3.15
-4.03
-5.57
-7.33
-8.47
-8.28
-6.54
-3.70
-0.66
1.70
2.96
3.29
3.31
3.60
4.36
5.26
5.58
4.75
2.72
0.13
-2.06
-3.03
-2.61
-1.42
-0.52
-0.83
-2.57
-5.18
-7.51
-8.52
-7.78
-5.72
-3.38
-1.84
-1.66
-2.61
-3.84
-4.46
-3.97
-2.55
-0.92
0.08
0.07
-0.76
-1.73
-2.10
-1.51
-0.15
1.32
2.21
2.20
1.56
0.96
1.06
2.15
3.85
5.37
5.90
5.09
3.23
1.10
-0.51
-1.16
-0.96
-0.43
-0.11
-0.19
-0.46
-0.44
0.27
1.71
3.46
4.94
5.62
5.41
4.66
3.98
3.87
4.43
5.26
5.71
5.30
3.99
2.33
1.04
0.61
0.93
1.16
0.19
-2.82
-7.88
-14.03
-19.70
-23.40
-24.39
-22.95
-20.18
-17.44
-15.57
-14.63
-14.02
-12.93
-10.88
-7.99
-4.81
-2.04
-0.04
1.23
2.18
3.27
4.80
6.71
8.70
10.27
10.89
10.19
7.96
4.26
-0.55
-5.74
-10.37
-13.40
-14.01
-11.89
-7.39
-1.54
4.13
8.22
9.86
9.03
6.54
3.53
0.95
-0.99
-2.80
-5.33
-9.03
-13.43
-17.15
-18.46
-16.19
-10.55
-3.32
2.80
5.35
3.25
-2.66
-9.93
-15.68
-17.79
-15.77
-10.80
-4.87
0.23
3.89
6.87
10.88
17.86
29.12
44.95
64.45
85.39
104.15
116.03
116.00
100.43
68.90
25.51
-21.50
-62.05
-87.53
-93.76
-82.13
-58.77
-31.97
-9.38
3.89
5.85
-2.70
-18.94
-38.64
-57.01
-69.57
-73.25
-67.21
-53.10
-34.32
-14.84
1.92
13.85
20.16
21.08
17.66
11.47
4.44
-1.38
-4.50
-4.36
-1.63
2.17
5.36
6.87
6.54
4.97
3.07
1.49
0.44
-0.15
-0.36
0.04
1.60
4.94
10.36
17.52
25.18
31.39
33.98
31.31
23.06
10.60
-3.18
-14.88
-21.77
-22.87
-19.21
-13.14
-7.33
-3.48
-2.07
-2.43
-3.53
-4.57
-5.26
-5.70
-5.99
-6.08
-5.87
-5.47
-5.26
-5.76
-7.22
-9.33
-11.26
-12.09
-11.29
-8.98
-5.85
-2.62
0.29
2.90
5.29
7.18
7.82
6.33
2.43
-3.07
-8.24
-10.74
-9.08
-3.22
5.07
12.96
17.63
17.43
12.45
4.51
-3.54
-8.82
-9.52
-5.59
1.39
8.88
14.65
17.67
18.41
18.22
18.38
19.26
20.10
19.59
16.74
11.48
4.68
-2.31
-8.36
-12.87
-15.76
-17.12
-16.98
-15.31
-12.17
-7.92
-3.24
1.07
4.41
6.57
7.78
8.42
8.69
8.58
8.05
7.41
7.42
8.96
12.45
17.37
22.34
25.68
26.48
25.14
23.30
23.16
26.38
33.42
43.50
55.02
66.21
75.28
80.31
79.03
69.19
49.58
21.26
-11.80
-43.43
-67.23
-78.90
-77.90
-67.45
-52.83
-39.06
-29.08
-23.30
-20.48
-19.24
-19.06
-20.39
-23.88
-29.48
-35.98
-41.28
-43.21
-40.46
-33.17
-22.90
-11.88
-2.20
5.01
9.72
12.58
14.18
14.63
13.53
10.51
5.82
0.54
-3.81
-6.01
-5.80
-4.02
-2.12
-1.39
-2.27
-4.25
-6.15
-6.77
-5.37
-1.91
3.02
8.48
13.46
17.15
19.00
18.84
16.73
12.98
8.07
2.64
-2.60
-7.04
-10.29
-12.36
-13.53
-14.12
-14.28
-13.91
-12.88
-11.36
-10.01
-9.81
-11.42
-14.57
-17.79
-18.95
-16.21
-9.07
1.24
12.19
20.99
25.70
25.88
22.45
17.13
11.68
7.26
4.32
2.64
1.59
0.55
-0.88
-2.71
-4.55
-5.89
-6.37
-5.86
-4.56
-2.77
-0.71
1.42
3.34
4.64
4.82
3.56
0.95
-2.40
-5.54
-7.49
-7.64
-5.84
-2.42
1.95
6.47
10.31
12.75
13.33
11.98
8.98
4.97
0.68
-3.23
-6.31
-8.30
-9.06
-8.51
-6.71
-3.89
-0.47
2.91
5.62
7.24
7.74
7.42
6.79
6.36
6.50
7.40
9.07
11.42
14.27
17.26
19.86
21.53
21.78
20.41
17.56
13.72
9.54
5.67
2.53
0.26
-1.33
-2.63
-4.04
-5.77
-7.73
-9.54
-10.78
-11.16
-10.82
-10.22
-9.90
-10.22
-11.06
-11.87
-11.95
-10.78
-8.28
-4.82
-0.99
2.64
5.76
8.26
10.13
11.31
11.68
11.12
9.64
7.45
4.82
2.00
-0.93
-4.02
-7.38
-11.01
-14.77
-18.33
-21.34
-23.40
-24.21
-23.65
-21.87
-19.38
-16.90
-15.13
-14.40
-14.42
-14.42
-13.50
-11.23
-7.95
-4.75
-3.06
-3.95
-7.73
-13.63
-19.98
-24.62
-25.54
-21.64
-13.29
-2.43
7.99
15.12
17.43
15.37
11.06
7.15
5.46
6.24
8.37
10.29
11.03
10.70
10.20
10.48
11.96
14.26
16.56
18.09
18.46
17.81
16.66
15.60
15.07
15.18
15.67
16.00
15.67
14.40
12.37
10.10
8.27
7.31
7.24
7.67
7.96
7.49
5.91
3.29
0.04
-3.17
-5.65
-6.96
-7.12
-6.67
-6.41
-7.14
-9.28
-12.69
-16.74
-20.48
-23.04
-24.00
-23.56
-22.48
-21.84
-22.56
-24.96
-28.60
-32.59
-35.87
-37.88
-38.57
-38.49
-38.42
-39.22
-41.93
-47.67
-57.06
-69.30
-81.61
-89.58
-88.60
-75.85
-51.88
-20.71
11.70
39.64
59.61
70.89
74.85
73.60
68.92
61.98
53.68
45.09
37.58
32.47
30.48
31.40
34.14
37.11
38.95
38.97
37.49
35.33
33.50
32.67
33.02
34.26
35.87
37.44
38.68
39.56
40.11
40.45
40.63
40.58
40.09
38.83
36.57
33.27
29.27
25.14
21.48
18.69
16.76
15.32
13.65
11.02
6.88
1.10
-5.96
-13.51
-20.60
-26.45
-30.58
-32.94
-33.75
-33.40
-32.32
-30.92
-29.58
-28.58
-28.05
-27.84
-27.56
-26.69
-24.68
-21.16
-16.01
-9.32
-1.29
7.76
17.39
27.15
36.45
44.84
52.12
58.34
63.66
68.19
71.72
73.84
74.22
72.91
70.25
66.47
61.30
53.72
42.43
26.67
6.86
-15.06
-36.10
-53.20
-64.25
-68.71
-67.51
-62.45
-55.49
-48.17
-41.57
-36.32
-32.74
-30.83
-30.22
-30.19
-30.02
-29.21
-27.76
-26.24
-25.34
-25.37
-25.95
-26.03
-24.49
-20.65
-14.75
-7.69
-0.58
5.50
9.69
11.44
10.43
6.91
2.17
-1.70
-2.44
1.02
7.20
12.08
10.68
-0.26
-19.91
-43.08
-62.45
-71.85
-69.11
-56.52
-39.04
-21.95
-9.39
-4.91
-11.96
-33.77
-71.25
-120.40
-171.40
-210.74
-226.34
-212.64
-172.95
-117.68
-59.58
-8.87
29.23
54.11
67.66
72.08
69.10
60.61
49.32
38.78
32.47
32.39
38.16
47.28
56.12
61.57
62.19
58.63
53.07
48.12
45.85
46.88
50.34
54.20
56.03
53.89
46.99
36.28
24.37
15.17
12.70
19.55
35.49
56.87
76.86
87.27
81.07
55.26
12.92
-36.77
-80.76
-106.35
-105.85
-79.64
-35.98
12.33
53.07
78.89
88.88
87.07
79.12
69.27
59.24
49.03
38.59
28.92
21.70
18.03
17.48
17.94
16.67
11.84
3.54
-6.33
-15.00
-20.02
-20.36
-16.67
-10.91
-5.53
-2.54
-2.76
-5.68
-9.74
-13.10
-14.51
-13.81
-11.94
-10.32
-10.09
-11.54
-14.03
-16.43
-17.74
-17.60
-16.27
-14.37
-12.45
-10.75
-9.23
-7.70
-6.02
-4.11
-1.90
0.70
3.75
7.14
10.59
13.64
15.97
17.62
19.04
20.73
22.73
24.36
24.56
22.52
18.15
12.12
5.41
-1.04
-6.46
-10.14
-11.52
-10.48
-7.80
-5.03
-3.91
-5.18
-7.84
-9.43
-7.35
-0.48
9.96
20.93
29.27
33.30
33.44
31.59
29.70
28.76
28.53
28.09
26.57
23.64
19.47
14.44
8.78
2.45
-4.66
-12.35
-19.93
-26.21
-29.91
-30.21
-27.29
-22.47
-17.88
-15.53
-16.19
-18.63
-19.94
-16.85
-7.79
5.76
19.27
27.08
25.12
13.05
-5.32
-23.66
-35.95
-39.01
-33.48
-22.90
-11.69
-3.14
1.49
2.73
1.74
-0.52
-3.73
-7.80
-12.35
-16.38
-18.48
-17.62
-13.91
-8.77
-4.34
-2.39
-3.25
-5.62
-7.26
-6.14
-1.68
5.06
11.85
16.36
17.39
15.23
11.31
7.48
5.18
4.89
6.21
8.24
10.06
10.92
10.33
8.02
4.02
-1.08
-6.09
-9.41
-9.63
-6.18
0.19
7.65
14.02
17.71
18.37
16.87
14.62
12.92
12.38
12.92
13.84
14.30
13.52
10.86
6.09
-0.52
-8.22
-15.95
-22.68
-27.85
-31.36
-33.45
-34.13
-33.07
-29.69
-23.65
-15.34
-5.82
3.48
11.40
17.47
21.85
24.98
27.04
27.85
26.85
23.72
18.69
12.66
6.92
2.62
0.25
-0.48
-0.51
-0.98
-2.67
-5.74
-9.73
-13.92
-17.64
-20.57
-22.66
-23.99
-24.57
-24.21
-22.65
-19.82
-15.95
-11.63
-7.57
-4.27
-1.84
-0.01
1.58
3.13
4.51
5.31
5.08
3.62
1.17
-1.58
-3.75
-4.69
-4.41
-3.59
-3.30
-4.44
-7.24
-11.06
-14.74
-17.21
-18.06
-17.61
-16.59
-15.49
-14.20
-12.00
-8.19
-2.65
3.85
9.97
14.49
16.91
17.74
18.17
19.34
21.81
25.17
28.33
30.06
29.60
26.92
22.65
17.63
12.38
6.93
0.99
-5.69
-12.92
-20.00
-25.88
-29.52
-30.21
-27.68
-22.10
-14.09
-4.71
4.63
12.40
17.34
18.93
17.56
14.43
11.04
8.59
7.57
7.77
8.49
9.02
8.88
8.03
6.78
5.62
5.01
5.16
5.84
6.43
6.14
4.34
0.96
-3.39
-7.63
-10.73
-12.11
-11.89
-10.68
-9.16
-7.65
-6.09
-4.19
-1.75
1.12
4.03
6.44
7.97
8.49
8.09
7.06
5.83
4.98
5.07
6.33
8.29
9.77
9.16
5.29
-1.89
-11.11
-20.20
-27.04
-30.42
-30.43
-28.05
-24.49
-20.51
-16.20
-11.33
-5.82
-0.16
4.76
8.09
9.52
9.52
9.08
9.21
10.36
12.13
13.53
13.56
11.84
8.98
6.36
5.40
6.70
9.52
11.96
11.78
7.43
-1.16
-12.50
-24.14
-33.64
-39.32
-40.59
-37.71
-31.40
-22.48
-11.89
-0.83
9.26
16.89
21.04
21.51
19.03
14.97
10.76
7.42
5.37
4.47
4.39
4.83
5.57
6.41
6.96
6.67
4.90
1.24
-4.28
-11.00
-17.78
-23.32
-26.64
-27.35
-25.83
-22.91
-19.49
-16.21
-13.23
-10.42
-7.51
-4.39
-1.08
2.31
5.71
9.13
12.55
15.79
18.43
20.01
20.27
19.36
17.79
16.21
15.02
14.16
13.07
11.06
7.62
2.78
-2.90
-8.53
-13.20
-16.40
-18.04
-18.41
-17.89
-16.75
-15.04
-12.60
-9.20
-4.63
1.07
7.52
14.03
19.66
23.55
25.16
24.53
22.30
19.44
16.87
15.07
13.92
12.80
10.98
7.99
3.79
-1.18
-6.26
-10.81
-14.44
-17.00
-18.59
-19.38
-19.50
-18.94
-17.52
-15.04
-11.39
-6.77
-1.71
3.01
6.70
9.00
10.05
10.40
10.65
11.15
11.86
12.41
12.52
12.27
12.07
12.46
13.57
14.98
15.69
14.60
10.99
4.92
-2.72
-10.46
-16.77
-20.46
-20.99
-18.54
-13.90
-8.18
-2.54
2.12
5.33
7.06
7.62
7.41
6.79
5.90
4.75
3.26
1.40
-0.67
-2.62
-4.05
-4.69
-4.59
-4.28
-4.68
-6.78
-11.27
-18.11
-26.48
-34.95
-41.93
-46.18
-47.03
-44.44
-38.82
-30.85
-21.36
-11.31
-1.89
5.71
10.58
12.52
12.24
11.22
11.07
12.78
16.18
20.05
22.81
23.44
22.02
19.66
17.72
16.89
16.71
15.80
12.68
6.67
-1.63
-10.54
-17.95
-22.18
-22.46
-18.97
-12.66
-4.86
3.07
10.00
15.25
18.65
20.50
21.31
21.51
21.25
20.39
18.73
16.40
13.97
12.29
11.98
12.85
13.63
12.41
7.43
-1.92
-14.56
-27.92
-38.88
-44.95
-45.15
-40.14
-31.60
-21.46
-11.29
-2.12
5.30
10.31
12.34
11.30
7.96
3.91
1.23
1.66
5.83
13.00
21.29
28.35
32.21
31.82
27.15
19.03
8.74
-2.24
-12.49
-20.73
-25.96
-27.64
-25.79
-21.04
-14.39
-6.96
0.35
6.96
12.62
17.31
21.08
23.98
25.94
26.75
26.06
23.58
19.39
14.13
8.94
4.92
2.44
0.75
-1.94
-7.62
-17.30
-30.29
-44.07
-55.16
-60.35
-57.91
-48.18
-33.41
-16.96
-2.22
8.21
13.08
12.60
8.27
2.56
-1.72
-2.22
2.14
10.78
21.56
31.55
38.11
39.71
36.28
28.80
18.73
7.39
-4.17
-14.96
-23.82
-29.43
-30.87
-28.03
-21.89
-14.33
-7.43
-2.69
-0.41
0.46
1.77
5.31
11.81
20.42
28.93
34.77
36.17
33.06
27.01
20.29
14.50
9.68
4.42
-3.14
-13.97
-27.27
-40.57
-50.76
-55.40
-53.65
-46.49
-36.10
-24.87
-14.56
-5.93
1.03
6.60
10.88
13.71
14.84
14.40
13.11
12.14
12.63
15.15
19.37
24.23
28.35
30.53
29.98
26.40
19.85
10.72
-0.14
-11.35
-21.07
-27.47
-29.28
-26.28
-19.41
-10.41
-1.18
6.72
12.51
16.10
17.96
18.79
19.19
19.50
19.66
19.33
18.12
15.96
13.37
11.27
10.53
11.27
12.44
11.96
7.62
-1.77
-15.53
-31.09
-44.81
-53.39
-54.97
-49.71
-39.45
-26.92
-14.77
-4.93
1.60
4.78
5.20
3.90
2.06
0.80
0.92
2.72
6.02
10.21
14.49
18.07
20.30
20.63
18.67
14.31
7.72
-0.42
-8.97
-16.53
-21.89
-24.32
-23.80
-20.82
-16.04
-10.04
-3.29
3.69
10.17
15.29
18.43
19.54
19.16
18.22
17.44
16.93
16.20
14.72
12.44
10.06
8.60
8.67
9.76
10.18
7.76
0.95
-10.24
-23.96
-37.11
-46.46
-49.81
-46.66
-38.25
-26.90
-15.13
-4.85
2.89
7.93
10.62
11.49
11.04
9.82
8.43
7.55
7.71
9.08
11.33
13.72
15.42
15.87
14.93
12.81
9.86
6.36
2.45
-1.76
-6.04
-9.92
-12.76
-13.91
-12.97
-9.96
-5.36
-0.01
5.12
9.28
12.11
13.84
15.01
16.18
17.55
18.77
19.13
18.07
15.64
12.71
10.62
10.39
11.90
13.58
12.90
7.57
-3.22
-18.07
-33.72
-46.23
-52.44
-51.12
-43.21
-31.21
-18.15
-6.53
2.16
7.52
9.88
9.94
8.55
6.67
5.31
5.40
7.51
11.62
16.97
22.24
25.95
26.84
24.20
17.99
8.83
-2.09
-13.14
-22.58
-28.87
-31.13
-29.36
-24.45
-17.79
-10.72
-4.10
1.78
7.09
12.07
16.80
21.17
24.78
27.10
27.63
26.07
22.49
17.61
12.69
9.20
8.16
9.47
11.60
12.01
8.12
-1.47
-16.20
-33.45
-49.39
-60.23
-63.44
-58.51
-46.94
-31.62
-15.86
-2.49
6.77
11.61
12.94
12.35
11.58
11.84
13.42
15.85
18.23
19.74
20.04
19.24
17.64
15.39
12.37
8.31
3.12
-2.76
-8.51
-13.23
-16.38
-17.91
-18.11
-17.20
-15.09
-11.41
-6.00
0.66
7.44
12.96
16.23
17.16
16.51
15.44
14.81
14.78
14.86
14.47
13.45
12.30
11.78
12.18
12.79
11.83
7.25
-2.16
-15.85
-31.24
-44.60
-52.40
-52.70
-45.86
-34.21
-20.95
-8.92
0.24
6.19
9.43
10.66
10.37
8.88
6.59
4.22
2.79
3.23
5.94
10.53
15.86
20.50
23.27
23.56
21.46
17.46
12.22
6.37
0.40
-5.18
-9.84
-13.01
-14.22
-13.28
-10.33
-5.91
-0.82
4.06
8.04
10.86
12.73
14.11
15.40
16.55
17.09
16.47
14.54
11.89
9.68
9.05
10.31
12.47
13.41
10.81
3.29
-8.73
-22.96
-36.06
-44.88
-47.68
-44.60
-37.34
-28.26
-19.37
-11.74
-5.61
-0.83
2.69
4.73
5.10
4.00
2.22
1.02
1.49
4.00
7.97
12.11
15.04
15.92
14.67
11.80
7.92
3.43
-1.59
-7.11
-12.84
-17.99
-21.48
-22.28
-19.93
-14.67
-7.46
0.37
7.44
12.79
16.01
17.33
17.44
17.13
16.86
16.62
15.92
14.25
11.52
8.30
5.65
4.59
5.42
7.43
8.99
8.27
4.02
-3.74
-13.76
-23.91
-31.96
-36.30
-36.30
-32.33
-25.44
-16.97
-8.24
-0.36
5.83
9.76
11.23
10.48
8.20
5.39
3.14
2.23
2.96
5.06
7.87
10.64
12.76
13.91
13.91
12.58
9.76
5.41
-0.11
-5.98
-11.04
-14.22
-14.91
-13.23
-9.91
-5.90
-2.05
1.19
3.69
5.49
6.69
7.38
7.75
8.09
8.62
9.42
10.36
11.28
12.15
13.17
14.59
16.35
17.72
17.32
13.60
5.68
-6.06
-19.72
-32.46
-41.51
-45.15
-43.20
-36.82
-27.83
-17.98
-8.56
-0.41
5.86
9.80
11.26
10.57
8.68
6.83
6.02
6.54
7.92
9.24
9.81
9.54
8.92
8.58
8.76
9.09
8.79
7.19
4.16
0.20
-3.86
-7.26
-9.58
-10.76
-10.83
-9.80
-7.54
-4.05
0.35
4.96
8.93
11.68
13.09
13.55
13.62
13.70
13.78
13.58
12.79
11.44
9.90
8.71
8.19
8.09
7.58
5.50
0.91
-6.42
-15.76
-25.53
-33.69
-38.44
-38.68
-34.39
-26.57
-16.97
-7.51
0.19
5.26
7.67
8.06
7.40
6.56
6.11
6.33
7.36
9.22
11.89
15.21
18.66
21.42
22.43
20.71
15.75
7.72
-2.38
-12.91
-22.04
-28.25
-30.84
-30.10
-27.08
-23.09
-19.06
-15.26
-11.42
-7.14
-2.44
2.14
5.75
7.83
8.45
8.29
8.29
8.96
10.09
10.94
10.84
9.77
8.44
7.94
8.90
10.88
12.41
11.62
7.36
-0.09
-8.98
-16.88
-21.76
-22.90
-21.02
-17.68
-14.38
-11.87
-9.94
-7.90
-5.20
-1.84
1.56
4.32
6.14
7.47
9.15
11.92
15.86
20.25
23.97
26.03
26.16
24.82
22.77
20.62
18.40
15.70
12.06
7.36
1.86
-3.85
-9.25
-14.07
-18.22
-21.64
-24.08
-25.14
-24.34
-21.27
-15.76
-8.01
1.26
10.95
19.52
25.57
28.25
27.73
25.22
22.57
21.59
23.23
27.00
30.93
32.27
28.59
18.89
4.16
-12.91
-29.00
-41.43
-48.92
-51.76
-51.00
-47.63
-42.13
-34.55
-25.20
-15.16
-6.13
0.17
2.96
2.83
1.48
0.75
1.88
4.86
8.72
12.12
14.13
14.60
13.95
12.70
10.99
8.54
4.91
0.03
-5.48
-10.46
-13.73
-14.61
-13.20
-10.26
-6.77
-3.44
-0.50
2.20
4.91
7.63
9.97
11.36
11.37
10.17
8.55
7.73
8.72
11.79
16.24
20.67
23.65
24.31
22.59
18.99
13.91
7.22
-1.58
-12.75
-25.51
-37.76
-46.64
-49.64
-45.83
-36.33
-23.84
-11.49
-1.72
4.45
7.32
7.93
7.40
6.54
5.87
5.70
6.31
7.80
10.01
12.44
14.39
15.15
14.34
12.00
8.61
4.95
1.75
-0.43
-1.54
-1.97
-2.48
-3.85
-6.48
-10.26
-14.49
-18.21
-20.57
-21.23
-20.40
-18.75
-17.00
-15.57
-14.41
-13.00
-10.79
-7.45
-3.15
1.52
5.83
9.28
11.88
14.22
17.12
21.00
25.26
28.14
27.34
21.16
9.63
-5.09
-19.42
-29.77
-34.11
-32.58
-27.05
-19.86
-12.62
-5.78
0.82
7.13
12.43
15.58
15.86
13.65
10.36
7.83
7.37
9.21
12.48
15.89
18.35
19.42
19.12
17.63
14.96
10.95
5.54
-0.98
-7.80
-13.81
-17.95
-19.69
-19.19
-17.12
-14.33
-11.45
-8.65
-5.73
-2.42
1.30
5.05
8.15
9.80
9.54
7.49
4.49
1.90
1.24
3.74
9.80
18.54
27.72
34.23
35.06
28.54
15.23
-2.07
-19.28
-32.58
-39.68
-40.40
-36.18
-29.11
-20.97
-12.93
-5.73
-0.08
3.13
3.34
0.84
-2.85
-5.53
-5.29
-1.37
5.26
12.55
18.27
21.11
20.98
18.64
14.96
10.26
4.35
-3.00
-11.32
-19.24
-24.83
-26.49
-23.80
-17.69
-10.04
-2.82
2.69
6.28
8.62
10.63
12.93
15.49
17.72
18.89
18.48
16.52
13.60
10.60
8.28
6.95
6.26
5.35
3.20
-0.92
-7.11
-14.67
-22.33
-28.60
-32.27
-32.73
-30.07
-24.96
-18.33
-11.12
-4.14
1.95
6.58
9.36
10.18
9.36
7.70
6.21
5.78
6.80
9.01
11.71
14.14
15.82
16.59
16.49
15.51
13.53
10.44
6.39
1.97
-1.94
-4.50
-5.31
-4.62
-3.16
-1.77
-0.95
-0.70
-0.55
0.04
1.32
3.10
4.90
6.17
6.64
6.39
5.84
5.45
5.60
6.36
7.49
8.45
8.49
6.87
3.11
-2.82
-10.33
-18.36
-25.58
-30.75
-33.02
-32.08
-28.21
-22.08
-14.68
-7.08
-0.32
4.85
8.04
9.34
9.25
8.52
7.86
7.78
8.46
9.74
11.29
12.76
13.91
14.63
14.79
14.21
12.53
9.40
4.74
-1.12
-7.39
-13.04
-17.21
-19.50
-20.04
-19.31
-17.80
-15.77
-13.22
-10.21
-6.90
-3.77
-1.35
0.06
0.48
0.25
-0.30
-0.96
-1.58
-1.90
-1.46
0.24
3.41
7.58
11.59
13.91
13.30
9.35
2.71
-5.07
-12.10
-16.73
-17.99
-15.77
-10.79
-4.27
2.39
8.06
12.19
14.80
16.38
17.46
18.40
19.27
19.90
20.09
19.78
19.13
18.47
18.16
18.47
19.37
20.40
20.63
18.97
14.55
7.26
-2.07
-11.85
-20.32
-26.21
-29.12
-29.51
-28.19
-25.79
-22.58
-18.55
-13.84
-8.98
-4.79
-1.95
-0.54
0.11
1.01
2.89
5.72
8.74
10.85
11.40
10.65
9.59
9.17
9.56
9.79
8.30
3.91
-3.28
-11.71
-18.99
-23.11
-23.36
-20.50
-16.19
-12.04
-8.93
-6.87
-5.42
-4.33
-3.66
-3.65
-4.23
-4.71
-4.06
-1.34
3.67
10.25
16.94
22.19
24.96
24.98
22.69
18.82
13.97
8.49
2.53
-3.63
-9.40
-13.99
-16.60
-16.74
-14.47
-10.36
-5.31
-0.33
3.72
6.38
7.66
8.03
8.25
9.05
10.80
13.34
16.02
18.00
18.67
17.90
15.97
13.30
10.07
6.04
0.79
-5.87
-13.44
-20.72
-26.13
-28.47
-27.45
-23.84
-19.06
-14.51
-10.92
-8.21
-5.83
-3.25
-0.41
2.40
4.76
6.53
7.93
9.33
10.90
12.38
13.17
12.71
10.82
7.92
4.83
2.38
0.95
0.26
-0.52
-2.29
-5.49
-9.75
-13.84
-16.22
-15.74
-12.23
-6.65
-0.68
4.03
6.51
6.88
6.11
5.45
5.83
7.44
9.82
12.18
13.90
14.89
15.52
16.32
17.53
18.78
19.13
17.50
13.30
6.87
-0.44
-6.74
-10.44
-11.00
-9.10
-6.44
-4.68
-4.62
-5.88
-7.17
-7.19
-5.38
-2.10
2.00
6.50
11.29
16.08
19.70
20.16
15.57
5.56
-7.89
-21.00
-29.84
-32.38
-29.31
-23.38
-17.66
-13.92
-12.09
-10.97
-9.52
-7.58
-5.77
-4.69
-4.33
-3.96
-2.79
-0.45
2.68
5.69
7.72
8.44
8.18
7.67
7.64
8.44
9.79
10.86
10.50
7.65
1.81
-6.54
-15.97
-24.36
-29.66
-30.69
-27.70
-22.21
-16.33
-11.77
-9.08
-7.54
-5.82
-2.86
1.46
6.29
10.36
12.75
13.34
12.71
11.71
10.90
10.25
9.16
6.84
2.71
-3.25
-10.29
-17.13
-22.33
-24.81
-24.30
-21.47
-17.52
-13.63
-10.32
-7.32
-3.88
0.62
6.21
12.19
17.39
20.74
21.70
20.48
17.87
14.95
12.63
11.30
10.74
10.30
9.31
7.55
5.38
3.57
2.82
3.30
4.49
5.42
5.30
3.89
1.64
-0.61
-2.13
-2.65
-2.36
-1.73
-1.09
-0.42
0.55
2.16
4.46
7.09
9.40
10.82
11.23
11.08
11.18
12.20
14.13
16.23
17.30
16.40
13.36
8.94
4.40
0.81
-1.45
-2.76
-3.85
-5.27
-7.06
-8.83
-10.13
-10.83
-11.23
-11.83
-12.95
-14.36
-15.35
-15.08
-13.07
-9.53
-5.36
-1.75
0.42
0.93
0.34
-0.52
-0.94
-0.75
-0.33
-0.28
-1.07
-2.78
-5.08
-7.46
-9.41
-10.54
-10.73
-10.03
-8.72
-7.21
-5.81
-4.65
-3.47
-1.80
0.75
4.22
8.12
11.69
14.33
15.94
16.92
17.91
19.19
20.47
20.99
19.97
17.22
13.28
9.20
6.00
4.11
3.10
2.06
0.15
-2.84
-6.18
-8.66
-9.06
-6.93
-2.84
1.91
5.88
8.13
8.62
8.00
7.19
6.74
6.51
5.88
4.09
0.89
-3.29
-7.52
-10.69
-12.21
-12.25
-11.56
-11.07
-11.25
-11.78
-11.78
-10.22
-6.67
-1.61
3.79
8.11
10.36
10.35
8.49
5.56
2.27
-0.95
-3.86
-6.30
-8.10
-9.10
-9.39
-9.33
-9.51
-10.56
-12.77
-15.90
-19.17
-21.47
-21.89
-19.96
-15.94
-10.79
-5.68
-1.61
1.02
2.53
3.69
5.31
7.85
11.19
14.76
17.85
19.89
20.86
21.13
21.32
21.93
22.99
24.01
24.25
22.94
19.73
14.72
8.29
1.00
-6.76
-14.68
-22.34
-29.14
-34.08
-36.12
-34.55
-29.32
-21.33
-12.31
-4.12
1.69
4.56
4.95
3.97
2.85
2.26
1.98
1.35
-0.29
-2.82
-5.19
-5.89
-3.76
1.12
7.13
11.73
12.50
8.37
0.25
-9.41
-17.60
-22.05
-22.17
-18.87
-13.95
-9.07
-4.95
-1.54
1.56
4.61
7.26
8.88
9.09
8.09
6.78
6.22
6.97
8.89
11.07
12.39
12.29
10.90
9.04
7.68
7.27
7.53
7.51
6.08
2.68
-2.50
-8.46
-13.81
-17.51
-19.15
-19.05
-17.96
-16.44
-14.71
-12.57
-9.75
-6.30
-2.76
0.13
1.76
2.11
1.79
1.66
2.46
4.28
6.53
8.19
8.32
6.49
2.97
-1.47
-5.92
-9.62
-12.25
-13.89
-14.80
-15.21
-15.10
-14.30
-12.47
-9.42
-5.28
-0.49
4.28
8.41
11.68
14.20
16.34
18.43
20.43
21.92
22.29
21.13
18.63
15.56
12.86
11.29
10.97
11.38
11.72
11.29
9.87
7.72
5.18
2.55
-0.15
-3.04
-6.08
-9.00
-11.37
-12.73
-12.95
-12.26
-11.08
-9.87
-8.85
-7.91
-6.80
-5.25
-3.24
-1.09
0.65
1.47
1.12
-0.19
-1.90
-3.32
-3.95
-3.81
-3.42
-3.50
-4.61
-6.75
-9.40
-11.63
-12.56
-11.73
-9.13
-5.13
-0.24
5.23
11.09
17.17
23.15
28.45
32.37
34.26
33.85
31.35
27.38
22.66
17.78
12.99
8.17
3.03
-2.69
-9.06
-15.77
-22.31
-28.06
-32.54
-35.58
-37.30
-38.01
-37.91
-36.99
-35.08
-31.98
-27.77
-22.82
-17.80
-13.23
-9.28
-5.56
-1.37
3.87
10.23
17.22
23.94
29.54
33.61
36.16
37.57
38.26
38.35
37.74
36.28
33.97
31.15
28.36
26.06
24.34
22.75
20.52
16.98
11.94
5.95
-0.04
-5.13
-8.83
-11.29
-13.03
-14.41
-15.50
-15.97
-15.44
-13.95
-11.82
-9.62
-7.78
-6.35
-5.26
-4.40
-3.87
-4.00
-4.91
-6.45
-8.17
-9.50
-10.19
-10.41
-10.62
-11.33
-12.59
-13.99
-14.89
-14.74
-13.50
-11.62
-9.64
-7.99
-6.56
-4.90
-2.64
0.18
2.86
4.44
4.29
2.33
-0.67
-3.57
-5.59
-6.48
-6.85
-7.65
-9.64
-13.18
-18.01
-23.45
-28.68
-32.91
-35.59
-36.41
-35.35
-32.68
-28.68
-23.72
-18.01
-11.77
-5.29
1.16
7.39
13.45
19.77
26.86
34.87
43.42
51.54
58.19
62.74
65.18
65.93
65.35
63.34
59.45
53.29
45.08
35.92
27.25
20.47
16.22
14.29
13.94
14.13
13.94
12.76
10.33
7.02
3.73
1.69
1.79
3.97
6.94
8.81
8.03
4.42
-0.69
-5.31
-8.06
-8.99
-9.39
-10.73
-13.49
-16.93
-19.68
-20.84
-20.53
-19.66
-19.09
-18.85
-18.25
-16.44
-13.03
-8.43
-3.20
2.47
8.93
16.63
25.25
33.22
38.26
38.23
32.34
21.59
8.37
-4.31
-13.72
-18.18
-17.33
-12.14
-4.67
2.52
7.07
7.53
4.07
-1.57
-6.53
-8.33
-6.27
-2.03
0.87
-1.14
-9.57
-22.93
-37.27
-48.13
-52.99
-52.51
-49.88
-48.89
-51.54
-57.02
-62.45
-64.74
-62.45
-56.48
-49.24
-42.90
-38.24
-34.25
-29.07
-21.41
-11.50
-0.85
8.70
16.14
22.16
28.45
36.86
48.29
61.98
76.19
89.18
99.75
107.57
112.70
114.73
112.91
106.43
94.80
78.68
59.81
40.33
22.33
6.98
-5.92
-17.41
-28.76
-41.06
-54.39
-68.23
-81.61
-93.25
-101.72
-105.72
-104.12
-96.63
-84.71
-71.18
-59.72
-53.23
-52.16
-54.38
-56.57
-55.74
-51.06
-43.86
-36.29
-29.97
-25.17
-20.96
-16.40
-11.60
-7.18
-3.89
-1.67
0.50
3.54
7.36
11.06
13.47
14.34
14.93
17.08
21.99
29.33
36.91
41.88
42.49
38.65
31.97
24.67
18.18
12.71
7.76
2.70
-2.38
-6.56
-8.92
-9.08
-7.56
-5.48
-3.76
-2.13
0.63
6.16
15.47
28.01
41.85
54.65
64.61
71.37
76.04
80.20
85.27
91.91
99.87
108.45
116.59
122.94
126.01
124.41
117.31
105.23
90.06
74.75
62.22
54.28
50.60
49.06
46.84
41.59
32.46
19.90
5.07
-10.63
-25.63
-38.33
-47.16
-51.42
-52.20
-52.39
-55.73
-64.82
-79.13
-94.79
-106.45
-110.23
-106.26
-98.78
-93.65
-94.82
-102.05
-111.25
-117.22
-117.01
-111.41
-103.95
-98.19
-94.95
-91.79
-84.71
-70.83
-50.60
-27.56
-6.44
9.25
18.71
23.64
26.81
30.58
36.16
43.65
52.55
62.15
71.53
79.57
85.16
87.51
86.60
83.15
78.35
73.38
69.08
65.87
64.03
63.64
64.35
65.36
65.45
63.27
57.83
48.61
35.47
18.61
-1.35
-23.03
-44.29
-62.82
-77.11
-87.30
-95.08
-102.57
-110.86
-119.16
-125.24
-127.00
-124.14
-118.51
-113.23
-110.71
-111.42
-113.90
-115.98
-115.81
-112.46
-105.33
-93.43
-75.45
-50.66
-20.14
12.71
42.91
65.64
78.12
80.58
75.73
67.16
58.02
50.30
45.07
43.41
46.64
55.55
69.18
83.86
93.86
93.61
80.44
56.33
27.61
2.32
-13.26
-17.15
-12.14
-3.94
1.43
0.27
-7.94
-21.04
-35.38
-47.11
-53.17
-51.89
-43.31
-29.30
-13.17
1.34
11.25
15.33
14.75
12.66
12.86
18.30
29.79
45.70
62.56
76.61
85.25
87.93
85.92
81.75
78.26
77.82
81.77
89.70
98.65
103.46
97.76
77.03
41.23
-4.28
-50.28
-87.13
-108.46
-112.92
-103.53
-85.43
-63.54
-41.58
-22.28
-7.92
-0.06
1.48
-0.42
-0.82
5.27
20.35
42.48
65.70
82.28
85.51
71.59
40.35
-5.11
-59.07
-113.73
-160.27
-190.54
-199.21
-185.71
-154.57
-113.73
-71.54
-33.94
-3.10
21.95
43.34
62.29
78.00
87.85
88.65
78.24
56.70
26.77
-6.65
-37.71
-61.29
-74.41
-76.77
-70.30
-58.04
-42.93
-27.33
-12.93
-1.11
7.02
11.02
11.62
11.03
12.34
18.35
30.21
46.49
63.32
75.23
76.99
65.47
41.08
8.20
-25.76
-52.43
-65.09
-60.85
-41.64
-13.46
15.75
38.84
51.72
54.14
49.03
40.68
32.90
27.71
25.38
25.04
25.63
26.44
26.96
26.39
23.38
16.31
4.21
-12.35
-30.88
-47.69
-59.24
-63.63
-61.04
-53.35
-42.76
-30.74
-17.53
-2.78
13.45
29.74
43.24
50.59
49.23
38.60
20.52
-1.40
-23.00
-40.75
-52.50
-57.37
-55.39
-47.18
-33.92
-17.49
-0.41
14.62
25.49
31.37
32.92
31.78
29.83
28.37
27.80
27.65
27.03
25.10
21.48
16.34
10.27
4.03
-1.81
-7.06
-11.86
-16.47
-20.85
-24.64
-27.28
-28.46
-28.43
-27.93
-27.68
-27.89
-27.85
-26.29
-22.04
-14.87
-5.74
3.51
11.05
15.95
18.50
19.87
21.28
23.20
25.21
26.39
26.12
24.62
22.85
21.80
21.71
21.79
20.69
17.45
12.24
6.42
1.79
-0.40
-0.24
0.99
1.67
0.74
-1.69
-4.68
-7.11
-8.41
-8.76
-8.88
-9.58
-11.38
-14.38
-18.30
-22.58
-26.39
-28.77
-28.91
-26.48
-22.06
-16.96
-12.89
-11.01
-11.34
-12.66
-13.00
-10.53
-4.26
5.73
18.46
32.25
44.61
52.25
51.62
40.40
19.21
-7.40
-31.92
-46.64
-47.09
-34.18
-13.68
6.64
20.70
26.47
25.83
22.39
18.92
15.92
12.25
6.73
-0.30
-6.77
-10.02
-8.45
-2.57
5.08
11.09
12.87
9.88
3.64
-3.12
-7.85
-9.32
-7.97
-5.43
-3.54
-3.41
-4.88
-6.80
-7.66
-6.41
-2.97
1.72
6.15
8.97
9.65
8.57
6.80
5.50
5.35
6.33
7.89
9.35
10.41
11.21
12.20
13.74
15.80
17.86
19.07
18.63
16.17
11.93
6.64
1.33
-3.12
-6.19
-7.84
-8.45
-8.59
-8.75
-9.22
-10.01
-10.92
-11.70
-12.01
-11.56
-10.10
-7.45
-3.68
0.80
5.31
9.08
11.52
12.49
12.31
11.61
11.00
10.75
10.64
10.08
8.33
4.87
-0.39
-6.96
-13.88
-19.94
-24.11
-25.89
-25.40
-23.30
-20.42
-17.43
-14.77
-12.65
-11.33
-11.22
-12.70
-15.70
-19.30
-21.74
-20.92
-15.39
-5.21
7.71
20.08
28.49
30.80
27.10
19.65
11.75
6.17
3.81
3.40
2.48
-1.08
-7.68
-15.65
-22.17
-24.95
-23.58
-19.67
-15.64
-13.02
-11.35
-8.60
-2.64
7.10
18.94
29.74
36.70
38.91
37.71
35.51
33.93
32.63
29.54
22.61
11.68
-0.70
-10.21
-13.05
-8.08
2.19
12.63
17.84
14.64
3.45
-12.10
-26.93
-36.60
-38.80
-33.68
-23.21
-10.09
3.26
15.21
24.88
31.84
35.94
37.20
35.96
33.11
30.14
28.98
31.43
38.11
47.63
56.40
59.56
52.89
35.01
8.46
-20.93
-46.19
-61.79
-65.43
-57.95
-42.12
-21.06
2.69
26.92
49.00
65.98
75.42
76.73
71.78
63.87
55.54
46.68
34.54
15.80
-10.45
-41.06
-69.55
-89.15
-96.21
-91.91
-81.27
-70.28
-62.89
-59.57
-58.26
-56.49
-53.22
-49.01
-44.92
-40.96
-35.66
-26.79
-12.93
5.33
25.48
44.01
57.62
64.29
63.50
56.03
43.75
29.34
15.73
5.26
-1.28
-5.24
-9.44
-16.70
-28.16
-42.52
-56.83
-68.33
-75.98
-80.52
-83.02
-83.12
-78.20
-64.75
-40.71
-7.46
29.91
64.24
88.92
100.00
97.06
82.66
61.06
36.95
14.52
-2.93
-13.35
-16.21
-12.71
-5.60
1.59
5.75
5.19
0.07
-7.97
-16.78
-24.78
-31.33
-36.21
-38.83
-37.75
-31.03
-17.78
0.64
20.60
37.69
48.77
53.30
53.05
50.56
47.47
43.72
38.03
28.97
15.97
-0.47
-19.12
-38.46
-56.87
-72.83
-85.22
-93.68
-98.68
-100.83
-99.92
-94.42
-82.12
-61.57
-33.72
-2.10
28.34
53.30
70.48
79.72
81.86
77.69
67.58
52.28
33.84
15.78
1.93
-5.24
-6.02
-3.29
-0.92
-1.68
-5.93
-11.70
-16.05
-16.65
-12.79
-5.37
3.90
13.35
21.89
29.05
34.85
39.51
43.25
46.05
47.41
46.32
41.66
32.96
21.23
8.98
-0.69
-5.64
-5.92
-3.82
-2.70
-5.09
-11.53
-20.59
-30.00
-38.23
-45.04
-50.96
-56.00
-58.73
-56.51
-46.85
-29.04
-5.03
21.04
44.41
61.43
70.54
72.15
67.69
58.60
45.86
30.34
13.43
-2.58
-14.96
-21.62
-22.31
-19.07
-15.45
-14.76
-18.33
-24.76
-30.64
-32.44
-28.52
-20.01
-10.15
-2.30
1.94
3.55
5.19
9.42
17.02
26.50
34.85
39.02
37.33
30.15
19.72
9.15
1.23
-2.77
-3.50
-3.24
-4.64
-9.46
-17.69
-27.80
-37.86
-46.81
-54.93
-63.21
-71.87
-79.26
-82.01
-76.56
-61.03
-36.47
-6.52
24.15
51.51
73.00
87.20
93.01
89.46
76.25
54.86
29.11
4.40
-14.13
-23.56
-24.35
-19.78
-14.25
-11.17
-11.69
-14.63
-17.66
-18.73
-17.19
-14.03
-11.17
-10.24
-11.52
-13.43
-13.18
-8.28
2.06
16.30
31.20
43.24
50.04
50.97
46.97
39.71
30.87
21.63
12.51
3.38
-6.36
-17.38
-29.74
-42.39
-53.27
-60.17
-62.08
-60.10
-57.14
-56.11
-57.87
-60.08
-58.04
-47.24
-26.00
3.37
35.47
64.08
84.37
94.08
93.25
83.40
66.75
45.90
23.86
3.79
-11.50
-20.29
-22.46
-19.43
-13.59
-7.41
-2.86
-1.10
-2.35
-6.13
-11.49
-17.38
-22.78
-26.70
-28.04
-25.57
-18.32
-6.38
8.76
24.42
37.72
46.70
51.03
51.68
50.05
47.08
42.99
37.54
30.45
21.60
10.87
-1.92
-16.69
-32.58
-47.68
-59.48
-66.03
-67.23
-65.02
-62.36
-61.19
-61.00
-58.66
-50.05
-32.34
-5.67
26.73
59.65
87.65
106.19
112.22
104.41
83.40
52.22
16.22
-17.80
-43.41
-56.64
-57.22
-48.49
-35.77
-24.20
-16.96
-14.74
-16.18
-19.21
-22.13
-24.35
-26.32
-28.98
-32.69
-36.45
-37.74
-33.49
-21.64
-2.52
20.80
43.63
61.47
71.64
73.77
69.20
59.77
47.07
32.37
16.97
2.51
-9.39
-17.77
-22.92
-26.24
-29.64
-34.72
-42.31
-52.33
-63.92
-75.38
-84.01
-86.28
-78.70
-59.17
-28.12
11.04
52.49
89.24
114.80
124.67
117.60
96.08
65.76
33.88
6.94
-11.18
-20.06
-22.04
-20.51
-18.15
-16.15
-14.42
-12.52
-10.44
-8.65
-7.63
-7.30
-7.17
-6.88
-6.49
-6.39
-6.64
-6.48
-4.35
1.30
10.89
23.24
35.73
45.43
50.19
49.37
43.72
34.75
23.93
12.21
-0.07
-12.72
-25.34
-37.02
-46.41
-52.17
-53.59
-51.11
-46.58
-42.73
-42.14
-45.90
-52.69
-58.91
-59.99
-52.32
-34.97
-10.15
17.67
43.62
64.00
76.97
82.15
79.68
69.74
52.77
30.34
5.71
-16.58
-32.07
-38.17
-35.26
-26.53
-16.51
-9.19
-6.63
-8.55
-13.02
-17.72
-21.05
-22.78
-23.77
-25.13
-27.13
-28.56
-26.97
-19.95
-6.58
11.66
31.16
47.72
58.31
62.12
60.35
55.08
48.08
40.23
31.84
23.26
15.35
9.13
5.03
2.29
-0.89
-6.60
-16.10
-29.19
-44.21
-58.63
-69.75
-75.21
-73.26
-62.99
-44.73
-20.38
6.51
31.35
49.76
58.94
58.76
51.66
41.56
32.19
25.69
22.12
20.05
17.69
13.89
8.52
2.15
-4.56
-11.20
-17.55
-23.39
-28.20
-31.34
-32.36
-31.38
-29.08
-26.25
-23.27
-19.71
-14.59
-6.98
3.20
14.89
26.27
35.51
41.65
44.80
45.88
45.79
44.92
43.20
40.44
36.81
32.85
28.87
24.43
18.30
9.25
-2.80
-16.32
-28.60
-37.19
-41.34
-42.29
-42.25
-42.59
-42.51
-39.15
-29.11
-10.49
15.78
45.95
74.70
96.60
107.29
104.13
86.69
57.15
20.43
-16.59
-46.87
-65.43
-71.10
-66.77
-57.87
-49.85
-46.00
-46.66
-49.90
-53.14
-54.61
-53.93
-51.81
-49.26
-46.95
-44.92
-42.72
-39.50
-34.23
-25.98
-14.22
0.78
17.78
34.76
49.51
60.12
65.69
66.37
63.20
57.79
51.78
46.21
41.03
34.98
26.16
13.20
-3.58
-21.86
-38.09
-49.23
-54.42
-55.47
-55.68
-57.68
-61.47
-64.09
-61.07
-48.92
-27.19
1.14
30.85
56.61
74.69
83.67
83.89
76.52
62.95
44.57
23.31
1.78
-16.86
-29.85
-35.78
-35.17
-30.14
-23.49
-17.58
-13.64
-11.66
-10.90
-10.56
-10.18
-9.82
-9.75
-10.15
-10.80
-10.98
-9.74
-6.34
-0.72
6.47
14.02
20.83
26.33
30.56
33.83
36.06
36.55
34.21
28.38
19.53
9.41
0.41
-5.63
-8.22
-8.56
-8.83
-11.18
-16.86
-25.90
-37.30
-49.19
-59.02
-63.61
-59.76
-45.21
-19.90
13.12
47.80
76.57
92.61
92.19
76.08
49.27
19.19
-6.84
-23.95
-30.81
-29.42
-23.50
-16.81
-11.79
-9.27
-8.89
-9.86
-11.55
-13.46
-15.14
-15.95
-15.33
-13.08
-9.55
-5.54
-1.86
1.10
3.42
5.52
7.75
10.20
12.74
15.14
17.18
18.61
18.98
17.73
14.34
8.77
1.63
-5.78
-11.97
-15.81
-17.03
-16.32
-14.98
-14.39
-15.47
-18.44
-22.91
-28.11
-32.94
-35.89
-35.02
-28.24
-14.24
6.38
30.45
52.64
67.20
70.14
60.99
42.97
21.61
2.46
-10.88
-17.49
-18.59
-16.25
-12.29
-7.94
-4.01
-1.16
0.02
-0.78
-3.31
-6.92
-10.75
-14.11
-16.59
-17.81
-17.35
-14.69
-9.51
-2.10
6.46
14.53
20.47
23.30
23.01
20.50
17.06
13.88
11.66
10.48
9.79
8.54
5.43
-0.58
-9.75
-21.32
-33.63
-44.75
-53.38
-59.46
-63.98
-67.96
-71.05
-70.85
-63.57
-46.06
-18.04
16.88
52.20
80.93
98.24
102.74
96.22
82.19
64.33
45.64
28.52
14.84
5.88
1.71
0.87
0.70
-1.45
-6.83
-14.75
-23.13
-29.76
-33.59
-35.11
-35.80
-37.02
-39.05
-40.57
-39.27
-32.97
-20.83
-4.06
14.41
31.16
43.65
51.06
54.10
54.20
52.37
48.75
42.94
34.76
24.73
14.07
4.03
-4.76
-12.56
-20.24
-28.74
-38.51
-49.26
-60.08
-69.62
-76.15
-77.61
-71.91
-57.56
-34.62
-5.44
25.30
51.65
68.14
71.86
63.67
47.92
30.74
17.61
11.17
10.58
12.45
13.00
9.96
3.61
-3.92
-9.90
-12.71
-12.34
-10.36
-8.67
-8.49
-9.72
-11.25
-11.56
-9.75
-5.83
-0.73
4.47
9.11
13.42
18.14
24.04
30.98
37.86
42.74
43.87
40.58
33.78
25.50
18.01
12.39
8.23
3.97
-1.89
-9.74
-18.55
-26.66
-32.91
-37.52
-41.94
-47.80
-55.37
-62.73
-66.13
-61.68
-47.39
-24.55
2.39
27.51
45.81
55.04
56.13
52.41
47.55
44.05
42.63
42.55
42.35
40.35
34.91
24.68
9.25
-10.14
-30.41
-47.39
-57.61
-59.90
-55.91
-49.13
-42.87
-38.63
-35.69
-32.14
-26.48
-18.64
-9.84
-1.55
5.51
11.69
17.92
24.78
31.97
38.31
42.00
41.76
37.30
29.69
20.91
13.03
7.23
3.30
-0.10
-4.42
-10.16
-16.42
-21.47
-23.87
-23.62
-22.23
-21.81
-23.63
-27.06
-29.73
-28.80
-22.60
-11.63
1.57
13.67
22.07
25.86
25.87
23.88
21.53
19.70
18.42
17.33
16.16
14.84
13.29
11.11
7.52
1.87
-5.80
-14.34
-21.72
-25.90
-25.84
-21.97
-16.01
-10.15
-6.06
-4.31
-4.34
-4.96
-4.97
-3.64
-0.79
3.24
7.80
12.21
15.81
18.13
18.93
18.13
15.89
12.63
8.98
5.77
3.75
3.39
4.68
6.99
9.19
10.08
8.77
5.12
-0.21
-6.00
-11.14
-15.21
-18.73
-22.87
-28.60
-35.71
-42.38
-45.57
-42.37
-31.57
-14.64
4.54
21.12
31.24
33.45
28.89
20.45
11.15
3.02
-3.35
-8.26
-12.16
-15.11
-16.79
-16.94
-15.76
-14.01
-12.59
-12.16
-12.81
-14.03
-15.04
-15.08
-13.79
-11.22
-7.80
-4.21
-1.10
1.11
2.45
3.49
5.15
8.37
13.57
20.34
27.35
32.73
34.75
32.52
26.34
17.66
8.54
0.97
-3.82
-5.64
-5.22
-3.80
-2.54
-2.15
-2.70
-3.95
-5.71
-8.08
-11.42
-15.87
-20.87
-25.02
-26.35
-23.23
-15.23
-3.55
9.29
20.44
27.78
30.68
29.83
26.55
21.96
16.55
10.38
3.69
-2.75
-7.70
-10.09
-9.67
-7.27
-4.42
-2.58
-2.45
-3.78
-5.76
-7.57
-8.77
-9.40
-9.68
-9.71
-9.41
-8.54
-6.85
-4.18
-0.43
4.32
9.82
15.63
21.26
26.23
30.20
32.84
33.75
32.39
28.31
21.56
12.97
4.13
-3.12
-7.46
-8.70
-7.74
-6.12
-5.16
-5.52
-7.19
-9.97
-13.82
-18.81
-24.70
-30.49
-34.41
-34.57
-29.88
-20.82
-9.41
1.53
9.60
13.64
13.95
11.78
8.55
5.26
2.44
0.33
-0.88
-0.99
-0.02
1.62
3.09
3.45
2.12
-0.77
-4.45
-7.89
-10.37
-11.78
-12.60
-13.51
-14.83
-16.25
-16.86
-15.54
-11.53
-4.85
3.58
12.28
19.73
24.99
27.98
29.35
30.06
30.59
30.66
29.25
25.30
18.49
9.66
0.52
-7.11
-12.24
-14.93
-15.98
-16.13
-15.60
-14.31
-12.41
-10.77
-10.78
-13.50
-18.66
-24.33
-27.65
-26.30
-19.70
-9.37
1.88
11.34
17.52
20.47
21.22
20.75
19.41
16.91
12.87
7.42
1.50
-3.50
-6.41
-6.93
-5.73
-4.11
-3.20
-3.44
-4.52
-5.75
-6.71
-7.57
-8.99
-11.46
-14.79
-17.86
-19.03
-16.87
-10.90
-1.91
8.33
17.74
24.66
28.39
29.13
27.80
25.47
22.93
20.50
18.06
15.35
12.22
8.85
5.54
2.52
-0.25
-3.04
-6.10
-9.41
-12.75
-15.83
-18.56
-21.18
-23.91
-26.57
-28.29
-27.80
-24.06
-17.01
-7.81
1.59
9.18
13.76
15.22
14.31
12.10
9.44
6.75
4.19
1.91
0.20
-0.53
-0.09
1.28
2.85
3.68
3.08
0.97
-2.09
-5.18
-7.52
-8.87
-9.57
-10.20
-11.05
-11.77
-11.50
-9.27
-4.60
2.09
9.60
16.41
21.35
23.98
24.70
24.37
23.82
23.30
22.45
20.51
16.95
11.94
6.39
1.53
-1.82
-3.68
-4.88
-6.37
-8.48
-10.72
-12.16
-12.26
-11.47
-11.12
-12.55
-16.01
-20.20
-22.80
-21.66
-16.10
-7.33
2.17
9.83
14.12
14.94
13.30
10.52
7.48
4.46
1.36
-1.85
-4.81
-6.82
-7.28
-6.18
-4.27
-2.74
-2.61
-4.21
-6.98
-9.83
-11.82
-12.61
-12.57
-12.34
-12.27
-12.05
-10.81
-7.57
-1.89
5.78
14.17
21.62
26.65
28.55
27.58
24.78
21.56
18.98
17.41
16.39
15.09
12.86
9.58
5.70
1.83
-1.58
-4.38
-6.60
-8.23
-9.20
-9.60
-9.83
-10.59
-12.45
-15.41
-18.57
-20.46
-19.70
-15.81
-9.46
-2.23
4.20
8.71
11.03
11.55
10.91
9.59
7.75
5.41
2.65
-0.17
-2.52
-3.97
-4.43
-4.27
-4.17
-4.70
-5.99
-7.62
-8.93
-9.40
-9.02
-8.28
-7.82
-7.98
-8.53
-8.74
-7.75
-4.96
-0.34
5.55
11.79
17.39
21.57
23.91
24.41
23.34
21.11
18.04
14.34
10.22
6.08
2.59
0.48
0.14
1.24
2.74
3.39
2.35
-0.31
-3.68
-6.70
-8.83
-10.47
-12.54
-15.67
-19.48
-22.43
-22.63
-18.97
-11.86
-3.28
4.11
8.27
8.63
6.12
2.49
-0.77
-3.07
-4.69
-6.23
-7.85
-9.03
-8.96
-7.12
-3.89
-0.45
1.79
2.02
0.41
-1.97
-3.78
-4.16
-3.08
-1.20
0.58
1.65
1.89
1.64
1.50
2.12
4.00
7.29
11.70
16.48
20.54
22.83
22.84
20.76
17.46
14.03
11.33
9.69
9.03
9.15
9.85
10.84
11.48
10.69
7.41
1.28
-6.76
-14.69
-20.29
-22.27
-21.03
-18.30
-16.04
-15.25
-15.34
-14.64
-11.55
-5.57
2.31
10.12
15.95
18.76
18.62
16.31
12.94
9.42
6.37
4.37
4.01
5.70
9.27
13.50
16.24
15.14
8.76
-2.41
-15.83
-27.89
-35.51
-37.53
-35.06
-30.66
-26.82
-24.65
-23.62
-22.23
-19.10
-13.80
-6.83
0.93
8.86
16.83
24.81
32.36
38.37
41.09
38.97
31.43
19.37
5.08
-8.47
-18.70
-24.37
-25.94
-25.03
-23.48
-22.40
-21.81
-20.99
-19.21
-16.33
-12.95
-10.10
-8.70
-9.17
-11.29
-14.29
-17.03
-18.18
-16.66
-11.96
-4.56
4.16
12.31
18.23
21.16
21.38
19.87
17.72
15.65
13.99
12.80
12.11
11.93
12.08
12.08
11.41
9.85
7.76
6.04
5.52
6.44
8.11
9.22
8.55
5.86
2.11
-0.85
-1.13
2.19
8.58
16.16
22.42
25.24
23.65
18.15
10.35
2.16
-4.90
-10.17
-13.65
-15.63
-16.29
-15.69
-14.12
-12.35
-11.60
-13.04
-17.18
-23.27
-29.46
-33.36
-33.13
-28.39
-20.56
-12.38
-6.76
-5.34
-7.75
-11.71
-14.26
-13.26
-8.55
-1.81
4.52
8.88
11.51
14.07
18.47
25.39
33.82
41.74
47.35
49.59
47.82
41.09
28.29
9.29
-13.61
-35.35
-49.66
-51.91
-41.67
-23.29
-3.98
9.70
14.56
11.60
4.39
-3.21
-8.90
-12.11
-13.22
-12.58
-10.22
-6.20
-0.99
4.54
9.37
12.56
13.51
11.98
8.26
3.15
-2.01
-5.61
-6.37
-3.92
0.95
6.54
10.91
12.64
11.39
7.92
3.71
0.30
-1.44
-1.67
-1.36
-1.77
-3.66
-6.90
-10.46
-13.07
-13.89
-12.96
-11.05
-9.07
-7.41
-5.73
-3.26
0.41
4.87
8.88
10.87
9.80
5.68
-0.28
-6.17
-10.13
-11.06
-9.04
-5.26
-1.56
0.36
-0.30
-3.11
-6.71
-9.50
-10.48
-9.80
-8.60
-8.47
-10.51
-14.79
-20.17
-24.83
-26.98
-25.61
-20.95
-14.40
-7.93
-3.40
-1.97
-3.58
-7.22
-11.35
-14.34
-15.17
-14.05
-12.97
-15.62
-26.32
-47.78
-78.97
-114.17
-143.97
-158.42
-150.69
-119.74
-70.66
-12.83
43.13
88.14
116.59
126.99
121.86
106.81
88.89
74.59
67.77
68.76
74.90
82.61
89.31
94.17
97.70
100.18
100.83
98.14
91.32
81.72
73.22
70.82
78.22
95.53
118.45
139.39
149.99
143.82
118.15
74.66
19.02
-40.12
-92.67
-129.21
-143.57
-134.85
-108.11
-72.89
-39.95
-17.56
-8.99
-12.34
-22.49
-33.91
-42.74
-47.40
-47.87
-44.65
-38.37
-29.87
-20.50
-12.10
-6.40
-4.42
-5.89
-9.35
-12.82
-14.60
-13.80
-10.66
-6.33
-2.32
0.03
0.30
-0.72
-1.08
1.67
9.52
22.99
40.60
59.43
76.39
89.70
99.49
107.53
115.43
123.21
128.59
127.56
116.11
91.99
55.91
11.62
-35.10
-77.85
-111.04
-131.03
-136.80
-129.86
-113.78
-93.07
-71.83
-52.89
-37.48
-25.75
-17.45
-12.46
-10.58
-11.16
-12.83
-13.62
-11.73
-6.32
2.26
12.60
22.58
30.23
33.70
31.65
23.38
9.28
-8.83
-27.92
-44.47
-55.56
-59.74
-57.38
-50.10
-40.01
-29.31
-20.18
-14.91
-15.66
-23.75
-38.71
-57.79
-76.40
-89.46
-93.17
-86.15
-69.78
-47.61
-24.04
-3.10
12.42
21.42
24.36
22.95
19.41
15.79
13.39
12.44
12.33
12.08
10.87
8.42
5.05
1.39
-1.93
-4.50
-6.04
-6.37
-5.42
-3.34
-0.60
2.06
3.91
4.53
4.07
3.11
2.40
2.52
3.66
5.58
7.72
9.38
9.95
9.17
7.41
5.86
6.28
10.42
19.14
31.68
45.72
58.14
66.29
69.03
67.04
62.30
56.98
52.38
48.60
44.89
40.41
35.01
29.48
25.14
22.95
22.56
22.00
18.22
8.70
-6.95
-26.06
-43.67
-54.72
-56.56
-50.34
-40.36
-31.64
-27.30
-27.19
-28.65
-28.76
-26.42
-23.06
-21.44
-23.62
-29.36
-36.16
-40.68
-40.77
-36.59
-30.55
-25.86
-24.90
-28.09
-33.83
-39.50
-42.78
-42.84
-40.54
-37.89
-36.85
-38.22
-41.24
-43.97
-44.29
-40.97
-34.20
-25.53
-17.08
-10.66
-6.99
-5.70
-5.66
-5.77
-5.53
-5.06
-4.57
-3.70
-1.29
4.02
12.60
23.01
32.13
36.83
35.94
31.31
26.93
26.45
30.55
36.25
38.70
34.52
24.29
12.60
5.33
5.98
13.51
23.00
28.74
27.53
20.32
11.21
4.82
3.63
6.97
11.85
14.93
14.38
10.62
5.81
2.46
2.05
4.29
7.42
9.16
8.05
4.18
-0.88
-4.94
-6.43
-5.18
-2.55
-0.66
-1.33
-5.12
-11.12
-17.34
-21.53
-22.19
-19.02
-12.95
-5.61
1.42
7.13
11.25
14.00
15.65
16.24
15.65
13.86
11.27
8.76
7.37
7.77
9.81
12.47
14.33
14.20
11.88
8.16
4.57
2.56
2.82
4.93
7.68
9.73
10.34
9.68
8.69
8.46
9.60
11.92
14.58
16.52
16.92
15.37
11.86
6.65
0.20
-6.75
-13.19
-18.01
-20.45
-20.50
-18.97
-17.21
-16.53
-17.54
-19.99
-22.75
-24.28
-23.09
-18.24
-9.68
1.47
12.96
21.99
26.16
24.40
17.56
8.04
-1.22
-8.07
-11.90
-13.44
-13.98
-14.24
-14.08
-12.67
-9.46
-4.85
-0.32
2.19
1.31
-2.92
-8.91
-14.06
-15.80
-12.73
-5.17
4.84
14.37
20.67
22.21
19.19
13.15
6.20
-0.09
-5.12
-9.16
-12.58
-15.17
-15.98
-13.86
-8.44
-0.84
6.56
11.09
11.17
7.23
1.51
-3.11
-4.56
-2.64
1.05
4.10
4.66
2.34
-1.68
-5.46
-7.34
-6.76
-4.29
-1.14
1.53
3.15
3.67
3.16
1.43
-1.97
-7.28
-13.93
-20.20
-23.69
-22.38
-15.78
-5.61
4.66
11.20
11.61
6.04
-2.90
-11.34
-15.98
-15.42
-10.52
-3.53
3.23
8.43
12.03
14.73
17.01
18.57
18.42
15.60
10.01
2.77
-4.16
-8.83
-10.18
-8.38
-4.62
-0.43
2.94
4.82
5.05
3.66
0.77
-3.47
-8.59
-13.67
-17.43
-18.47
-15.77
-9.11
0.57
11.19
20.01
24.48
23.21
16.69
7.24
-1.83
-7.58
-8.60
-5.48
-0.37
4.27
6.77
6.93
5.73
4.51
4.11
4.32
4.16
2.51
-1.05
-5.86
-10.31
-12.58
-11.59
-7.65
-2.35
2.14
4.24
3.76
2.05
1.25
3.12
8.20
15.63
23.66
30.43
34.49
34.81
30.64
21.60
8.01
-8.67
-25.62
-39.25
-46.22
-44.76
-35.44
-21.17
-6.29
4.83
9.21
6.23
-2.28
-12.68
-20.94
-23.96
-20.64
-12.03
-0.66
10.57
19.45
24.80
26.37
24.38
19.18
11.36
1.91
-7.53
-14.97
-18.64
-17.72
-12.83
-5.82
0.85
5.15
6.20
4.58
1.90
-0.13
-0.56
0.32
1.26
0.80
-1.86
-6.23
-10.81
-13.74
-13.76
-10.82
-6.04
-1.19
2.14
3.09
1.76
-1.07
-4.37
-7.30
-9.39
-10.51
-10.55
-9.33
-6.55
-2.08
3.73
9.80
14.64
16.83
15.79
12.23
7.86
4.64
3.70
4.72
6.19
6.27
4.03
0.02
-3.88
-5.56
-3.92
0.43
5.35
8.27
7.50
3.12
-3.16
-8.78
-11.63
-10.86
-7.06
-1.75
3.40
7.32
9.60
10.30
9.56
7.34
3.62
-1.22
-6.10
-9.37
-9.35
-5.23
2.41
11.51
19.28
23.21
22.12
16.61
8.71
0.99
-4.57
-7.22
-7.56
-6.77
-5.85
-4.95
-3.50
-0.95
2.43
5.30
5.80
2.66
-3.80
-11.48
-17.39
-19.01
-15.62
-8.58
-0.58
5.67
8.60
8.24
5.83
2.93
0.63
-0.87
-2.01
-3.37
-5.11
-6.76
-7.44
-6.43
-3.75
-0.31
2.37
2.92
0.87
-3.00
-7.00
-9.34
-9.08
-6.62
-3.42
-1.25
-1.09
-2.70
-4.69
-5.41
-3.88
-0.41
3.64
6.60
7.57
6.95
6.19
6.88
9.67
13.67
16.68
16.35
11.47
2.88
-6.73
-13.94
-16.14
-12.85
-5.84
1.75
6.99
8.45
6.61
3.31
0.57
-0.55
-0.18
0.77
1.51
2.05
3.19
5.85
10.24
15.41
19.52
20.78
18.36
12.96
6.42
0.83
-2.54
-3.75
-3.97
-4.60
-6.34
-8.72
-10.44
-10.28
-8.06
-4.96
-3.07
-4.23
-8.91
-15.76
-22.11
-25.14
-23.27
-16.92
-8.28
-0.27
4.78
6.09
4.53
1.91
-0.02
-0.48
0.23
1.12
1.32
0.66
-0.22
-0.38
0.77
2.99
5.20
6.16
5.12
2.37
-0.89
-3.18
-3.53
-1.97
0.44
2.31
2.73
1.77
0.41
-0.16
0.53
1.69
1.62
-1.33
-7.39
-14.78
-20.19
-20.40
-14.15
-3.17
8.34
15.56
15.44
8.13
-3.20
-13.96
-20.35
-20.88
-16.54
-9.72
-2.74
3.20
8.12
12.58
16.76
20.00
21.01
18.65
12.79
4.73
-3.13
-8.28
-9.17
-5.94
-0.25
5.57
9.59
11.10
10.63
9.37
8.28
7.52
6.46
4.33
0.91
-2.98
-5.74
-5.87
-2.82
2.44
7.83
11.09
10.95
7.70
2.92
-1.41
-3.94
-4.54
-4.02
-3.38
-2.99
-2.35
-0.51
3.17
8.26
13.19
15.84
14.55
9.05
0.78
-7.64
-13.56
-15.49
-13.80
-10.39
-7.67
-7.21
-9.00
-11.48
-12.56
-10.81
-6.42
-1.11
2.74
3.35
0.51
-4.27
-8.63
-10.60
-9.62
-6.73
-3.85
-2.56
-3.13
-4.47
-4.91
-3.35
-0.08
3.39
5.25
4.57
2.00
-0.58
-1.07
1.58
6.73
12.33
16.00
16.26
13.38
9.06
5.51
4.17
4.88
6.17
6.14
3.83
-0.15
-3.94
-5.53
-4.08
-0.49
3.05
4.39
2.64
-1.27
-5.23
-7.21
-6.41
-3.61
-0.66
0.76
0.10
-1.81
-3.37
-3.26
-1.28
1.44
3.19
2.61
-0.46
-4.88
-8.80
-10.64
-9.84
-7.20
-4.29
-2.73
-3.35
-5.78
-8.79
-10.92
-11.30
-10.15
-8.59
-8.01
-9.19
-11.75
-14.34
-15.37
-13.92
-10.39
-6.23
-3.11
-1.94
-2.35
-2.99
-2.34
0.38
4.71
9.33
12.71
13.96
13.18
11.25
9.29
8.05
7.60
7.52
7.29
6.75
6.17
6.06
6.73
7.99
9.23
9.74
9.24
8.09
7.15
7.32
8.97
11.68
14.41
16.03
15.97
14.48
12.49
11.11
10.96
11.81
12.62
12.11
9.43
4.71
-0.97
-6.03
-9.13
-9.85
-8.85
-7.36
-6.59
-7.05
-8.33
-9.50
-9.73
-8.91
-7.78
-7.63
-9.51
-13.52
-18.54
-22.57
-23.73
-21.25
-16.02
-10.24
-6.29
-5.36
-6.84
-8.56
-8.12
-4.30
2.16
9.00
13.66
14.72
12.51
8.80
5.60
4.13
4.25
4.88
4.80
3.50
1.46
-0.23
-0.56
0.73
2.95
4.87
5.42
4.25
2.01
-0.04
-0.80
0.06
1.80
3.02
2.49
-0.12
-3.90
-7.12
-8.13
-6.26
-2.22
2.27
5.39
6.28
5.39
4.19
4.15
5.73
8.02
9.37
8.41
5.11
0.94
-1.89
-1.78
1.22
5.34
8.01
7.40
3.42
-2.17
-6.82
-8.61
-7.30
-4.32
-1.78
-1.21
-2.59
-4.56
-5.26
-3.57
0.13
4.18
6.60
6.19
3.30
-0.42
-2.97
-3.03
-0.76
2.42
4.67
4.77
2.84
0.14
-1.69
-1.68
-0.08
1.80
2.48
1.19
-1.58
-4.39
-5.70
-4.70
-1.86
1.38
3.39
3.20
0.95
-2.23
-4.90
-5.97
-5.25
-3.40
-1.54
-0.58
-0.74
-1.44
-1.69
-0.65
1.82
5.00
7.72
8.95
8.44
6.74
4.93
3.92
3.96
4.58
4.95
4.47
3.16
1.67
0.84
1.18
2.54
4.13
4.97
4.40
2.46
-0.07
-2.17
-3.04
-2.60
-1.46
-0.54
-0.52
-1.43
-2.66
-3.38
-3.10
-1.95
-0.66
-0.08
-0.60
-1.98
-3.44
-4.16
-3.78
-2.60
-1.40
-0.93
-1.53
-2.87
-4.20
-4.78
-4.33
-3.13
-1.93
-1.48
-2.18
-3.87
-5.91
-7.57
-8.29
-7.95
-6.84
-5.43
-4.10
-3.03
-2.12
-1.20
-0.20
0.75
1.33
1.28
0.58
-0.47
-1.33
-1.53
-0.85
0.47
1.89
2.77
2.75
1.88
0.62
-0.42
-0.83
-0.55
0.06
0.55
0.57
0.16
-0.34
-0.55
-0.31
0.16
0.40
0.02
-1.00
-2.27
-3.18
-3.32
-2.78
-2.10
-2.03
-3.01
-4.88
-6.93
-8.31
-8.56
-7.95
-7.44
-8.14
-10.70
-14.81
-19.32
-22.74
-24.05
-23.30
-21.70
-21.10
-23.15
-28.40
-35.95
-43.95
-50.33
-53.92
-54.92
-54.64
-54.82
-56.82
-61.56
-69.74
-81.91
-97.87
-115.82
-131.89
-141.09
-139.50
-126.46
-105.23
-81.49
-60.48
-44.44
-32.07
-20.09
-5.82
11.08
28.81
45.05
58.79
70.88
83.02
95.98
108.60
118.17
121.69
117.79
107.53
94.08
81.41
72.59
68.66
68.54
69.85
70.19
68.20
63.78
57.72
51.05
44.55
38.74
33.98
30.61
28.78
28.27
28.37
28.13
26.77
24.09
20.50
16.72
13.35
10.51
7.97
5.36
2.68
0.34
-0.94
-0.62
1.31
4.19
6.99
8.81
9.28
8.71
7.79
7.16
6.96
6.75
5.80
3.59
0.21
-3.58
-6.67
-8.13
-7.69
-5.91
-3.82
-2.40
-2.04
-2.28
-2.10
-0.44
3.19
8.42
14.14
19.14
22.60
24.52
25.58
26.69
28.47
30.96
33.72
36.04
37.07
35.98
32.12
25.19
15.46
3.92
-8.00
-18.73
-27.18
-32.89
-36.06
-37.14
-36.57
-34.69
-31.82
-28.51
-25.45
-23.23
-22.01
-21.44
-20.81
-19.56
-17.54
-14.98
-12.35
-9.99
-7.89
-5.78
-3.39
-0.69
1.96
4.06
5.22
5.42
5.07
4.70
4.67
4.86
4.74
3.75
1.72
-0.90
-3.23
-4.37
-3.91
-2.16
-0.06
1.40
1.63
0.77
-0.49
-1.33
-1.30
-0.51
0.44
0.90
0.56
-0.36
-1.25
-1.47
-0.78
0.52
1.66
1.95
1.13
-0.39
-1.75
-2.11
-1.09
0.95
3.10
4.43
4.47
3.49
2.30
1.78
2.33
3.66
4.94
5.31
4.40
2.54
0.60
-0.50
-0.34
0.81
2.13
2.72
2.13
0.65
-0.91
-1.67
-1.14
0.48
2.37
3.60
3.61
2.48
0.95
-0.08
-0.05
0.94
2.17
2.77
2.20
0.63
-1.19
-2.33
-2.25
-1.13
0.33
1.26
1.21
0.37
-0.58
-0.91
-0.31
0.90
1.99
2.24
1.39
-0.23
-1.85
-2.68
-2.40
-1.24
0.07
0.80
0.57
-0.42
-1.52
-2.02
-1.55
-0.33
0.94
1.48
0.92
-0.49
-2.00
-2.74
-2.26
-0.80
0.88
1.84
1.58
0.26
-1.36
-2.36
-2.21
-1.03
0.46
1.39
1.25
0.16
-1.22
-2.04
-1.82
-0.65
0.79
1.67
1.51
0.45
-0.80
-1.38
-0.80
0.77
2.56
3.67
3.53
2.30
0.70
-0.36
-0.33
0.63
1.82
2.41
1.94
0.63
-0.77
-1.45
-1.04
0.17
1.37
1.73
0.90
-0.76
-2.39
-3.11
-2.55
-1.05
0.58
1.48
1.25
0.16
-1.04
-1.58
-1.13
0.01
1.10
1.45
0.77
-0.57
-1.82
-2.24
-1.56
-0.15
1.21
1.72
1.08
-0.40
-1.89
-2.59
-2.12
-0.77
0.72
1.53
1.29
0.30
-0.75
-1.14
-0.56
0.65
1.80
2.23
1.72
0.59
-0.47
-0.87
-0.39
0.64
1.56
1.77
1.06
-0.24
-1.46
-1.93
-1.39
-0.15
1.09
1.58
0.98
-0.44
-1.92
-2.64
-2.18
-0.77
0.83
1.79
1.65
0.57
-0.72
-1.46
-1.25
-0.27
0.82
1.28
0.81
-0.36
-1.55
-2.04
-1.51
-0.23
1.09
1.65
1.11
-0.28
-1.75
-2.43
-1.86
-0.29
1.45
2.39
1.99
0.50
-1.17
-1.99
-1.43
0.23
2.05
3.00
2.54
0.96
-0.83
-1.84
-1.59
-0.33
1.13
1.92
1.59
0.40
-0.91
-1.58
-1.25
-0.17
0.96
1.39
0.81
-0.53
-1.91
-2.61
-2.28
-1.15
0.10
0.75
0.45
-0.58
-1.72
-2.25
-1.82
-0.62
0.74
1.57
1.48
0.65
-0.31
-0.71
-0.20
1.00
2.22
2.73
2.19
0.83
-0.61
-1.37
-1.11
-0.10
0.93
1.25
0.58
-0.73
-1.86
-2.07
-1.10
0.62
2.19
2.76
2.02
0.36
-1.29
-2.06
-1.56
-0.14
1.35
2.09
1.71
0.55
-0.60
-0.97
-0.28
1.07
2.27
2.53
1.59
-0.11
-1.68
-2.24
-1.46
0.25
1.98
2.85
2.49
1.29
0.09
-0.29
0.40
1.74
2.83
2.93
1.84
0.08
-1.43
-1.90
-1.10
0.50
2.02
2.67
2.14
0.79
-0.57
-1.15
-0.67
0.57
1.77
2.18
1.50
0.08
-1.28
-1.81
-1.21
0.13
1.39
1.77
0.92
-0.80
-2.60
-3.63
-3.53
-2.52
-1.33
-0.72
-1.08
-2.23
-3.51
-4.23
-4.03
-3.09
-2.03
-1.53
-1.87
-2.78
-3.54
-3.39
-2.06
0.11
2.26
3.47
3.26
1.86
0.11
-1.06
-1.11
-0.19
0.99
1.61
1.23
0.06
-1.17
-1.70
-1.18
0.14
1.49
2.15
1.80
0.73
-0.30
-0.57
0.18
1.55
2.69
2.78
1.53
-0.61
-2.67
-3.65
-3.11
-1.40
0.50
1.55
1.15
-0.47
-2.47
-3.89
-4.21
-3.57
-2.63
-2.12
-2.35
-3.05
-3.54
-3.20
-1.93
-0.17
1.25
1.64
0.84
-0.69
-2.11
-2.69
-2.25
-1.17
-0.25
-0.16
-1.05
-2.50
-3.71
-4.00
-3.19
-1.67
-0.18
0.61
0.52
-0.04
-0.37
0.16
1.69
3.79
5.67
6.63
6.44
5.46
4.46
4.10
4.62
5.67
6.51
6.51
5.53
4.01
2.77
2.44
3.18
4.46
5.37
5.13
3.51
1.00
-1.48
-3.05
-3.29
-2.46
-1.25
-0.42
-0.33
-0.80
-1.25
-1.12
-0.16
1.30
2.61
3.12
2.58
1.29
-0.04
-0.71
-0.46
0.43
1.21
1.18
0.06
-1.80
-3.59
-4.50
-4.14
-2.75
-1.08
0.02
0.14
-0.59
-1.51
-1.94
-1.52
-0.46
0.60
1.00
0.44
-0.78
-1.99
-2.47
-1.95
-0.70
0.56
1.14
0.76
-0.29
-1.30
-1.62
-1.01
0.19
1.27
1.56
0.84
-0.52
-1.76
-2.15
-1.43
0.06
1.53
2.18
1.65
0.23
-1.32
-2.18
-1.95
-0.83
0.47
1.17
0.87
-0.23
-1.46
-2.07
-1.73
-0.68
0.37
0.67
-0.06
-1.48
-2.77
-3.08
-2.07
-0.10
1.95
3.13
3.01
1.84
0.43
-0.32
0.01
1.19
2.48
3.08
2.63
1.43
0.20
-0.34
0.04
0.97
1.71
1.61
0.51
-1.09
-2.38
-2.69
-1.89
-0.47
0.71
0.94
0.06
-1.46
-2.76
-3.09
-2.24
-0.62
0.93
1.68
1.36
0.36
-0.55
-0.65
0.25
1.69
2.82
2.89
1.73
-0.14
-1.80
-2.41
-1.75
-0.24
1.21
1.79
1.20
-0.19
-1.57
-2.17
-1.67
-0.40
0.86
1.35
0.75
-0.64
-2.07
-2.77
-2.40
-1.23
-0.00
0.56
0.13
-1.01
-2.12
-2.47
-1.75
-0.29
1.13
1.73
1.16
-0.26
-1.74
-2.43
-1.94
-0.54
1.00
1.84
1.58
0.52
-0.60
-1.00
-0.35
0.99
2.23
2.60
1.84
0.37
-0.97
-1.38
-0.61
0.94
2.41
2.97
2.27
0.66
-1.06
-2.05
-1.93
-0.96
0.12
0.55
0.04
-1.08
-2.01
-2.02
-0.89
0.89
2.37
2.72
1.68
-0.16
-1.78
-2.24
-1.27
0.60
2.29
2.85
1.96
0.11
-1.69
-2.50
-2.00
-0.58
0.86
1.49
1.01
-0.19
-1.31
-1.59
-0.79
0.68
1.97
2.32
1.49
-0.08
-1.53
-2.03
-1.33
0.16
1.58
2.12
1.49
0.12
-1.14
-1.54
-0.84
0.52
1.69
1.93
1.05
-0.52
-1.92
-2.39
-1.71
-0.29
1.03
1.50
0.85
-0.54
-1.88
-2.41
-1.86
-0.56
0.72
1.27
0.82
-0.28
-1.29
-1.54
-0.83
0.45
1.54
1.75
0.92
-0.53
-1.74
-1.98
-1.03
0.67
2.21
2.74
1.98
0.29
-1.45
-2.39
-2.14
-0.98
0.39
1.19
1.10
0.34
-0.44
-0.61
0.06
1.23
2.22
2.39
1.59
0.23
-0.90
-1.10
-0.17
1.40
2.70
2.92
1.85
-0.01
-1.69
-2.35
-1.70
-0.23
1.16
1.62
0.85
-0.71
-2.19
-2.78
-2.23
-0.87
0.48
1.11
0.76
-0.24
-1.16
-1.32
-0.51
0.92
2.20
2.61
1.89
0.43
-1.03
-1.74
-1.40
-0.31
0.79
1.20
0.65
-0.55
-1.67
-2.05
-1.46
-0.24
0.88
1.24
0.64
-0.53
-1.52
-1.67
-0.82
0.60
1.80
2.09
1.29
-0.16
-1.44
-1.85
-1.21
0.04
1.11
1.33
0.53
-0.81
-1.93
-2.16
-1.38
-0.06
1.03
1.21
0.37
-1.03
-2.16
-2.32
-1.36
0.29
1.79
2.42
1.93
0.73
-0.38
-0.72
-0.07
1.14
2.13
2.23
1.30
-0.16
-1.32
-1.52
-0.62
0.86
2.07
2.33
1.54
0.20
-0.87
-1.05
-0.28
0.94
1.80
1.72
0.66
-0.84
-1.98
-2.16
-1.31
0.04
1.09
1.25
0.45
-0.79
-1.64
-1.48
-0.24
1.45
2.68
2.72
1.49
-0.41
-2.00
-2.48
-1.69
-0.17
1.15
1.53
0.81
-0.48
-1.48
-1.50
-0.45
1.13
2.38
2.61
1.69
0.13
-1.24
-1.75
-1.26
-0.23
0.57
0.58
-0.31
-1.59
-2.49
-2.42
-1.34
0.20
1.36
1.47
0.45
-1.15
-2.44
-2.70
-1.81
-0.32
0.90
1.14
0.30
-1.03
-1.97
-1.85
-0.62
1.09
2.33
2.38
1.20
-0.59
-2.01
-2.31
-1.37
0.22
1.55
1.90
1.18
-0.06
-0.97
-0.94
0.02
1.28
2.00
1.68
0.45
-0.97
-1.70
-1.22
0.29
2.02
3.04
2.74
1.27
-0.58
-1.84
-1.86
-0.70
0.94
2.10
2.14
1.06
-0.51
-1.66
-1.76
-0.78
0.70
1.82
1.98
1.15
-0.10
-0.98
-0.91
0.09
1.40
2.14
1.74
0.25
-1.62
-2.94
-3.02
-1.90
-0.23
1.02
1.18
0.20
-1.31
-2.45
-2.57
-1.68
-0.35
0.57
0.54
-0.41
-1.63
-2.31
-1.89
-0.48
1.19
2.25
2.11
0.90
-0.65
-1.61
-1.40
-0.13
1.49
2.57
2.54
1.48
0.03
-1.01
-1.13
-0.43
0.54
1.04
0.72
-0.22
-1.15
-1.33
-0.48
1.12
2.66
3.35
2.78
1.27
-0.37
-1.28
-1.05
0.06
1.29
1.82
1.23
-0.23
-1.83
-2.74
-2.53
-1.38
-0.03
0.69
0.30
-1.03
-2.58
-3.43
-3.05
-1.55
0.31
1.63
1.81
0.90
-0.42
-1.35
-1.39
-0.68
0.18
0.54
0.11
-0.80
-1.51
-1.37
-0.21
1.52
2.97
3.37
2.44
0.61
-1.23
-2.15
-1.72
-0.27
1.37
2.28
2.00
0.79
-0.55
-1.21
-0.81
0.34
1.43
1.70
0.86
-0.70
-2.16
-2.75
-2.16
-0.72
0.78
1.58
1.33
0.30
-0.77
-1.17
-0.55
0.79
2.08
2.56
1.89
0.37
-1.20
-2.02
-1.75
-0.71
0.34
0.65
-0.07
-1.46
-2.71
-3.08
-2.29
-0.72
0.83
1.59
1.24
0.14
-0.92
-1.18
-0.35
1.19
2.61
3.10
2.32
0.69
-0.92
-1.63
-1.08
0.33
1.70
2.14
1.29
-0.41
-1.98
-2.49
-1.59
0.23
1.92
2.48
1.54
-0.39
-2.19
-2.81
-1.88
0.09
2.00
2.84
2.26
0.77
-0.59
-0.85
0.24
2.15
3.79
4.20
3.07
0.98
-0.98
-1.74
-0.83
1.34
3.75
5.26
5.21
3.75
1.70
0.21
0.10
1.53
3.92
6.26
7.62
7.55
6.32
4.71
3.67
3.95
5.88
9.21
13.26
17.14
19.96
21.18
20.80
19.51
18.57
19.34
22.72
28.60
35.71
42.07
45.66
45.38
41.59
36.05
31.59
31.25
37.48
51.21
71.17
93.67
113.03
123.04
119.13
100.79
72.56
42.67
19.90
9.47
10.87
17.95
22.22
17.17
1.25
-21.98
-46.43
-67.14
-82.74
-95.33
-108.04
-121.88
-134.16
-139.50
-133.12
-114.22
-87.18
-59.97
-40.20
-31.36
-31.33
-34.29
-34.45
-29.39
-20.91
-13.20
-9.98
-12.06
-17.20
-21.74
-22.95
-20.61
-16.45
-13.10
-12.30
-14.12
-17.03
-18.94
-18.42
-15.41
-11.28
-7.88
-6.47
-6.88
-7.66
-7.01
-4.04
0.69
5.42
8.32
8.66
7.08
5.01
3.58
2.86
1.95
-0.08
-3.32
-6.63
-8.30
-7.06
-3.04
2.35
7.21
10.35
11.90
13.01
14.95
18.21
22.06
24.85
24.89
21.25
14.32
5.78
-1.96
-6.66
-7.18
-3.97
0.99
5.21
6.85
5.70
3.21
1.44
1.73
3.66
5.25
4.33
0.01
-6.51
-12.47
-15.14
-13.47
-8.80
-4.13
-2.49
-5.15
-10.97
-17.03
-20.31
-19.33
-14.79
-9.05
-4.58
-2.69
-2.89
-3.36
-2.22
1.34
6.48
11.05
12.79
10.55
4.99
-1.61
-6.53
-7.91
-5.80
-1.97
1.16
2.04
0.92
-0.36
0.37
4.05
9.62
14.52
16.10
13.26
7.06
0.16
-4.76
-6.38
-5.40
-3.88
-3.83
-5.90
-8.97
-10.87
-9.82
-5.63
-0.09
4.02
4.47
1.00
-4.45
-8.70
-9.16
-5.33
0.86
6.22
8.11
5.99
1.63
-2.13
-3.17
-1.44
1.16
2.06
-0.22
-5.13
-10.46
-13.66
-13.41
-10.29
-6.35
-3.74
-3.50
-5.14
-7.07
-7.73
-6.47
-3.89
-1.40
-0.40
-1.48
-4.13
-7.10
-8.95
-8.78
-6.46
-2.55
2.05
6.50
10.18
12.81
14.35
14.89
14.60
13.62
12.03
9.88
7.35
4.89
3.19
2.86
4.04
6.11
7.85
8.08
6.34
3.31
0.43
-0.93
-0.27
1.72
3.60
4.09
2.90
0.86
-0.56
-0.23
1.92
4.80
6.77
6.61
4.27
0.93
-1.57
-1.87
0.18
3.33
5.65
5.59
2.81
-1.59
-5.75
-8.00
-7.77
-5.79
-3.57
-2.58
-3.41
-5.54
-7.71
-8.66
-7.90
-5.95
-4.00
-3.13
-3.61
-4.72
-5.28
-4.44
-2.38
-0.37
0.03
-2.01
-5.83
-9.46
-10.56
-7.81
-1.72
5.58
11.43
14.07
13.44
11.03
8.84
8.17
8.93
9.87
9.59
7.60
4.68
2.49
2.51
5.14
9.34
13.13
14.72
13.46
10.25
7.00
5.58
6.71
9.51
12.00
12.25
9.53
4.74
-0.04
-2.77
-2.53
-0.05
2.69
3.68
1.93
-1.99
-6.31
-9.07
-9.24
-7.19
-4.47
-2.88
-3.50
-6.16
-9.55
-12.00
-12.45
-10.98
-8.76
-7.33
-7.64
-9.46
-11.48
-12.10
-10.34
-6.52
-2.12
1.05
1.87
0.54
-1.53
-2.55
-1.42
1.64
5.14
7.18
6.56
3.47
-0.56
-3.52
-4.07
-2.23
0.65
2.79
3.02
1.46
-0.58
-1.48
-0.30
2.52
5.44
6.71
5.43
2.18
-1.36
-3.30
-2.70
-0.05
2.99
4.63
3.97
1.53
-1.12
-2.31
-1.28
1.38
4.10
5.31
4.37
1.92
-0.55
-1.50
-0.28
2.55
5.58
7.34
7.12
5.34
3.25
2.25
3.06
5.25
7.47
8.21
6.70
3.46
0.10
-1.49
-0.33
3.07
6.85
8.81
7.69
3.85
-0.89
-4.38
-5.34
-4.12
-2.38
-1.94
-3.58
-6.51
-8.91
-9.10
-6.68
-2.82
0.34
1.00
-1.26
-5.20
-8.65
-9.73
-7.89
-4.21
-0.76
0.57
-0.89
-4.21
-7.41
-8.56
-6.81
-2.85
1.48
4.21
4.36
2.37
-0.16
-1.51
-0.89
1.18
3.19
3.63
1.98
-0.99
-3.65
-4.52
-3.08
-0.17
2.59
3.65
2.43
-0.43
-3.52
-5.49
-5.82
-5.08
-4.50
-5.21
-7.53
-10.64
-13.07
-13.38
-11.07
-6.85
-2.37
0.64
1.30
-0.01
-1.95
-3.02
-2.43
-0.52
1.60
2.80
2.80
2.32
2.65
4.77
8.54
12.57
14.92
14.07
9.85
3.64
-2.30
-5.92
-6.34
-4.19
-1.11
1.24
2.01
1.53
0.89
1.12
2.52
4.46
5.85
5.77
4.10
1.49
-1.02
-2.67
-3.35
-3.66
-4.45
-6.28
-8.98
-11.65
-12.98
-11.85
-7.94
-2.02
4.30
9.16
11.32
10.71
8.29
5.50
3.28
1.61
-0.30
-3.20
-6.92
-10.08
-10.71
-7.47
-0.65
7.60
14.27
16.92
14.91
9.66
3.79
-0.32
-1.72
-1.14
-0.40
-1.07
-3.44
-6.32
-7.76
-6.36
-2.27
2.65
5.71
4.90
0.11
-6.61
-12.08
-13.62
-10.53
-4.47
1.53
4.69
4.01
0.73
-2.56
-3.44
-1.14
3.07
6.67
7.44
4.74
-0.05
-4.32
-5.78
-3.69
0.71
4.97
6.90
5.80
2.84
0.33
0.33
3.32
7.90
11.48
11.74
7.96
1.47
-5.00
-8.75
-8.62
-5.48
-1.68
0.32
-0.52
-3.33
-5.91
-6.15
-3.38
1.17
5.07
6.17
3.91
-0.31
-3.95
-4.83
-2.38
2.01
5.83
6.93
4.78
0.81
-2.52
-3.11
-0.58
3.55
6.68
6.67
3.13
-2.34
-7.05
-8.70
-6.69
-2.33
1.96
4.06
3.29
0.71
-1.59
-1.81
0.53
4.33
7.61
8.61
6.90
3.50
0.28
-1.23
-0.72
0.67
1.20
-0.42
-4.10
-8.39
-11.29
-11.39
-8.65
-4.42
-0.59
1.38
1.21
-0.23
-1.58
-1.87
-1.03
0.16
0.61
-0.38
-2.66
-5.34
-7.27
-7.66
-6.47
-4.41
-2.47
-1.46
-1.60
-2.47
-3.38
-3.76
-3.45
-2.69
-1.90
-1.31
-0.87
-0.29
0.70
2.05
3.40
4.15
3.88
2.54
0.51
-1.54
-2.96
-3.40
-2.88
-1.77
-0.57
0.31
0.69
0.65
0.55
0.75
1.51
2.78
4.27
5.56
6.33
6.59
6.57
6.66
7.05
7.54
7.65
6.82
4.79
1.85
-1.29
-3.77
-4.98
-4.75
-3.42
-1.51
0.53
2.45
4.18
5.67
6.74
7.09
6.45
4.82
2.52
0.13
-1.73
-2.64
-2.54
-1.75
-0.80
-0.19
-0.18
-0.72
-1.45
-1.94
-1.86
-1.15
-0.05
1.01
1.71
1.87
1.59
1.12
0.65
0.28
-0.02
-0.33
-0.63
-0.84
-0.90
-0.79
-0.63
-0.61
-0.87
-1.40
-2.12
-2.83
-3.37
-3.65
-3.65
-3.41
-3.01
-2.46
-1.77
-0.93
0.04
1.04
1.88
2.28
2.02
1.05
-0.41
-1.96
-3.15
-3.67
-3.54
-3.07
-2.76
-3.01
-3.91
-5.17
-6.22
-6.50
-5.77
-4.30
-2.73
-1.71
-1.60
-2.23
-3.03
-3.33
-2.82
-1.63
-0.27
0.76
1.20
1.18
1.05
1.12
1.45
1.85
2.02
1.78
1.21
0.66
0.54
1.14
2.37
3.81
4.87
5.05
4.22
2.71
1.13
0.12
0.03
0.79
1.98
3.02
3.45
3.14
2.34
1.52
1.12
1.36
2.10
2.91
3.31
3.07
2.27
1.33
0.67
0.49
0.69
0.94
1.01
0.88
0.79
0.99
1.51
2.06
2.23
1.78
0.79
-0.29
-0.92
-0.77
0.11
1.32
2.29
2.57
2.04
0.90
-0.38
-1.31
-1.55
-1.10
-0.30
0.37
0.50
0.04
-0.71
-1.26
-1.25
-0.71
-0.08
0.06
-0.65
-2.12
-3.78
-4.92
-5.03
-4.08
-2.49
-0.85
0.34
0.94
1.13
1.28
1.70
2.46
3.38
4.13
4.40
4.01
3.03
1.65
0.16
-1.19
-2.25
-2.97
-3.34
-3.34
-2.96
-2.16
-1.02
0.28
1.43
2.14
2.24
1.77
0.99
0.20
-0.34
-0.63
-0.81
-1.10
-1.64
-2.31
-2.84
-2.95
-2.55
-1.76
-0.93
-0.43
-0.45
-0.94
-1.58
-1.96
-1.79
-1.06
-0.07
0.76
1.06
0.75
0.04
-0.68
-1.09
-1.13
-0.98
-0.95
-1.21
-1.67
-2.00
-1.85
-1.09
0.09
1.28
2.05
2.17
1.73
1.03
0.42
0.14
0.16
0.33
0.43
0.37
0.17
-0.00
0.00
0.22
0.53
0.75
0.71
0.36
-0.15
-0.60
-0.75
-0.54
-0.09
0.35
0.55
0.40
0.01
-0.36
-0.46
-0.18
0.38
0.92
1.13
0.89
0.35
-0.15
-0.28
0.06
0.69
1.20
1.27
0.83
0.11
-0.44
-0.45
0.15
1.10
1.97
2.37
2.17
1.57
0.92
0.53
0.50
0.69
0.84
0.75
0.41
-0.00
-0.24
-0.14
0.29
0.83
1.23
1.29
1.01
0.58
0.25
0.21
0.47
0.86
1.07
0.89
0.33
-0.40
-0.91
-0.90
-0.29
0.66
1.49
1.77
1.29
0.22
-1.00
-1.86
-2.03
-1.55
-0.78
-0.16
-0.00
-0.29
-0.71
-0.92
-0.72
-0.24
0.18
0.22
-0.25
-1.00
-1.59
-1.67
-1.12
-0.16
0.79
1.35
1.40
1.05
0.61
0.33
0.28
0.35
0.30
-0.02
-0.58
-1.19
-1.59
-1.62
-1.31
-0.89
-0.62
-0.68
-1.04
-1.51
-1.82
-1.78
-1.38
-0.79
-0.26
0.04
0.07
-0.04
-0.07
0.11
0.46
0.82
0.92
0.63
-0.02
-0.79
-1.33
-1.41
-0.97
-0.21
0.54
0.98
0.94
0.53
-0.03
-0.45
-0.54
-0.31
0.06
0.32
0.31
0.10
-0.11
-0.04
0.45
1.25
2.02
2.39
2.18
1.47
0.62
-0.00
-0.21
-0.09
0.07
0.05
-0.24
-0.59
-0.74
-0.49
0.10
0.75
1.13
1.04
0.58
0.08
-0.11
0.18
0.78
1.31
1.35
0.78
-0.18
-1.02
-1.32
-0.90
-0.03
0.79
1.10
0.76
0.02
-0.73
-1.13
-1.08
-0.76
-0.48
-0.49
-0.84
-1.38
-1.86
-2.03
-1.76
-1.13
-0.36
0.26
0.53
0.38
-0.00
-0.34
-0.38
-0.07
0.42
0.75
0.67
0.14
-0.58
-1.11
-1.14
-0.61
0.23
0.97
1.27
1.01
0.37
-0.28
-0.61
-0.49
-0.05
0.41
0.62
0.49
0.14
-0.18
-0.27
-0.05
0.34
0.68
0.78
0.61
0.30
0.09
0.18
0.57
1.07
1.36
1.20
0.57
-0.28
-0.93
-1.06
-0.58
0.23
0.97
1.25
0.98
0.39
-0.11
-0.16
0.29
1.02
1.66
1.90
1.71
1.32
1.04
1.04
1.17
1.07
0.39
-0.88
-2.36
-3.39
-3.46
-2.47
-0.87
0.64
1.46
1.45
0.95
0.53
0.64
1.34
2.30
3.06
3.31
3.06
2.58
2.19
2.03
1.99
1.91
1.64
1.27
0.97
0.93
1.14
1.40
1.40
0.88
-0.24
-1.83
-3.57
-5.13
-6.18
-6.55
-6.22
-5.35
-4.22
-3.15
-2.37
-1.94
-1.75
-1.63
-1.44
-1.16
-0.86
-0.64
-0.56
-0.61
-0.76
-0.95
-1.12
-1.24
-1.31
-1.34
-1.30
-1.17
-0.86
-0.33
0.40
1.17
1.70
1.75
1.28
0.48
-0.28
-0.65
-0.49
0.03
0.55
0.74
0.45
-0.15
-0.72
-0.91
-0.58
0.12
0.86
1.31
1.31
0.97
0.60
0.54
0.97
1.80
2.71
3.31
3.35
2.84
2.00
1.18
0.66
0.49
0.54
0.60
0.52
0.37
0.39
0.83
1.74
2.87
3.72
3.80
2.91
1.32
-0.37
-1.49
-1.65
-0.94
0.14
0.95
1.08
0.52
-0.36
-1.09
-1.34
-1.09
-0.60
-0.24
-0.23
-0.55
-0.99
-1.25
-1.20
-0.90
-0.60
-0.55
-0.82
-1.29
-1.69
-1.76
-1.48
-1.05
-0.80
-0.99
-1.61
-2.39
-2.92
-2.88
-2.24
-1.24
-0.30
0.24
0.23
-0.15
-0.61
-0.84
-0.72
-0.37
-0.06
-0.02
-0.30
-0.72
-0.94
-0.73
-0.05
0.83
1.53
1.73
1.39
0.77
0.24
0.12
0.42
0.89
1.16
0.98
0.37
-0.36
-0.83
-0.78
-0.28
0.40
0.89
1.00
0.81
0.61
0.74
1.33
2.18
2.91
3.12
2.62
1.60
0.49
-0.21
-0.18
0.55
1.60
2.46
2.70
2.20
1.17
0.02
-0.80
-1.06
-0.77
-0.22
0.26
0.40
0.20
-0.16
-0.40
-0.39
-0.17
-0.02
-0.23
-0.89
-1.80
-2.54
-2.71
-2.24
-1.42
-0.78
-0.76
-1.42
-2.39
-3.07
-2.98
-2.02
-0.60
0.64
1.15
0.75
-0.27
-1.30
-1.78
-1.49
-0.63
0.31
0.91
0.98
0.69
0.35
0.26
0.46
0.80
1.03
0.99
0.75
0.50
0.46
0.67
1.02
1.23
1.06
0.46
-0.40
-1.17
-1.51
-1.24
-0.46
0.48
1.14
1.19
0.60
-0.34
-1.18
-1.52
-1.20
-0.41
0.47
1.03
1.11
0.82
0.47
0.36
0.58
0.96
1.18
1.01
0.48
-0.16
-0.50
-0.32
0.37
1.22
1.78
1.73
1.08
0.12
-0.68
-0.96
-0.63
0.11
0.92
1.49
1.69
1.63
1.53
1.53
1.62
1.64
1.42
0.89
0.21
-0.37
-0.59
-0.41
-0.06
0.08
-0.40
-1.60
-3.27
-4.82
-5.61
-5.26
-3.88
-2.04
-0.50
0.15
-0.25
-1.31
-2.32
-2.65
-2.01
-0.64
0.84
1.76
1.73
0.88
-0.30
-1.24
-1.55
-1.23
-0.54
0.21
0.79
1.11
1.17
1.01
0.70
0.40
0.26
0.42
0.79
1.12
1.15
0.87
0.62
0.90
2.00
3.69
5.23
5.76
4.81
2.61
-0.03
-2.25
-3.66
-4.48
-5.23
-6.21
-7.17
-7.52
-6.84
-5.39
-4.14
-4.15
-5.77
-8.32
-10.34
-10.57
-8.72
-5.66
-2.85
-1.30
-1.06
-1.25
-0.95
0.09
1.16
1.18
-0.58
-3.90
-7.64
-10.28
-10.66
-8.43
-4.13
1.08
5.84
9.03
10.05
8.99
6.48
3.48
0.87
-0.80
-1.42
-1.18
-0.32
1.00
2.76
4.97
7.45
9.81
11.53
12.13
11.44
9.67
7.39
5.29
3.89
3.31
3.23
3.16
2.72
1.91
1.04
0.48
0.34
0.32
-0.12
-1.31
-3.07
-4.64
-5.06
-3.81
-1.31
1.07
1.55
-1.18
-7.23
-15.31
-23.23
-28.89
-31.22
-30.61
-28.62
-26.97
-26.59
-27.23
-27.75
-27.09
-24.97
-22.10
-19.57
-18.02
-17.30
-16.73
-15.86
-15.05
-15.38
-17.96
-23.01
-29.36
-34.73
-36.65
-33.51
-25.26
-13.36
-0.06
12.41
22.56
29.97
35.11
38.92
42.40
46.10
50.00
53.44
55.64
56.07
54.75
52.03
48.15
42.93
35.80
26.40
15.26
4.09
-4.75
-9.31
-9.20
-5.91
-2.02
0.15
-0.20
-2.11
-3.68
-3.41
-1.12
2.00
4.24
4.40
2.41
-0.64
-3.10
-3.63
-1.83
1.57
5.07
7.14
7.01
5.07
2.68
1.41
2.15
4.53
7.15
8.32
7.16
4.08
0.60
-1.48
-1.18
1.09
3.79
5.14
4.15
1.27
-1.90
-3.56
-2.80
-0.18
2.59
3.66
2.17
-1.22
-4.72
-6.43
-5.51
-2.58
0.61
2.27
1.55
-1.01
-3.86
-5.32
-4.60
-2.17
0.51
1.84
1.01
-1.57
-4.45
-5.98
-5.27
-2.70
0.19
1.66
0.71
-2.22
-5.51
-7.31
-6.63
-3.93
-0.84
0.79
0.04
-2.59
-5.43
-6.65
-5.38
-2.19
1.23
3.04
2.31
-0.42
-3.53
-5.19
-4.45
-1.69
1.49
3.28
2.64
-0.09
-3.35
-5.25
-4.60
-1.65
2.07
4.67
4.92
3.00
0.36
-1.20
-0.61
1.79
4.50
5.78
4.72
1.84
-1.25
-2.80
-1.93
0.86
4.03
5.86
5.48
3.28
0.70
-0.60
0.28
3.03
6.25
8.28
8.11
5.97
3.19
1.43
1.75
3.97
6.83
8.67
8.40
6.13
3.11
0.96
0.77
2.48
4.87
6.36
5.88
3.55
0.65
-1.19
-0.92
1.29
4.11
5.83
5.35
2.87
-0.29
-2.42
-2.50
-0.72
1.61
2.86
2.06
-0.54
-3.59
-5.49
-5.26
-3.17
-0.49
1.17
0.83
-1.27
-3.89
-5.46
-5.04
-2.87
-0.20
1.39
0.93
-1.36
-4.22
-6.06
-5.87
-3.83
-1.19
0.44
0.05
-2.16
-4.90
-6.53
-6.01
-3.59
-0.62
1.18
0.74
-1.69
-4.70
-6.50
-5.99
-3.38
-0.08
2.11
2.07
0.01
-2.70
-4.37
-3.96
-1.73
0.99
2.55
1.98
-0.38
-3.16
-4.70
-4.04
-1.53
1.43
3.15
2.70
0.44
-2.15
-3.31
-2.11
0.99
4.35
6.11
5.23
2.16
-1.43
-3.58
-3.22
-0.69
2.45
4.41
4.18
2.13
-0.30
-1.50
-0.59
2.00
4.88
6.43
5.76
3.23
0.21
-1.68
-1.48
0.56
3.09
4.52
3.90
1.51
-1.32
-2.93
-2.38
0.02
2.86
4.43
3.76
1.17
-1.89
-3.68
-3.22
-0.80
2.16
3.97
3.64
1.46
-1.20
-2.69
-2.03
0.50
3.52
5.34
4.95
2.59
-0.37
-2.28
-2.12
-0.14
2.33
3.70
3.01
0.58
-2.25
-3.90
-3.49
-1.42
0.95
2.05
1.08
-1.51
-4.27
-5.60
-4.69
-2.02
0.95
2.56
1.91
-0.61
-3.58
-5.36
-5.01
-2.82
-0.14
1.41
0.89
-1.43
-4.22
-5.89
-5.51
-3.38
-0.86
0.46
-0.32
-2.81
-5.56
-6.87
-5.87
-3.02
0.12
1.77
0.99
-1.73
-4.75
-6.20
-5.01
-1.57
2.55
5.45
5.97
4.32
1.83
0.21
0.49
2.45
4.82
6.02
5.17
2.60
-0.29
-1.82
-1.06
1.62
4.70
6.41
5.74
3.04
-0.16
-2.01
-1.43
1.24
4.45
6.32
5.72
2.95
-0.48
-2.68
-2.51
-0.23
2.75
4.66
4.42
2.26
-0.47
-2.15
-1.80
0.30
2.88
4.38
3.93
1.79
-0.75
-2.19
-1.64
0.59
3.19
4.59
3.85
1.29
-1.75
-3.62
-3.32
-1.16
1.49
2.93
2.19
-0.41
-3.44
-5.20
-4.71
-2.30
0.58
2.24
1.71
-0.69
-3.55
-5.22
-4.72
-2.35
0.51
2.21
1.81
-0.42
-3.10
-4.57
-3.87
-1.33
1.66
3.39
2.88
0.42
-2.57
-4.41
-4.14
-2.06
0.42
1.68
0.87
-1.59
-4.25
-5.48
-4.51
-1.88
0.86
2.01
0.81
-2.18
-5.33
-6.88
-5.97
-3.12
0.10
1.91
1.39
-1.03
-3.85
-5.36
-4.60
-1.94
1.18
3.11
2.93
1.01
-1.26
-2.26
-1.17
1.61
4.62
6.21
5.54
3.04
0.19
-1.33
-0.60
2.00
4.97
6.62
5.97
3.42
0.44
-1.19
-0.47
2.25
5.45
7.32
6.81
4.24
1.12
-0.76
-0.35
2.08
5.13
7.09
6.95
4.98
2.52
1.18
1.91
4.41
7.34
9.09
8.65
6.26
3.21
1.15
1.11
2.94
5.36
6.76
6.09
3.48
0.14
-2.36
-3.06
-2.13
-0.76
-0.43
-1.96
-5.00
-8.17
-9.88
-9.26
-6.68
-3.61
-1.73
-2.04
-4.25
-6.96
-8.45
-7.72
-4.99
-1.60
0.79
1.15
-0.29
-2.27
-3.23
-2.30
0.18
2.84
4.10
3.10
0.27
-2.88
-4.64
-4.06
-1.54
1.38
2.94
2.15
-0.62
-3.85
-5.76
-5.33
-2.88
0.10
1.89
1.52
-0.66
-3.22
-4.46
-3.45
-0.59
2.66
4.56
4.12
1.69
-1.30
-3.11
-2.72
-0.40
2.45
4.11
3.59
1.18
-1.73
-3.43
-2.94
-0.56
2.26
3.80
3.05
0.33
-2.89
-4.80
-4.34
-1.75
1.50
3.58
3.30
0.82
-2.49
-4.83
-4.99
-3.08
-0.33
1.60
1.64
-0.06
-2.30
-3.56
-2.91
-0.62
2.07
3.61
3.12
0.83
-2.01
-3.86
-3.80
-2.03
0.25
1.56
1.00
-1.15
-3.62
-4.86
-3.99
-1.32
1.75
3.52
3.00
0.48
-2.63
-4.61
-4.38
-2.18
0.65
2.40
2.00
-0.33
-3.30
-5.20
-5.01
-2.88
-0.09
1.77
1.68
-0.19
-2.56
-3.82
-2.97
-0.24
3.02
5.10
4.92
2.72
-0.13
-1.86
-1.37
1.12
4.25
6.24
5.99
3.71
0.82
-0.90
-0.31
2.35
5.65
7.72
7.41
4.85
1.46
-0.91
-1.05
0.94
3.75
5.59
5.28
2.94
-0.10
-2.11
-1.94
0.25
3.12
4.88
4.38
1.71
-1.75
-4.17
-4.32
-2.26
0.68
2.67
2.43
0.01
-3.25
-5.46
-5.31
-2.84
0.61
3.14
3.42
1.45
-1.49
-3.55
-3.42
-1.10
2.13
4.46
4.63
2.60
-0.42
-2.70
-3.03
-1.37
1.08
2.68
2.33
0.11
-2.78
-4.73
-4.68
-2.73
-0.10
1.61
1.34
-0.78
-3.52
-5.26
-4.92
-2.58
0.51
2.65
2.67
0.59
-2.39
-4.53
-4.58
-2.48
0.61
2.98
3.35
1.65
-1.02
-2.99
-3.06
-1.18
1.50
3.33
3.13
0.89
-2.18
-4.35
-4.39
-2.29
0.78
3.09
3.38
1.63
-0.98
-2.72
-2.38
0.05
3.30
5.57
5.57
3.22
-0.20
-2.86
-3.37
-1.58
1.36
3.66
3.95
2.05
-0.92
-3.21
-3.46
-1.50
1.55
3.91
4.19
2.18
-1.04
-3.73
-4.49
-3.07
-0.49
1.64
2.00
0.40
-2.13
-4.01
-4.01
-2.02
0.89
3.07
3.27
1.37
-1.51
-3.63
-3.66
-1.44
1.92
4.63
5.29
3.63
0.71
-1.74
-2.29
-0.64
2.20
4.53
4.93
3.13
0.12
-2.37
-2.93
-1.23
1.71
4.18
4.71
2.94
-0.11
-2.66
-3.21
-1.40
1.74
4.38
4.93
2.98
-0.47
-3.58
-4.75
-3.49
-0.71
1.87
2.72
1.42
-1.16
-3.43
-4.01
-2.58
-0.06
1.91
2.00
-0.01
-3.10
-5.58
-6.03
-4.15
-0.93
1.91
2.92
1.70
-0.84
-3.03
-3.45
-1.69
1.33
3.96
4.73
3.24
0.36
-2.26
-3.14
-1.82
0.88
3.34
4.10
2.76
0.14
-2.15
-2.75
-1.31
1.26
3.39
3.77
2.10
-0.70
-3.00
-3.51
-1.93
0.83
3.18
3.81
2.39
-0.19
-2.39
-2.88
-1.34
1.38
3.71
4.26
2.60
-0.45
-3.29
-4.47
-3.48
-1.05
1.25
1.95
0.54
-2.22
-4.71
-5.44
-3.88
-0.86
1.92
2.90
1.52
-1.36
-4.05
-4.94
-3.53
-0.68
1.88
2.63
1.08
-1.88
-4.54
-5.35
-3.84
-0.84
1.94
2.95
1.67
-1.12
-3.77
-4.76
-3.53
-0.85
1.71
2.66
1.41
-1.32
-3.97
-5.03
-3.91
-1.29
1.28
2.28
1.08
-1.64
-4.28
-5.26
-3.88
-0.81
2.28
3.67
2.57
-0.40
-3.51
-4.96
-3.87
-0.86
2.37
3.97
3.05
0.19
-2.91
-4.44
-3.51
-0.68
2.38
3.92
3.12
0.63
-1.89
-2.77
-1.31
1.74
4.62
5.66
4.23
1.17
-1.74
-2.80
-1.48
1.37
3.93
4.59
2.86
-0.34
-3.25
-4.27
-2.92
-0.05
2.67
3.73
2.63
0.13
-2.20
-2.87
-1.29
1.88
5.16
7.03
6.78
4.86
2.64
1.57
2.37
4.63
7.03
8.09
7.10
4.44
1.46
-0.40
-0.41
0.96
2.41
2.57
0.96
-1.75
-4.09
-4.66
-3.03
0.01
2.83
3.93
2.75
0.05
-2.58
-3.61
-2.49
-0.02
2.15
2.46
0.50
-2.71
-5.23
-5.35
-2.69
1.58
5.33
6.82
5.74
3.39
1.89
2.87
6.41
11.04
14.55
15.34
13.22
9.47
6.00
4.24
4.45
5.69
6.50
5.86
3.80
1.40
0.13
0.95
3.72
7.13
9.41
9.22
6.39
2.00
-2.13
-4.40
-4.24
-2.33
-0.21
0.63
-0.47
-3.02
-5.78
-7.57
-7.97
-7.62
-7.71
-9.17
-12.10
-15.54
-17.97
-18.19
-15.94
-12.03
-7.93
-4.95
-3.56
-3.24
-2.84
-1.39
1.32
4.51
6.86
7.25
5.44
2.28
-0.73
-2.19
-1.56
0.58
2.91
4.14
3.78
2.39
1.16
1.20
2.78
5.14
6.88
6.80
4.56
0.96
-2.52
-4.52
-4.59
-3.33
-1.99
-1.71
-2.79
-4.57
-5.84
-5.64
-3.79
-1.08
1.19
1.92
0.82
-1.47
-3.73
-4.90
-4.65
-3.50
-2.52
-2.55
-3.71
-5.28
-6.10
-5.35
-3.11
-0.42
1.24
0.79
-1.78
-5.30
-7.96
-8.22
-5.61
-1.01
3.78
6.91
7.37
5.49
2.64
0.53
0.21
1.62
3.71
5.11
5.02
3.55
1.58
0.04
-0.67
-0.88
-1.25
-2.19
-3.35
-3.75
-2.36
1.26
6.53
12.04
16.25
18.19
17.77
15.67
12.88
10.33
8.67
8.22
8.90
10.05
10.56
9.46
6.75
3.71
2.06
2.61
4.31
4.73
1.91
-3.89
-9.93
-12.80
-10.95
-6.11
-2.25
-2.86
-8.35
-15.77
-20.89
-21.10
-17.03
-11.75
-8.39
-8.09
-9.79
-11.65
-12.46
-12.17
-11.34
-10.41
-9.26
-7.67
-5.70
-3.68
-1.65
0.95
4.88
10.17
15.49
18.49
17.17
11.28
2.87
-4.69
-8.45
-7.39
-2.69
3.20
8.04
10.81
11.74
11.65
11.11
10.02
7.88
4.42
0.05
-4.12
-6.76
-6.97
-4.78
-1.34
1.58
2.35
0.28
-4.00
-8.80
-12.17
-12.89
-10.98
-7.60
-4.37
-2.46
-2.13
-2.69
-3.07
-2.44
-0.72
1.36
2.75
2.67
1.16
-0.90
-2.24
-1.98
-0.19
2.13
3.63
3.45
1.85
0.06
-0.46
1.11
4.35
7.92
10.34
10.81
9.71
8.25
7.70
8.61
10.36
11.54
10.65
6.89
0.55
-7.08
-14.29
-19.63
-22.51
-23.22
-22.75
-22.23
-22.44
-23.47
-24.87
-25.97
-26.33
-25.93
-25.13
-24.30
-23.52
-22.42
-20.43
-17.14
-12.59
-7.23
-1.67
3.68
8.73
13.56
18.18
22.28
25.26
26.54
25.98
24.12
21.98
20.73
20.95
22.40
24.18
25.21
24.96
23.83
22.82
23.04
24.92
28.22
32.60
38.15
45.00
52.26
57.22
56.14
46.67
30.10
11.57
-2.63
-9.08
-9.48
-9.32
-13.59
-22.79
-32.29
-35.86
-30.52
-19.17
-8.79
-5.64
-10.80
-19.82
-26.22
-25.90
-19.53
-11.26
-5.17
-2.79
-2.76
-2.88
-2.23
-1.88
-3.72
-8.83
-16.52
-24.72
-31.23
-34.78
-35.39
-33.90
-31.31
-28.44
-25.97
-24.51
-24.47
-25.78
-27.85
-29.94
-31.77
-33.84
-36.96
-41.31
-45.42
-46.46
-41.51
-29.36
-11.49
8.41
26.24
39.34
47.35
51.46
52.98
52.18
48.38
40.94
30.44
19.07
9.83
5.18
5.80
10.31
16.03
20.21
21.17
18.83
14.40
9.65
5.99
3.93
3.14
2.90
2.62
2.20
1.96
2.27
3.22
4.33
4.74
3.63
0.73
-3.26
-6.84
-8.30
-6.61
-2.10
3.60
8.27
10.28
9.40
6.82
4.40
3.56
4.58
6.56
8.15
8.42
7.38
5.89
5.08
5.67
7.60
10.12
12.20
13.00
12.24
10.20
7.51
4.81
2.32
-0.15
-3.09
-6.77
-10.93
-14.59
-16.50
-15.71
-12.29
-7.46
-3.10
-0.85
-1.22
-3.33
-5.48
-6.15
-4.89
-2.53
-0.65
-0.53
-2.44
-5.49
-8.23
-9.51
-9.09
-7.66
-6.26
-5.73
-6.21
-7.26
-8.20
-8.48
-7.91
-6.64
-5.06
-3.59
-2.55
-1.95
-1.55
-0.95
0.12
1.50
2.60
2.71
1.55
-0.38
-1.92
-1.96
-0.18
2.67
5.10
5.82
4.57
2.24
0.23
-0.43
0.30
1.55
2.24
1.80
0.50
-0.77
-1.06
0.03
2.19
4.50
5.94
5.90
4.47
2.45
0.94
0.78
2.05
3.95
5.24
4.92
2.89
0.05
-2.15
-2.56
-1.02
1.62
4.07
5.45
5.83
6.13
7.37
9.84
12.62
13.90
12.03
6.55
-1.25
-8.80
-13.42
-13.55
-9.61
-3.68
1.52
3.95
3.21
0.56
-1.97
-2.67
-1.14
1.62
3.84
4.02
1.74
-2.04
-5.47
-6.79
-5.26
-1.66
2.02
3.51
1.46
-3.78
-10.22
-15.13
-16.48
-13.97
-9.31
-5.28
-4.11
-6.37
-10.89
-16.00
-21.02
-26.60
-33.43
-40.27
-42.83
-35.34
-14.35
17.76
52.17
77.18
84.18
72.33
48.94
25.16
9.71
4.84
6.57
8.68
7.25
2.76
-1.31
-1.65
2.30
8.16
12.38
12.55
8.58
2.26
-3.94
-8.10
-9.41
-8.31
-6.17
-4.76
-5.51
-8.76
-13.41
-17.26
-18.09
-14.86
-8.39
-1.08
4.22
5.66
3.29
-1.02
-4.56
-5.25
-2.67
1.77
5.78
7.48
6.50
4.11
2.29
2.43
4.41
6.63
7.14
4.83
0.17
-5.18
-9.61
-12.57
-14.63
-16.61
-18.51
-19.30
-17.82
-13.98
-9.27
-5.84
-4.99
-6.26
-7.81
-8.06
-6.91
-5.81
-6.60
-10.07
-15.39
-20.72
-24.42
-25.84
-25.15
-22.74
-18.82
-13.48
-7.17
-0.79
4.96
10.10
15.37
21.52
28.29
34.17
37.09
35.71
30.23
22.26
13.87
6.65
1.45
-1.31
-1.43
1.00
5.33
10.20
14.08
16.10
16.60
16.91
18.46
21.79
25.96
28.78
27.76
21.39
10.12
-3.32
-14.87
-20.87
-19.94
-13.84
-6.69
-2.84
-4.42
-10.16
-16.27
-18.93
-16.70
-11.39
-6.67
-5.40
-7.63
-10.56
-10.54
-5.77
2.33
9.74
12.19
7.69
-2.30
-13.68
-21.87
-24.14
-20.74
-14.39
-8.59
-5.67
-5.85
-7.46
-8.24
-6.73
-2.97
1.76
5.90
8.53
9.78
10.57
11.81
13.68
15.44
15.82
13.87
9.68
4.52
0.31
-1.43
-0.45
2.10
4.37
4.91
3.54
1.42
0.18
0.84
3.12
5.60
6.62
5.38
2.46
-0.52
-1.83
-0.64
2.49
5.95
7.87
7.18
4.08
-0.03
-3.34
-4.53
-3.44
-1.16
0.71
0.85
-0.90
-3.58
-5.56
-5.59
-3.47
-0.31
2.14
2.40
0.18
-3.45
-6.55
-7.39
-5.39
-1.44
2.53
4.64
3.95
0.90
-3.04
-6.17
-7.44
-6.81
-5.05
-3.16
-1.79
-1.03
-0.61
-0.23
0.16
0.28
-0.12
-0.98
-1.71
-1.37
0.75
4.55
8.84
11.72
11.50
7.78
2.19
-2.01
-1.33
6.20
19.44
33.59
41.30
35.24
11.37
-28.23
-74.80
-115.42
-137.81
-135.48
-110.31
-71.08
-28.72
8.76
38.74
62.66
82.21
96.16
100.35
90.84
67.75
36.89
7.76
-11.15
-16.51
-11.52
-3.69
-0.64
-6.45
-20.22
-37.58
-53.25
-63.62
-67.93
-67.82
-65.74
-63.33
-60.37
-55.62
-48.70
-41.58
-38.63
-44.25
-59.33
-78.77
-92.81
-91.72
-71.80
-38.46
-3.98
19.39
26.95
24.40
23.85
35.32
59.50
86.97
104.48
103.95
87.73
66.50
51.96
49.22
54.44
58.59
54.42
41.14
24.18
10.69
4.96
6.38
11.00
14.72
15.57
13.78
10.50
6.84
3.59
1.64
1.80
4.23
7.87
10.70
10.94
8.34
4.47
1.78
2.10
5.38
9.83
13.06
13.47
11.05
7.25
4.09
3.03
4.42
7.33
10.16
11.43
10.51
7.93
5.12
3.63
4.24
6.52
8.89
9.55
7.50
3.16
-1.83
-5.45
-6.48
-5.22
-3.26
-2.64
-4.58
-8.75
-13.37
-16.18
-15.74
-12.24
-7.40
-3.45
-1.85
-2.48
-3.73
-3.60
-0.92
3.85
8.85
11.90
11.75
8.80
4.86
2.08
1.79
3.82
6.68
8.45
7.86
4.90
0.76
-2.89
-4.88
-5.09
-4.46
-4.34
-5.60
-8.14
-10.88
-12.44
-11.91
-9.50
-6.39
-4.11
-3.67
-4.96
-6.84
-7.84
-7.07
-4.75
-2.10
-0.53
-0.66
-1.85
-2.36
-0.37
4.86
12.39
19.81
24.43
24.70
21.24
16.66
14.32
16.41
22.50
29.47
32.98
29.89
20.30
7.81
-2.22
-5.52
-1.30
7.36
15.54
19.20
17.13
10.63
1.45
-9.81
-23.56
-39.28
-53.74
-61.45
-57.63
-41.71
-18.78
2.68
15.45
17.58
12.95
8.12
7.79
12.02
16.98
18.32
14.30
6.78
-0.46
-4.46
-4.52
-1.99
1.08
3.32
4.36
4.32
3.51
2.23
0.87
-0.00
0.06
0.96
1.98
2.15
0.98
-1.12
-2.93
-3.11
-0.98
2.95
7.17
9.83
9.66
6.63
2.02
-2.19
-4.27
-3.51
-0.64
2.57
4.24
3.36
0.31
-3.30
-5.56
-5.21
-2.42
1.29
3.84
3.72
0.77
-3.65
-7.49
-9.07
-8.03
-5.51
-3.40
-3.26
-5.41
-8.73
-11.38
-11.85
-9.93
-6.78
-4.32
-4.04
-6.14
-9.42
-11.96
-12.22
-9.94
-6.25
-3.08
-1.98
-3.31
-6.02
-8.30
-8.61
-6.62
-3.35
-0.58
0.20
-1.34
-4.18
-6.57
-7.05
-5.32
-2.42
-0.08
0.27
-1.65
-4.77
-7.35
-7.97
-6.36
-3.59
-1.42
-1.28
-3.47
-6.92
-9.87
-10.77
-9.18
-5.94
-2.67
-0.73
-0.54
-1.35
-1.81
-0.74
2.10
5.82
8.85
9.78
8.11
4.74
1.48
0.21
1.82
5.69
10.03
12.94
13.41
11.86
9.74
8.58
8.99
10.34
11.29
10.67
8.30
5.05
2.32
1.17
1.77
3.28
4.41
4.03
1.82
-1.51
-4.48
-5.52
-3.77
0.34
5.23
8.81
9.63
7.67
4.37
1.86
1.74
4.18
7.87
10.97
12.24
11.80
10.87
10.84
12.08
13.55
13.35
10.01
3.62
-3.92
-9.83
-11.91
-9.81
-5.23
-1.02
0.45
-1.56
-5.75
-9.75
-11.44
-10.15
-6.94
-3.89
-2.78
-4.16
-7.02
-9.57
-10.23
-8.62
-5.71
-3.19
-2.44
-3.79
-6.25
-8.21
-8.31
-6.36
-3.41
-1.13
-0.82
-2.60
-5.29
-7.16
-6.90
-4.41
-0.87
1.97
2.77
1.35
-1.28
-3.47
-3.92
-2.31
0.55
3.16
4.18
3.13
0.66
-1.83
-2.90
-1.86
0.83
3.83
5.66
5.53
3.74
1.50
0.23
0.67
2.47
4.40
5.05
3.76
0.99
-1.86
-3.29
-2.60
-0.37
1.87
2.51
0.85
-2.46
-5.75
-7.32
-6.43
-3.71
-0.77
0.76
0.19
-1.92
-4.13
-5.02
-4.02
-1.68
0.66
1.72
1.00
-0.94
-2.81
-3.32
-1.97
0.69
3.32
4.57
3.86
1.72
-0.47
-1.30
-0.16
2.39
4.89
5.88
4.71
1.99
-0.80
-2.16
-1.45
0.70
2.83
3.48
2.07
-0.73
-3.44
-4.62
-3.70
-1.33
1.06
2.08
1.16
-1.12
-3.44
-4.52
-3.82
-1.86
0.13
0.97
0.16
-1.80
-3.73
-4.46
-3.51
-1.34
0.90
2.06
1.60
-0.06
-1.83
-2.58
-1.80
0.09
1.97
2.69
1.73
-0.49
-2.82
-4.04
-3.55
-1.78
0.12
0.93
0.07
-2.00
-4.06
-4.85
-3.82
-1.52
0.79
1.84
1.13
-0.76
-2.54
-2.98
-1.66
0.78
2.96
3.63
2.35
-0.23
-2.72
-3.84
-3.04
-0.87
1.39
2.49
1.85
-0.05
-2.07
-2.99
-2.28
-0.37
1.58
2.36
1.44
-0.73
-2.94
-3.91
-3.03
-0.71
1.79
3.09
2.47
0.31
-2.14
-3.47
-2.95
-0.94
1.35
2.55
1.99
0.08
-1.93
-2.69
-1.55
1.00
3.66
5.01
4.37
2.16
-0.35
-1.74
-1.29
0.64
2.90
4.18
3.84
2.28
0.65
0.17
1.32
3.55
5.55
6.05
4.58
1.80
-0.90
-2.13
-1.39
0.73
2.81
3.49
2.23
-0.37
-2.91
-4.04
-3.20
-0.97
1.27
2.16
1.11
-1.34
-3.89
-5.15
-4.49
-2.38
-0.05
1.17
0.64
-1.22
-3.21
-4.06
-3.17
-0.98
1.31
2.40
1.69
-0.40
-2.65
-3.75
-3.08
-1.06
1.08
2.02
1.14
-1.15
-3.60
-4.84
-4.20
-2.11
0.16
1.23
0.44
-1.75
-4.01
-4.91
-3.76
-1.03
1.91
3.57
3.18
1.13
-1.29
-2.64
-2.15
-0.15
2.17
3.44
2.94
0.99
-1.22
-2.35
-1.67
0.46
2.79
3.94
3.15
0.82
-1.78
-3.15
-2.49
-0.16
2.53
4.04
3.55
1.38
-1.19
-2.65
-2.14
0.03
2.60
4.11
3.70
1.65
-0.85
-2.37
-2.11
-0.33
1.83
3.02
2.53
0.65
-1.44
-2.46
-1.76
0.26
2.39
3.30
2.38
0.10
-2.26
-3.30
-2.38
0.07
2.73
4.17
3.66
1.54
-0.97
-2.52
-2.31
-0.62
1.50
2.80
2.61
1.15
-0.56
-1.39
-0.77
0.95
2.70
3.32
2.26
-0.08
-2.49
-3.69
-3.02
-0.91
1.42
2.61
1.94
-0.24
-2.72
-4.08
-3.58
-1.53
0.84
2.11
1.49
-0.68
-3.15
-4.47
-3.83
-1.53
1.15
2.75
2.43
0.49
-1.87
-3.24
-2.83
-0.96
1.22
2.37
1.80
-0.13
-2.25
-3.25
-2.47
-0.27
2.18
3.55
3.14
1.28
-0.90
-2.06
-1.51
0.45
2.68
3.83
3.16
0.93
-1.71
-3.42
-3.40
-1.88
0.08
1.18
0.67
-1.15
-3.16
-4.06
-3.13
-0.74
1.90
3.43
3.14
1.37
-0.70
-1.75
-1.12
0.83
2.91
3.84
2.98
0.75
-1.66
-2.92
-2.39
-0.43
1.80
2.99
2.47
0.64
-1.35
-2.18
-1.23
1.06
3.40
4.43
3.46
0.98
-1.69
-3.11
-2.53
-0.36
2.12
3.49
2.99
0.92
-1.51
-2.91
-2.50
-0.57
1.78
3.21
2.94
1.22
-0.83
-1.87
-1.17
0.97
3.37
4.61
3.89
1.52
-1.30
-3.10
-3.03
-1.29
0.96
2.33
2.01
0.17
-2.10
-3.51
-3.28
-1.62
0.41
1.52
0.98
-1.01
-3.35
-4.75
-4.41
-2.55
-0.24
1.18
0.94
-0.73
-2.70
-3.62
-2.73
-0.35
2.27
3.66
3.01
0.62
-2.18
-3.87
-3.54
-1.44
1.22
2.94
2.86
1.17
-1.00
-2.28
-1.88
-0.06
2.06
3.17
2.51
0.38
-2.04
-3.40
-2.93
-0.90
1.49
2.84
2.38
0.40
-1.89
-3.09
-2.41
-0.16
2.43
3.95
3.58
1.60
-0.79
-2.24
-1.93
-0.12
2.08
3.35
2.91
0.98
-1.36
-2.79
-2.52
-0.76
1.37
2.53
1.95
-0.09
-2.39
-3.52
-2.68
-0.21
2.59
4.19
3.72
1.49
-1.17
-2.73
-2.28
-0.14
2.40
3.79
3.09
0.52
-2.67
-4.92
-5.14
-3.35
-0.63
1.48
1.80
0.11
-2.74
-5.34
-6.54
-6.01
-4.47
-3.14
-3.03
-4.35
-6.38
-8.02
-8.48
-7.83
-6.96
-6.95
-8.39
-10.86
-13.13
-13.86
-12.43
-9.46
-6.66
-6.06
-9.02
-15.38
-23.28
-29.83
-32.27
-29.19
-21.21
-10.58
-0.04
8.55
15.10
20.91
27.52
35.32
43.01
48.12
48.58
44.04
36.28
28.32
22.70
20.18
19.49
18.48
15.58
10.89
6.03
2.95
2.60
4.24
5.98
5.91
3.32
-0.91
-4.82
-6.48
-5.05
-1.23
3.13
5.96
6.05
3.61
0.11
-2.50
-2.90
-1.16
1.33
2.69
1.72
-1.21
-4.39
-5.79
-4.46
-1.32
1.24
0.82
-3.44
-10.12
-16.19
-18.73
-16.46
-10.30
-2.73
3.74
7.80
9.56
10.00
9.93
9.44
8.13
5.72
2.55
-0.40
-2.01
-1.60
0.79
4.48
8.50
11.76
13.32
12.55
9.49
5.00
0.56
-2.41
-3.31
-2.78
-2.34
-3.48
-6.56
-10.49
-13.34
-13.54
-10.94
-6.98
-3.85
-3.15
-4.90
-7.58
-9.01
-7.77
-4.07
0.30
3.00
2.49
-1.10
-5.96
-9.67
-10.50
-8.41
-5.09
-2.97
-3.87
-7.91
-13.41
-17.78
-18.94
-16.49
-11.94
-7.89
-6.64
-8.92
-13.51
-17.99
-20.10
-18.98
-15.53
-11.68
-9.21
-8.66
-9.09
-8.76
-6.13
-0.70
6.94
15.60
24.23
32.44
40.08
46.20
48.21
42.09
24.29
-5.39
-41.83
-75.17
-94.37
-92.35
-69.72
-34.72
0.75
26.95
40.45
44.27
44.46
45.42
47.39
47.41
42.62
33.29
23.23
17.50
19.08
26.94
36.64
42.91
42.67
36.41
27.46
19.87
16.22
16.46
18.40
19.19
16.84
11.04
2.99
-5.50
-12.77
-17.79
-20.15
-19.89
-17.38
-13.35
-8.85
-5.01
-2.66
-2.06
-2.91
-4.77
-7.42
-10.93
-15.38
-20.35
-24.69
-26.97
-26.20
-22.55
-17.43
-12.81
-10.23
-10.03
-11.40
-12.97
-13.69
-13.41
-12.78
-12.67
-13.50
-14.93
-16.00
-15.79
-14.04
-11.38
-9.04
-8.10
-8.81
-10.32
-11.09
-9.73
-5.83
-0.26
5.14
8.53
9.02
7.17
4.63
3.28
4.22
7.13
10.50
12.50
11.99
9.17
5.44
2.64
2.06
3.81
6.72
8.79
7.90
2.32
-8.81
-25.21
-45.07
-64.93
-79.96
-85.16
-77.26
-56.55
-27.70
1.38
22.38
30.09
24.79
12.08
0.10
-4.23
1.77
16.05
33.89
50.35
61.76
65.63
59.70
42.08
13.14
-22.35
-54.92
-73.73
-72.03
-51.41
-21.33
6.23
23.76
31.84
36.96
45.15
56.64
65.56
64.95
52.87
34.79
20.17
15.97
21.80
30.63
33.98
27.63
13.94
-0.73
-10.94
-15.27
-16.28
-17.68
-21.39
-26.65
-31.41
-33.97
-33.95
-31.72
-27.67
-21.94
-14.90
-7.61
-1.63
1.95
3.28
3.73
4.94
7.64
11.16
14.01
15.05
14.32
13.05
12.75
14.11
16.57
18.73
19.27
17.80
15.00
12.10
10.11
9.30
9.17
8.91
7.89
6.04
3.83
1.96
0.90
0.63
0.65
0.23
-1.06
-3.11
-5.20
-6.42
-6.24
-4.86
-3.10
-1.91
-1.74
-2.23
-2.34
-1.09
1.80
5.54
8.65
9.81
8.67
6.15
4.02
3.97
6.63
11.24
15.99
18.97
19.20
17.09
14.29
12.88
14.27
18.53
24.11
28.15
27.36
19.24
3.26
-18.62
-42.20
-62.24
-74.09
-75.22
-65.91
-48.87
-28.10
-7.57
9.63
21.64
27.73
28.36
25.06
20.28
16.63
15.80
17.69
20.33
20.88
17.15
8.92
-2.00
-12.66
-20.57
-24.90
-26.66
-27.77
-29.74
-32.76
-35.60
-36.44
-34.09
-28.94
-23.10
-19.43
-20.09
-25.03
-31.73
-36.17
-34.85
-26.79
-14.26
-1.67
6.73
9.28
7.74
6.11
8.03
14.48
23.02
29.34
29.89
24.15
15.02
7.12
4.09
6.44
11.45
14.94
13.89
8.26
0.89
-4.30
-4.72
-0.59
5.33
9.46
9.40
5.19
-1.00
-6.23
-8.40
-7.20
-3.96
-0.72
0.91
0.49
-1.29
-3.12
-3.84
-3.03
-1.18
0.64
1.31
0.24
-2.31
-5.31
-7.46
-7.81
-6.25
-3.61
-1.21
-0.28
-1.33
-3.95
-7.13
-9.86
-11.65
-12.80
-13.78
-14.45
-13.51
-8.68
1.61
16.37
30.67
36.64
27.00
-0.40
-39.89
-79.36
-105.60
-110.63
-95.14
-66.86
-35.29
-6.42
18.82
41.90
62.51
76.66
78.80
66.46
43.48
19.03
2.68
-1.08
4.93
13.13
16.48
12.51
3.95
-4.29
-8.92
-9.98
-10.10
-11.70
-15.04
-18.14
-18.51
-15.17
-9.61
-4.91
-3.78
-6.91
-12.60
-17.80
-19.82
-17.55
-11.60
-3.48
5.40
14.30
22.85
30.42
35.86
37.80
35.57
29.84
22.59
16.17
12.17
10.69
10.53
10.20
9.03
7.49
6.76
7.81
10.53
13.71
15.65
15.16
12.28
8.24
4.83
3.35
3.99
5.68
6.80
6.10
3.48
0.07
-2.44
-2.78
-0.89
2.00
4.07
4.02
1.76
-1.49
-3.98
-4.47
-2.88
-0.32
1.59
1.69
-0.12
-2.91
-5.21
-5.91
-4.83
-2.84
-1.30
-1.25
-2.82
-5.06
-6.55
-6.18
-3.91
-0.79
1.63
2.17
0.78
-1.48
-3.03
-2.79
-0.81
1.69
3.13
2.42
-0.27
-3.63
-6.00
-6.32
-4.73
-2.52
-1.30
-2.08
-4.69
-7.86
-10.02
-10.15
-8.38
-5.89
-4.24
-4.45
-6.45
-9.08
-10.72
-10.21
-7.51
-3.75
-0.55
0.89
0.43
-0.88
-1.53
-0.41
2.47
5.97
8.53
9.01
7.42
4.86
2.91
2.66
4.17
6.46
8.08
8.01
6.20
3.61
1.61
1.23
2.55
4.68
6.26
6.23
4.51
1.99
0.11
0.02
1.89
4.75
7.04
7.45
5.69
2.70
0.11
-0.71
0.51
2.77
4.39
4.05
1.61
-1.73
-4.14
-4.24
-1.98
1.35
3.81
3.98
1.75
-1.65
-4.43
-5.25
-3.99
-1.73
-0.10
-0.24
-2.20
-4.92
-6.89
-6.97
-5.10
-2.23
0.19
1.01
0.03
-1.95
-3.60
-3.79
-2.30
0.11
2.09
2.51
1.07
-1.46
-3.70
-4.43
-3.24
-0.83
1.45
2.37
1.51
-0.50
-2.34
-2.78
-1.46
0.93
3.00
3.48
2.04
-0.54
-2.72
-3.15
-1.45
1.51
4.13
4.96
3.60
0.91
-1.45
-2.05
-0.51
2.25
4.53
4.86
2.92
-0.29
-2.98
-3.65
-1.94
1.15
3.85
4.66
3.20
0.45
-1.88
-2.38
-0.73
2.06
4.31
4.63
2.76
-0.27
-2.79
-3.39
-1.83
0.92
3.16
3.53
1.71
-1.37
-4.11
-5.13
-4.06
-1.73
0.37
0.96
-0.35
-2.80
-4.98
-5.62
-4.33
-1.78
0.64
1.67
0.87
-1.09
-2.86
-3.17
-1.61
1.13
3.60
4.46
3.26
0.76
-1.57
-2.32
-1.03
1.53
3.85
4.53
3.14
0.47
-1.92
-2.63
-1.22
1.48
3.88
4.56
3.09
0.29
-2.23
-3.02
-1.65
1.06
3.48
4.19
2.72
-0.13
-2.75
-3.72
-2.58
-0.10
2.19
2.92
1.66
-0.87
-3.21
-4.05
-2.95
-0.58
1.69
2.61
1.74
-0.33
-2.31
-3.00
-1.98
0.13
2.01
2.42
0.88
-1.97
-4.73
-5.96
-5.02
-2.37
0.62
2.51
2.49
0.86
-1.23
-2.47
-2.13
-0.47
1.43
2.34
1.61
-0.38
-2.50
-3.43
-2.53
-0.23
2.20
3.34
2.54
0.29
-1.99
-2.81
-1.47
1.39
4.21
5.38
4.22
1.42
-1.37
-2.50
-1.33
1.41
4.06
5.00
3.66
0.79
-1.98
-3.12
-2.12
0.28
2.54
3.25
1.93
-0.69
-3.19
-4.25
-3.44
-1.35
0.68
1.45
0.49
-1.64
-3.73
-4.61
-3.79
-1.74
0.37
1.38
0.82
-0.83
-2.36
-2.54
-0.88
2.03
4.77
5.85
4.57
1.45
-2.03
-4.22
-4.23
-2.40
-0.07
1.22
0.65
-1.37
-3.45
-4.11
-2.63
0.40
3.46
4.91
3.97
1.20
-1.86
-3.54
-3.01
-0.77
1.72
2.92
2.13
-0.07
-2.18
-2.72
-1.13
1.89
4.76
5.96
4.88
2.20
-0.54
-1.84
-1.10
1.07
3.19
3.86
2.53
-0.12
-2.63
-3.58
-2.42
0.22
2.92
4.22
3.52
1.28
-1.20
-2.60
-2.28
-0.62
1.23
2.08
1.34
-0.56
-2.50
-3.26
-2.28
0.03
2.50
3.87
3.51
1.76
-0.27
-1.42
-1.06
0.45
2.06
2.65
1.69
-0.42
-2.55
-3.53
-2.82
-0.81
1.31
2.30
1.55
-0.54
-2.79
-3.88
-3.13
-0.89
1.67
3.21
2.96
1.14
-1.23
-2.93
-3.21
-2.21
-0.81
-0.06
-0.52
-1.95
-3.39
-3.82
-2.70
-0.39
2.06
3.48
3.22
1.56
-0.47
-1.68
-1.41
0.12
1.93
2.87
2.30
0.45
-1.73
-3.09
-2.97
-1.57
0.20
1.24
0.94
-0.49
-2.17
-3.04
-2.55
-0.91
0.99
2.13
1.98
0.77
-0.58
-1.03
-0.03
2.12
4.45
5.85
5.70
4.27
2.60
1.83
2.60
4.57
6.66
7.59
6.69
4.28
1.48
-0.38
-0.54
0.76
2.49
3.38
2.69
0.56
-2.02
-3.85
-4.20
-3.17
-1.62
-0.66
-0.97
-2.44
-4.28
-5.44
-5.29
-3.95
-2.30
-1.43
-2.05
-4.01
-6.37
-7.84
-7.48
-5.24
-2.00
0.81
2.01
1.24
-0.87
-3.15
-4.59
-4.92
-4.74
-4.94
-5.99
-7.48
-8.17
-6.74
-2.70
3.14
8.92
12.64
13.16
10.81
7.10
3.84
2.23
2.29
3.02
3.14
1.85
-0.64
-3.31
-4.81
-4.26
-1.69
1.93
5.22
7.14
7.47
6.96
6.76
7.63
9.43
10.98
10.84
8.18
3.53
-1.38
-4.46
-4.47
-1.85
1.42
2.87
1.01
-3.72
-9.13
-12.41
-11.77
-7.43
-1.55
3.00
4.04
1.25
-3.88
-8.86
-11.36
-10.25
-6.00
-0.57
3.59
4.42
1.13
-5.57
-14.01
-22.26
-28.60
-31.53
-29.42
-21.08
-6.70
11.05
26.87
34.54
30.08
14.61
-5.31
-20.41
-23.38
-12.71
6.87
27.38
42.10
48.77
49.45
47.92
46.77
45.94
43.68
38.58
31.02
23.07
17.21
14.74
14.82
15.17
13.28
7.58
-1.94
-14.03
-26.54
-37.28
-44.53
-47.47
-46.35
-42.42
-37.39
-32.75
-29.19
-26.31
-23.03
-18.25
-11.64
-3.91
3.39
8.75
11.48
12.17
12.19
12.93
14.82
17.14
18.55
18.06
15.68
12.53
10.07
9.24
9.99
11.39
12.29
11.98
10.46
8.28
6.07
4.22
2.76
1.51
0.30
-0.87
-1.87
-2.42
-2.27
-1.24
0.68
3.25
6.12
8.80
10.70
11.40
10.56
8.08
4.18
-0.58
-5.38
-9.29
-11.65
-12.27
-11.50
-9.96
-8.26
-6.79
-5.69
-5.05
-4.98
-5.62
-6.96
-8.78
-10.65
-12.14
-13.04
-13.34
-13.28
-13.11
-13.00
-12.99
-13.13
-13.48
-14.13
-15.11
-16.28
-17.34
-17.94
-17.94
-17.42
-16.76
-16.33
-16.36
-16.81
-17.38
-17.73
-17.67
-17.15
-16.31
-15.22
-13.91
-12.31
-10.35
-7.97
-5.17
-1.93
1.77
5.83
9.99
13.78
16.71
18.48
19.22
19.42
19.73
20.61
22.07
23.80
25.32
26.27
26.49
25.93
24.55
22.25
18.94
14.67
9.71
4.52
-0.33
-4.29
-6.98
-8.31
-8.55
-8.29
-8.26
-9.01
-10.61
-12.62
-14.29
-15.07
-14.94
-14.33
-13.72
-13.19
-12.32
-10.56
-7.76
-4.45
-1.67
-0.26
-0.41
-1.59
-2.96
-3.93
-4.43
-4.76
-5.21
-5.77
-6.23
-6.54
-7.07
-8.51
-11.43
-15.85
-21.15
-26.47
-31.09
-34.77
-37.53
-39.35
-39.92
-38.89
-36.29
-32.81
-29.60
-27.69
-27.31
-27.62
-27.01
-23.94
-17.73
-8.89
1.28
11.28
20.07
27.12
32.30
35.59
36.96
36.49
34.49
31.52
28.37
25.82
24.42
24.30
25.15
26.40
27.50
28.28
28.97
29.86
30.92
31.57
30.91
28.23
23.50
17.47
11.26
5.75
1.24
-2.46
-5.62
-8.25
-10.15
-11.18
-11.64
-12.18
-13.54
-16.16
-20.04
-24.68
-29.11
-32.04
-32.16
-28.75
-22.30
-14.63
-8.20
-4.93
-5.12
-7.23
-8.80
-7.86
-4.04
1.40
6.51
9.79
10.89
10.51
9.72
9.26
9.34
9.79
10.28
10.47
10.09
9.02
7.40
5.74
4.68
4.69
5.66
6.92
7.50
6.80
4.89
2.61
1.04
0.85
1.91
3.52
5.22
7.63
12.26
20.20
30.43
39.22
41.69
34.71
19.30
0.52
-15.23
-23.87
-25.54
-23.63
-21.50
-19.85
-16.59
-9.53
0.80
10.59
15.17
12.67
5.79
0.23
0.58
7.00
15.10
19.12
16.08
7.65
-1.20
-5.89
-5.37
-2.39
-1.12
-3.88
-9.45
-14.12
-14.54
-10.20
-3.83
0.48
-0.05
-5.04
-11.40
-15.45
-15.16
-11.15
-5.71
-1.12
1.78
3.68
5.80
8.73
12.00
14.53
15.54
15.11
13.98
12.93
12.21
11.52
10.47
9.01
7.65
7.07
7.75
9.45
11.33
12.29
11.51
8.75
4.43
-0.60
-5.38
-9.18
-11.76
-13.43
-14.83
-16.55
-18.63
-20.41
-20.75
-18.70
-14.19
-8.25
-2.65
1.03
2.16
1.41
0.24
0.13
1.73
4.69
7.83
9.90
10.05
8.09
4.43
-0.23
-5.10
-9.36
-12.27
-13.23
-12.00
-8.73
-4.02
1.29
6.41
10.75
14.01
16.15
17.23
17.37
16.79
15.79
14.79
14.25
14.40
15.06
15.70
15.73
14.88
13.44
12.07
11.46
11.90
13.11
14.48
15.36
15.43
14.71
13.53
12.33
11.60
11.84
13.36
16.10
19.34
21.75
21.85
18.66
12.27
3.87
-4.67
-11.64
-16.11
-18.02
-17.95
-16.59
-14.56
-12.30
-10.18
-8.66
-8.18
-8.98
-10.98
-13.74
-16.60
-18.94
-20.38
-20.81
-20.37
-19.37
-18.12
-16.91
-15.95
-15.31
-15.01
-14.96
-15.02
-15.03
-14.78
-14.11
-12.96
-11.45
-9.85
-8.42
-7.33
-6.53
-5.82
-4.93
-3.71
-2.16
-0.35
1.61
3.62
5.57
7.29
8.54
9.16
9.15
8.76
8.35
8.22
8.47
9.01
9.64
10.16
10.37
10.06
9.00
7.07
4.42
1.58
-0.77
-2.10
-2.39
-2.12
-1.92
-2.19
-2.84
-3.43
-3.56
-3.23
-2.78
-2.67
-3.06
-3.68
-4.07
-3.89
-3.23
-2.53
-2.34
-2.91
-4.03
-5.12
-5.63
-5.34
-4.52
-3.75
-3.60
-4.32
-5.70
-7.21
-8.28
-8.49
-7.84
-6.62
-5.31
-4.31
-3.78
-3.60
-3.50
-3.23
-2.74
-2.17
-1.75
-1.55
-1.45
-1.10
-0.22
1.23
2.94
4.42
5.32
5.58
5.48
5.41
5.59
5.97
6.32
6.40
6.10
5.53
4.83
4.20
3.78
3.67
3.86
4.28
4.68
4.81
4.50
3.78
2.97
2.46
2.56
3.26
4.31
5.28
5.83
5.87
5.53
5.10
4.80
4.70
4.67
4.51
4.10
3.46
2.79
2.32
2.13
2.07
1.91
1.45
0.80
0.35
0.58
1.69
3.39
5.07
6.03
6.01
5.21
4.21
3.53
3.34
3.38
3.25
2.73
1.91
1.11
0.65
0.61
0.83
1.04
1.03
0.78
0.41
0.03
-0.31
-0.62
-0.95
-1.32
-1.71
-2.13
-2.67
-3.37
-4.28
-5.34
-6.41
-7.38
-8.18
-8.87
-9.56
-10.33
-11.16
-11.92
-12.40
-12.50
-12.21
-11.67
-11.08
-10.57
-10.18
-9.82
-9.32
-8.50
-7.27
-5.70
-3.99
-2.43
-1.25
-0.52
-0.09
0.31
0.89
1.70
2.60
3.37
3.85
4.07
4.16
4.26
4.39
4.45
4.32
3.97
3.52
3.15
2.99
3.01
3.10
3.11
2.99
2.82
2.71
2.75
2.91
3.07
3.13
3.02
2.77
2.47
2.23
2.15
2.25
2.43
2.50
2.25
1.61
0.73
-0.04
-0.38
-0.22
0.20
0.49
0.49
0.39
0.60
1.28
2.10
2.35
1.51
-0.28
-2.20
-3.27
-3.16
-2.42
-2.17
-3.27
-5.68
-8.45
-10.32
-10.58
-9.37
-7.59
-6.22
-5.91
-6.71
-8.16
-9.46
-9.80
-8.68
-6.19
-3.10
-0.53
0.77
0.88
0.76
1.53
3.68
6.60
8.98
9.83
9.22
8.33
8.60
10.66
13.78
16.37
17.10
15.79
13.56
12.05
12.31
14.09
16.10
16.78
15.39
12.40
9.28
7.54
7.88
9.82
12.02
13.12
12.60
11.01
9.66
9.76
11.69
14.78
17.71
19.33
19.36
18.49
17.85
18.30
19.91
22.00
23.68
24.49
24.56
24.08
22.54
18.59
10.75
-1.23
-15.61
-28.99
-37.98
-40.98
-39.09
-35.32
-32.83
-33.05
-35.15
-36.90
-36.32
-32.90
-27.81
-22.98
-19.94
-19.07
-19.65
-20.40
-20.12
-18.12
-14.53
-10.30
-6.72
-4.78
-4.62
-5.36
-5.63
-4.44
-1.87
1.01
2.80
2.71
1.04
-1.10
-2.48
-2.50
-1.42
-0.05
0.87
1.08
0.82
0.57
0.69
1.29
2.19
3.13
3.85
4.16
3.94
3.19
2.07
0.87
-0.06
-0.44
-0.22
0.33
0.75
0.59
-0.35
-1.81
-3.22
-3.95
-3.64
-2.32
-0.38
1.77
3.83
5.73
7.46
8.94
9.95
10.24
9.75
8.69
7.49
6.56
6.10
5.97
5.88
5.54
4.86
4.01
3.26
2.86
2.88
3.17
3.53
3.77
3.91
4.13
4.63
5.49
6.60
7.66
8.35
8.49
8.10
7.38
6.61
6.02
5.67
5.47
5.20
4.64
3.70
2.50
1.32
0.47
0.12
0.22
0.52
0.71
0.65
0.37
0.09
0.02
0.18
0.33
0.13
-0.65
-1.91
-3.25
-4.09
-4.01
-3.03
-1.60
-0.41
-0.06
-0.77
-2.27
-4.00
-5.46
-6.43
-7.12
-7.98
-9.38
-11.40
-13.69
-15.66
-16.81
-17.02
-16.69
-16.52
-17.21
-18.99
-21.51
-23.94
-25.40
-25.43
-24.19
-22.40
-20.93
-20.35
-20.70
-21.48
-21.98
-21.62
-20.09
-17.40
-13.68
-9.13
-4.02
1.29
6.27
10.45
13.51
15.53
16.86
17.98
19.24
20.72
22.24
23.50
24.21
24.18
23.42
22.16
20.94
20.37
20.82
22.08
23.10
22.30
18.23
10.51
0.28
-9.98
-17.48
-20.41
-18.76
-14.20
-9.16
-5.53
-3.77
-3.02
-1.98
0.06
2.66
4.51
4.46
2.43
-0.29
-1.63
-0.00
4.79
11.43
17.85
22.43
24.96
26.61
29.20
33.88
40.44
47.30
52.41
54.39
53.26
50.33
47.35
45.47
44.56
43.49
40.87
36.10
29.63
22.28
14.12
3.82
-10.69
-30.44
-53.54
-74.85
-87.75
-87.34
-73.40
-51.06
-28.62
-13.54
-8.91
-12.48
-18.69
-22.27
-21.15
-16.95
-13.06
-11.93
-13.35
-14.97
-14.16
-10.02
-4.07
0.72
1.94
-0.73
-5.37
-8.96
-9.14
-5.42
0.83
7.31
12.06
14.29
14.44
13.59
12.75
12.27
11.86
10.86
8.69
5.18
0.59
-4.54
-9.74
-14.80
-19.67
-24.16
-27.59
-28.77
-26.43
-20.02
-10.32
0.57
10.11
16.56
19.87
21.52
23.48
26.90
31.43
35.61
38.02
38.30
37.24
35.91
34.69
32.83
29.04
22.60
14.07
5.17
-2.12
-6.57
-8.17
-8.05
-7.98
-9.80
-14.86
-23.39
-34.03
-44.06
-50.26
-50.40
-44.59
-35.38
-26.60
-21.41
-20.63
-22.58
-24.30
-23.47
-19.67
-14.28
-9.40
-6.50
-5.74
-6.32
-7.24
-8.05
-8.94
-10.50
-13.18
-16.90
-21.01
-24.55
-26.66
-26.87
-25.31
-22.49
-19.14
-15.74
-12.30
-8.31
-2.97
4.31
13.39
23.20
31.92
37.65
39.15
36.37
30.32
22.68
14.96
8.14
2.55
-1.86
-5.26
-7.74
-9.48
-10.87
-12.57
-15.25
-19.22
-24.10
-28.92
-32.43
-33.66
-32.30
-28.66
-23.31
-16.64
-8.62
0.96
12.05
23.85
34.81
42.96
46.73
45.45
39.59
30.62
20.49
11.11
3.89
-0.65
-2.98
-4.27
-5.87
-8.58
-12.27
-16.07
-19.01
-20.61
-21.14
-21.14
-20.69
-19.10
-15.12
-7.84
2.55
14.56
25.94
34.68
39.75
41.30
40.34
38.12
35.65
33.41
31.32
28.92
25.62
20.99
15.04
8.16
0.96
-6.18
-13.30
-20.62
-28.07
-34.72
-38.84
-38.52
-32.72
-22.06
-8.82
3.93
13.52
18.77
20.20
19.50
18.57
18.61
19.65
20.79
20.70
18.31
13.28
6.17
-1.84
-9.50
-16.18
-22.08
-27.89
-33.86
-39.19
-41.98
-40.34
-33.62
-23.20
-12.02
-3.13
1.96
3.97
5.26
8.24
13.94
21.50
29.01
34.73
38.11
39.71
40.29
39.96
37.95
33.12
24.90
14.01
2.30
-7.96
-15.10
-18.77
-20.09
-21.02
-23.48
-28.40
-35.15
-41.81
-45.76
-44.81
-38.19
-26.93
-13.47
-0.71
9.27
16.00
20.56
24.80
30.12
36.57
42.63
45.81
43.83
35.79
22.73
7.37
-7.04
-18.23
-25.82
-31.12
-35.86
-40.72
-44.70
-45.85
-42.82
-36.01
-27.54
-20.01
-14.80
-11.49
-8.32
-3.68
2.77
10.02
16.72
22.21
26.94
31.81
37.00
41.29
42.42
38.39
28.71
14.89
-0.06
-12.96
-21.66
-25.69
-26.09
-24.75
-23.43
-23.07
-23.58
-24.05
-23.29
-20.36
-15.09
-8.10
-0.55
6.47
12.44
17.68
22.94
28.90
35.61
42.39
48.14
51.58
51.57
47.24
38.10
24.46
7.88
-8.85
-22.58
-31.05
-34.09
-33.60
-32.34
-32.20
-33.14
-33.56
-31.76
-27.30
-21.29
-15.47
-10.78
-6.65
-1.51
5.87
15.31
25.11
33.08
37.89
39.56
39.03
37.04
33.37
27.01
17.23
4.53
-8.99
-20.38
-27.28
-29.04
-27.02
-23.93
-22.47
-24.22
-29.10
-35.69
-41.95
-46.05
-46.76
-43.53
-36.37
-25.90
-13.22
0.08
12.39
22.57
30.42
36.59
42.14
47.87
53.66
58.40
60.48
58.46
51.63
40.16
25.05
7.96
-9.01
-23.56
-33.62
-37.99
-36.93
-32.25
-26.70
-22.79
-21.57
-22.14
-22.20
-19.28
-12.15
-1.50
10.39
20.78
27.74
30.85
31.14
30.24
29.43
28.87
27.56
24.13
17.66
8.44
-2.05
-11.74
-19.07
-23.77
-26.92
-30.15
-34.46
-39.55
-43.95
-46.00
-44.94
-41.39
-36.76
-32.25
-28.00
-23.04
-16.18
-7.01
3.54
13.65
21.66
27.05
30.70
34.20
38.55
43.16
45.86
43.89
35.47
21.06
3.54
-13.05
-25.21
-31.54
-33.01
-31.84
-29.83
-27.32
-23.34
-16.97
-8.58
-0.07
6.26
9.29
10.02
10.90
14.19
20.38
27.81
33.80
36.41
35.61
33.02
30.47
28.46
25.83
20.65
11.77
-0.06
-12.27
-21.79
-26.61
-26.68
-23.84
-20.79
-19.78
-21.77
-26.36
-32.21
-37.70
-41.41
-42.31
-39.81
-33.72
-24.38
-12.67
0.09
12.41
23.04
31.35
37.44
41.97
45.55
48.20
49.10
46.80
40.13
29.00
14.85
0.13
-12.88
-23.04
-30.64
-36.44
-40.46
-41.51
-37.95
-29.33
-17.50
-6.22
0.75
1.82
-1.30
-4.59
-3.97
2.34
13.10
25.13
35.22
41.70
44.56
44.45
41.59
35.58
26.12
14.04
1.51
-8.74
-14.88
-17.02
-17.13
-17.99
-21.64
-28.22
-36.02
-42.46
-45.54
-44.78
-41.20
-36.50
-31.85
-27.25
-21.77
-14.22
-4.23
7.39
19.09
29.32
37.36
43.40
47.92
50.83
51.22
47.66
39.32
26.75
11.92
-2.57
-14.69
-23.58
-29.34
-32.30
-32.40
-29.34
-23.36
-15.67
-8.26
-2.95
-0.36
0.52
1.71
4.96
10.84
18.45
26.12
32.40
36.60
38.79
39.15
37.36
32.70
24.64
13.53
0.80
-11.33
-20.95
-27.41
-31.72
-36.03
-42.24
-50.62
-59.28
-64.92
-64.63
-57.51
-45.28
-31.36
-18.98
-9.62
-2.54
4.49
13.53
25.34
38.85
52.00
62.45
68.61
69.98
66.83
59.88
49.85
37.38
23.11
7.79
-7.58
-21.58
-32.41
-38.43
-38.75
-34.03
-26.48
-19.12
-14.45
-13.37
-14.80
-16.36
-15.64
-11.22
-3.09
7.80
20.22
33.02
44.87
53.73
57.13
52.77
40.33
22.06
2.33
-14.17
-24.60
-29.10
-30.36
-31.90
-36.11
-43.07
-50.81
-56.68
-58.79
-56.77
-51.48
-44.13
-35.50
-25.85
-15.30
-4.32
6.21
15.51
23.42
30.75
38.80
48.36
58.92
68.46
74.05
73.07
64.56
49.63
31.19
12.70
-3.10
-14.97
-23.11
-28.43
-31.66
-32.92
-31.95
-28.80
-24.23
-19.48
-15.56
-12.67
-10.12
-6.97
-2.83
1.82
6.11
9.57
12.72
16.72
22.33
28.98
34.51
36.02
31.39
20.43
5.24
-10.61
-23.46
-30.96
-32.76
-30.50
-26.94
-24.68
-25.12
-27.88
-31.15
-32.71
-30.96
-25.60
-17.51
-8.12
1.33
10.27
18.63
26.57
34.06
40.80
46.15
49.25
49.06
44.50
35.00
20.97
4.29
-12.07
-25.10
-33.12
-36.49
-37.03
-36.68
-36.08
-34.35
-30.04
-22.76
-13.89
-6.15
-1.89
-1.48
-2.88
-2.64
2.12
12.22
26.09
40.54
52.13
58.28
57.69
50.46
37.98
22.68
7.48
-5.00
-13.32
-17.77
-20.24
-23.33
-29.04
-37.78
-48.13
-57.46
-63.12
-63.52
-58.71
-50.10
-39.72
-29.29
-19.60
-10.46
-1.20
8.76
19.41
30.18
40.14
48.21
53.40
54.88
52.20
45.63
36.08
24.88
13.30
2.20
-8.07
-17.44
-25.67
-32.10
-35.71
-35.62
-31.55
-24.31
-15.58
-7.33
-1.15
2.47
4.43
6.67
11.48
20.57
34.06
50.02
64.63
73.25
71.93
59.20
36.96
10.16
-14.70
-32.29
-40.55
-41.41
-39.49
-39.53
-44.02
-52.17
-60.93
-67.02
-68.67
-66.16
-60.94
-54.22
-46.12
-35.91
-22.85
-7.13
10.16
27.29
42.74
55.58
65.25
71.55
74.33
73.72
70.27
64.97
58.77
52.15
44.69
35.02
21.70
4.22
-16.01
-35.53
-49.74
-54.80
-49.53
-36.24
-19.88
-5.75
2.88
6.18
7.25
10.11
17.41
28.96
41.92
52.01
55.58
50.81
38.43
21.41
3.68
-11.03
-20.79
-25.99
-28.92
-32.28
-37.53
-44.10
-50.02
-53.55
-54.54
-54.56
-55.56
-58.20
-60.82
-60.19
-53.47
-40.06
-22.13
-3.49
12.33
23.82
31.69
37.87
44.00
50.35
55.89
59.15
59.28
56.27
50.69
42.65
31.35
15.70
-4.30
-26.27
-45.38
-56.07
-54.87
-42.57
-24.32
-7.28
2.85
4.51
0.46
-4.25
-5.23
-0.83
7.94
18.87
30.27
41.54
52.18
60.74
64.47
60.47
47.66
28.09
6.52
-11.56
-22.57
-26.40
-26.09
-25.92
-29.00
-35.80
-44.21
-51.13
-54.17
-52.65
-47.46
-40.08
-31.41
-21.50
-9.87
3.66
18.31
32.35
43.89
51.76
56.06
57.67
57.54
55.80
51.75
44.51
33.91
21.02
7.77
-3.87
-12.76
-18.76
-22.37
-24.01
-23.93
-22.51
-20.66
-19.84
-21.08
-24.13
-27.05
-27.05
-22.13
-12.45
-0.46
10.40
17.60
20.69
21.29
21.54
22.52
23.47
22.49
18.02
10.08
0.36
-8.87
-16.11
-21.35
-25.84
-31.02
-37.32
-43.70
-48.23
-49.11
-45.71
-38.73
-29.82
-20.59
-11.98
-4.11
3.43
11.01
18.71
26.38
33.87
41.10
47.84
53.39
56.54
56.00
51.02
41.95
30.30
18.05
6.90
-2.37
-9.82
-15.88
-20.67
-23.91
-25.22
-24.84
-23.79
-23.37
-24.22
-25.56
-25.50
-22.04
-14.47
-3.88
7.31
16.69
23.20
27.44
30.95
34.70
38.02
38.77
34.55
24.46
9.90
-5.76
-18.75
-26.72
-29.74
-30.02
-30.56
-33.53
-39.23
-46.21
-52.27
-55.65
-55.64
-52.49
-46.72
-38.62
-28.14
-15.35
-0.87
14.02
27.84
39.57
49.13
57.27
64.68
71.27
75.67
75.78
69.77
57.19
39.41
19.15
-0.58
-17.49
-30.43
-39.15
-43.64
-43.92
-40.31
-33.96
-26.96
-21.59
-19.11
-18.83
-18.43
-15.25
-7.96
2.51
13.59
22.53
27.96
30.32
31.10
31.32
30.62
27.61
21.05
11.29
0.41
-8.63
-13.67
-14.49
-12.89
-11.58
-12.73
-16.91
-23.15
-29.76
-35.32
-39.10
-40.86
-40.21
-36.37
-28.45
-16.41
-1.54
13.48
25.73
33.32
36.35
36.72
36.94
38.50
40.97
42.26
39.94
32.80
21.66
9.02
-2.31
-10.72
-16.36
-20.76
-25.29
-30.07
-33.63
-33.95
-29.91
-22.33
-13.66
-6.54
-2.26
0.01
2.42
6.94
13.91
21.81
28.26
31.58
31.75
30.14
28.27
26.63
24.44
20.49
14.24
6.49
-1.16
-7.54
-12.83
-18.50
-26.20
-36.32
-47.29
-56.28
-60.65
-59.27
-52.90
-43.41
-32.55
-21.16
-9.36
2.75
14.35
24.11
30.86
34.64
36.95
39.98
45.24
52.21
58.40
60.40
55.80
44.49
28.80
12.26
-2.09
-13.03
-21.03
-27.29
-32.39
-35.77
-36.31
-33.45
-27.97
-21.70
-16.45
-12.94
-10.48
-7.71
-3.56
2.09
8.51
14.92
21.06
27.28
33.99
40.84
46.25
47.77
43.21
31.79
14.93
-4.06
-21.26
-33.76
-40.82
-43.97
-45.83
-48.57
-52.68
-56.90
-59.13
-57.59
-51.64
-41.75
-29.13
-15.17
-1.27
11.33
21.60
29.07
34.11
37.97
42.20
47.78
54.43
60.49
63.57
61.58
53.63
40.30
23.22
4.38
-14.48
-31.84
-46.19
-55.70
-58.59
-54.03
-43.22
-29.49
-17.12
-9.38
-6.75
-6.79
-5.66
-0.46
9.07
20.53
30.45
36.33
38.02
37.37
36.69
37.08
37.56
35.80
29.66
18.76
5.08
-7.96
-17.27
-21.73
-22.84
-23.72
-27.39
-34.86
-44.66
-53.67
-58.82
-58.47
-52.85
-43.41
-31.81
-19.42
-7.20
3.99
13.35
20.41
25.38
29.34
33.70
39.31
45.70
51.01
52.81
49.28
40.22
27.21
12.84
-0.47
-11.42
-19.88
-26.25
-30.63
-32.38
-30.73
-25.68
-18.63
-11.91
-7.57
-6.00
-5.71
-4.26
0.06
7.14
15.09
21.52
25.03
25.98
26.05
26.73
28.16
28.85
26.72
20.58
11.20
1.08
-6.84
-10.91
-11.67
-11.58
