1541859488.00
64.000000
-0.00
-0.00
-0.00
-0.00
-0.00
-0.00
-0.00
-0.00
-0.00
-0.00
0.00
0.01
0.01
-0.00
-0.03
-0.05
-0.05
0.00
0.13
0.36
0.66
1.01
1.37
1.72
2.06
2.40
2.79
3.24
3.80
4.42
5.06
5.67
6.21
6.69
7.17
7.71
8.37
9.24
10.24
11.27
12.22
13.03
13.77
14.59
15.69
17.24
19.44
22.11
24.97
27.73
30.22
32.53
34.98
38.01
41.92
47.06
53.05
59.33
65.31
70.68
75.54
80.46
86.19
93.28
102.20
112.35
122.89
132.88
141.82
149.83
157.66
166.70
175.65
186.64
200.09
216.01
233.18
248.82
258.82
258.79
245.49
217.94
178.21
129.65
76.31
21.36
-33.38
-87.06
-139.18
-189.06
-236.01
-279.27
-318.97
-355.26
-387.92
-415.77
-436.60
-447.78
-447.30
-434.86
-412.00
-382.92
-351.98
-322.48
-295.88
-271.77
-248.71
-225.51
-202.24
-180.29
-161.98
-149.35
-143.48
-144.28
-150.38
-159.26
-167.32
-170.06
-162.86
-142.58
-109.08
-65.92
-20.40
18.91
45.53
57.64
58.47
54.35
51.43
53.06
58.91
66.23
72.46
77.25
82.52
90.83
102.94
116.23
125.38
124.90
112.32
90.23
65.74
47.34
41.01
47.39
61.53
75.58
82.67
80.16
70.36
58.48
49.34
44.72
42.93
40.55
35.12
27.25
20.48
19.32
26.40
40.43
56.28
67.13
67.65
56.60
37.35
16.05
-1.08
-10.39
-11.69
-7.44
-0.84
5.99
12.69
19.87
27.79
35.41
40.43
40.60
35.23
26.26
17.74
14.00
17.17
25.67
34.41
37.12
29.64
12.50
-8.84
-26.41
-33.54
-28.16
-13.66
3.01
15.05
19.18
16.91
12.77
11.28
13.98
18.58
20.57
16.03
4.33
-11.31
-25.41
-33.16
-32.76
-26.12
-17.40
-10.44
-6.58
-4.22
-0.28
7.41
18.25
28.67
33.83
30.36
18.63
2.87
-11.10
-19.18
-21.54
-22.52
-27.77
-40.29
-57.65
-72.60
-76.70
-65.19
-39.97
-9.05
17.52
32.71
35.98
32.94
31.56
37.06
48.57
59.11
59.43
43.15
10.78
-29.91
-67.56
-92.55
-101.27
-96.89
-86.36
-75.82
-66.99
-56.96
-41.10
-17.10
12.39
40.45
59.38
64.83
58.51
47.47
40.39
42.73
53.53
65.55
69.06
57.32
30.76
-2.47
-30.20
-42.13
-34.70
-12.36
15.33
39.08
54.54
63.69
72.06
83.96
98.62
109.91
109.94
94.36
66.27
36.15
17.33
19.45
43.31
79.87
114.24
132.49
127.92
103.44
69.06
36.45
13.68
2.68
0.56
3.15
8.46
17.75
33.65
56.57
81.97
100.83
103.38
84.46
47.38
3.79
-30.91
-44.43
-33.29
-4.28
28.98
52.67
59.15
49.55
31.54
13.85
1.22
-7.41
-16.61
-29.96
-46.22
-58.95
-60.02
-44.65
-15.09
19.43
46.64
57.05
48.39
26.17
0.33
-20.21
-31.54
-35.70
-37.86
-42.06
-47.82
-49.89
-41.40
-18.73
14.96
49.59
72.07
72.35
48.47
8.00
-35.38
-67.95
-81.73
-77.03
-60.65
-41.16
-24.04
-9.36
6.49
26.52
49.30
67.95
73.20
58.69
25.45
-17.21
-55.43
-77.09
-77.32
-60.33
-36.43
-16.21
-5.03
-0.90
3.09
13.41
31.36
51.48
64.29
61.67
41.66
10.04
-22.70
-46.73
-57.69
-58.17
-54.97
-54.06
-56.31
-56.53
-46.85
-22.27
15.11
55.43
84.87
92.02
73.28
34.75
-10.70
-49.10
-71.07
-74.76
-64.83
-48.62
-31.80
-15.82
1.14
20.89
41.90
58.28
62.18
48.27
17.82
-20.29
-52.74
-67.71
-60.33
-34.99
-2.95
23.32
36.15
35.80
28.89
23.28
22.84
25.16
23.53
11.91
-10.30
-36.68
-56.68
-61.25
-47.85
-22.14
5.02
23.27
28.10
22.81
15.81
15.04
22.82
34.25
39.97
31.94
8.54
-23.65
-52.95
-68.52
-65.90
-49.03
-27.42
-10.62
-2.95
-1.45
1.41
12.23
31.83
53.77
67.29
63.21
39.22
1.87
-36.35
-62.88
-70.88
-61.89
-43.79
-25.82
-13.39
-5.61
2.78
16.66
36.02
54.48
62.33
52.07
23.43
-14.93
-48.84
-65.09
-57.68
-30.67
4.00
32.49
45.59
42.47
29.47
15.15
4.93
-1.62
-9.24
-22.47
-41.38
-60.06
-69.43
-62.26
-37.69
-2.46
32.05
55.27
62.37
56.28
45.19
37.46
36.68
39.69
38.65
26.11
-0.03
-34.29
-65.82
-83.67
-82.28
-64.08
-37.71
-13.21
3.37
12.53
19.71
30.64
46.58
62.44
69.00
58.32
28.87
-12.16
-51.48
-75.54
-76.84
-57.19
-26.31
3.45
23.20
31.18
31.89
31.50
32.92
33.57
27.42
9.90
-17.61
-46.39
-63.97
-60.37
-33.77
7.64
48.97
75.34
78.60
60.60
31.04
1.73
-19.25
-30.58
-36.37
-41.81
-48.76
-53.84
-50.51
-33.55
-3.38
32.54
62.34
75.17
66.48
40.33
7.23
-21.17
-37.56
-41.82
-39.55
-37.66
-39.64
-43.06
-41.26
-27.99
-2.26
29.77
56.96
68.57
59.76
34.32
2.56
-24.17
-38.96
-42.13
-39.56
-37.93
-39.91
-42.00
-36.78
-18.02
14.40
52.78
84.26
96.66
84.33
51.04
8.08
-31.07
-56.58
-65.78
-62.62
-53.85
-44.42
-34.63
-20.97
0.02
27.65
55.40
73.06
71.88
49.69
13.08
-25.08
-51.56
-58.78
-47.98
-27.58
-8.16
3.45
7.46
10.00
18.33
35.45
57.29
74.09
75.59
56.80
21.35
-20.01
-54.57
-73.71
-76.43
-68.48
-57.83
-49.50
-42.62
-31.70
-11.23
19.51
54.44
82.66
93.62
82.54
53.16
15.96
-16.92
-37.24
-43.90
-42.01
-38.70
-38.21
-39.05
-35.19
-20.57
5.89
38.07
64.52
73.91
60.90
29.26
-9.82
-43.23
-61.98
-64.75
-57.04
-46.78
-39.15
-33.66
-25.16
-8.10
18.84
50.51
77.02
88.40
79.73
54.07
20.98
-8.25
-26.00
-31.59
-30.54
-30.27
-35.09
-43.29
-48.15
-42.43
-23.32
5.08
33.32
51.27
53.46
41.89
24.64
11.08
6.55
9.51
12.76
8.11
-8.42
-33.62
-58.53
-73.20
-72.04
-56.59
-34.21
-13.64
-0.14
7.06
13.36
24.70
43.13
64.94
82.14
86.58
74.52
48.97
18.53
-6.95
-21.21
-24.48
-22.68
-23.33
-30.71
-42.97
-53.16
-53.50
-40.24
-16.28
10.09
29.56
36.74
32.95
25.02
21.00
25.08
34.91
42.66
39.43
20.60
-10.98
-45.96
-73.03
-84.67
-80.52
-66.81
-52.08
-42.09
-36.69
-30.71
-18.13
3.46
30.53
54.95
68.28
66.29
51.44
31.64
15.94
9.63
11.55
15.04
12.15
-1.38
-23.14
-45.09
-57.88
-55.91
-40.28
-17.81
2.94
16.33
22.43
26.06
33.13
46.40
63.34
77.06
80.09
68.60
45.06
17.51
-4.47
-14.77
-13.90
-8.67
-8.12
-18.13
-37.80
-59.79
-74.56
-75.77
-63.67
-44.49
-26.57
-15.39
-10.71
-7.49
0.41
15.92
36.57
55.69
66.12
64.31
52.60
38.12
29.09
30.21
39.92
51.04
54.60
44.90
23.18
-2.64
-22.09
-28.04
-20.85
-8.38
-1.67
-8.52
-28.87
-54.72
-74.84
-81.22
-73.49
-58.67
-46.57
-43.69
-49.37
-56.64
-56.81
-45.04
-23.35
0.61
18.07
24.21
20.90
15.44
16.13
27.20
46.03
64.13
71.47
61.86
36.47
3.45
-26.23
-44.28
-48.89
-44.71
-39.23
-37.86
-40.58
-42.29
-36.47
-19.77
5.33
31.24
49.14
53.60
45.41
30.95
18.27
12.52
13.08
14.26
9.18
-5.50
-26.84
-46.51
-55.16
-47.60
-25.70
2.34
26.30
39.04
39.78
33.56
27.39
25.63
27.45
27.63
20.44
3.77
-18.56
-38.18
-46.38
-38.75
-17.70
8.74
30.84
42.02
41.77
35.12
28.87
27.17
28.97
28.74
20.19
0.69
-26.17
-51.61
-65.90
-63.43
-45.62
-20.25
2.71
16.24
19.65
18.28
19.55
27.92
41.79
53.88
55.25
40.58
11.75
-22.51
-50.94
-65.52
-65.31
-56.41
-47.74
-45.51
-49.54
-53.76
-50.39
-35.11
-10.02
17.34
38.11
47.03
45.20
39.17
36.97
43.33
56.90
70.76
76.22
67.64
45.76
17.60
-7.29
-21.96
-25.49
-22.97
-21.82
-26.92
-37.31
-46.81
-47.86
-36.32
-14.08
11.81
33.04
44.46
46.70
45.23
46.74
54.78
67.35
77.56
77.30
61.82
32.97
-1.08
-29.77
-45.55
-47.87
-43.32
-41.70
-50.19
-68.90
-90.71
-105.56
-106.51
-93.80
-74.60
-58.60
-52.22
-55.00
-60.31
-59.80
-48.61
-28.22
-5.32
12.42
20.89
21.91
21.86
27.70
42.59
63.85
84.13
95.37
93.09
79.11
60.80
47.19
44.08
50.70
59.95
62.19
50.65
25.53
-5.85
-33.05
-48.25
-50.33
-45.03
-40.94
-44.01
-53.86
-64.27
-67.27
-58.27
-38.80
-15.66
3.21
13.21
15.43
15.53
19.89
31.57
48.22
63.18
69.05
61.85
43.55
21.58
5.01
-0.30
4.92
13.43
15.37
3.84
-20.85
-50.93
-75.36
-85.67
-80.37
-65.12
-48.78
-37.94
-33.06
-28.76
-17.86
3.51
32.83
61.90
80.94
83.61
70.26
47.46
24.27
7.44
-1.56
-6.32
-12.19
-22.14
-34.21
-42.25
-39.60
-23.47
2.71
30.21
49.05
52.87
42.07
23.32
5.69
-4.40
-6.55
-6.12
-10.46
-24.01
-44.85
-65.25
-75.72
-70.31
-49.97
-21.97
4.06
21.30
29.04
32.22
37.65
49.10
64.54
76.60
76.62
59.55
27.31
-11.57
-45.88
-67.12
-73.22
-68.67
-61.01
-55.92
-53.71
-49.53
-36.96
-12.85
19.73
52.13
74.16
79.31
68.13
47.89
28.37
16.54
12.96
12.07
6.21
-9.11
-31.80
-53.85
-65.64
-61.48
-42.79
-17.38
4.95
17.67
20.82
20.36
23.95
35.90
54.03
70.41
75.49
63.50
36.09
1.91
-27.75
-44.90
-48.79
-45.74
-44.76
-51.76
-65.75
-79.42
-83.74
-73.47
-50.31
-21.83
2.96
18.60
25.83
30.35
38.69
53.68
72.37
87.31
90.59
78.46
53.80
25.18
2.54
-7.90
-6.86
-1.35
-0.43
-9.92
-28.77
-49.71
-63.40
-63.84
-51.52
-32.89
-16.33
-7.49
-6.41
-8.27
-6.90
1.24
14.91
28.97
37.44
37.07
29.26
19.40
13.80
16.00
24.65
33.93
36.66
28.26
9.52
-13.64
-33.31
-43.74
-44.24
-39.00
-34.18
-33.95
-37.94
-41.66
-39.48
-28.32
-9.70
10.81
26.63
33.58
32.06
26.48
22.59
24.09
30.55
37.68
39.90
33.67
19.90
3.72
-8.27
-11.85
-7.66
-1.03
1.10
-5.75
-20.72
-38.01
-50.11
-52.05
-43.98
-30.70
-18.53
-11.50
-9.12
-7.13
-0.55
12.86
30.90
47.78
57.10
55.32
43.85
28.43
16.22
11.95
15.51
21.95
24.42
18.09
3.13
-15.31
-30.14
-36.51
-34.73
-29.88
-28.66
-34.93
-47.16
-59.08
-63.45
-56.37
-39.57
-19.46
-3.45
4.05
3.79
0.66
0.47
6.38
17.22
28.41
34.94
34.45
28.86
23.42
23.67
32.13
46.45
60.20
65.94
59.04
40.37
16.04
-5.63
-18.37
-21.10
-18.05
-15.97
-19.88
-29.97
-41.67
-48.57
-46.51
-36.14
-22.53
-11.96
-8.13
-9.75
-11.44
-7.05
6.33
26.30
45.99
57.45
55.81
41.77
21.21
1.82
-10.93
-16.52
-18.90
-23.43
-32.86
-45.09
-53.97
-52.94
-39.14
-15.51
10.29
29.70
37.51
34.42
26.20
20.22
21.10
28.20
35.93
37.18
27.43
7.78
-15.48
-34.15
-42.65
-40.91
-34.12
-29.30
-30.97
-38.23
-45.41
-45.60
-34.87
-14.75
8.58
27.67
37.77
39.01
35.82
33.91
36.81
43.85
50.72
52.26
45.66
32.60
18.55
9.81
9.71
16.35
23.24
22.72
10.40
-11.81
-36.25
-53.43
-57.27
-48.37
-33.78
-22.95
-22.47
-32.54
-47.27
-58.43
-60.23
-52.33
-39.31
-27.34
-20.16
-17.05
-13.74
-5.85
7.91
24.38
37.70
42.72
38.25
28.07
19.17
17.94
26.71
42.30
57.64
65.32
61.48
47.84
30.94
18.63
15.95
22.55
32.90
39.37
36.49
24.00
6.96
-7.41
-14.07
-13.19
-9.96
-11.23
-20.98
-37.47
-54.04
-63.11
-60.93
-50.03
-37.91
-32.53
-37.52
-49.85
-61.52
-64.25
-54.39
-34.95
-14.01
-0.11
2.37
-4.57
-13.93
-17.72
-11.37
4.12
23.06
38.41
45.49
44.25
38.74
34.54
35.49
41.82
50.28
56.31
56.72
51.61
44.13
38.51
37.33
39.83
42.17
39.67
29.77
14.06
-2.17
-12.75
-14.22
-8.19
-0.73
0.86
-7.70
-24.82
-43.67
-55.93
-56.51
-46.64
-33.17
-24.78
-26.90
-38.56
-52.97
-61.60
-59.16
-46.66
-30.73
-19.69
-18.66
-26.61
-37.08
-42.13
-36.98
-22.79
-5.81
6.24
8.61
2.19
-7.21
-12.33
-8.60
3.34
18.30
29.56
32.73
28.08
20.19
15.15
17.08
25.91
37.57
46.45
48.51
43.51
35.05
28.29
27.04
31.56
38.54
42.99
41.23
33.04
21.91
12.98
10.12
13.58
19.85
23.71
21.28
12.44
1.00
-7.51
-9.20
-4.11
3.66
8.31
5.77
-3.80
-15.97
-24.54
-25.22
-18.08
-7.72
-0.56
-1.22
-9.69
-21.20
-28.98
-28.12
-18.63
-5.57
3.64
3.47
-6.57
-21.49
-33.73
-37.47
-31.98
-21.93
-14.51
-15.13
-24.21
-36.99
-46.50
-47.73
-40.36
-28.67
-18.54
-13.78
-13.79
-14.30
-10.21
0.89
17.11
33.21
43.62
45.62
40.91
34.56
31.88
35.20
42.30
47.59
45.13
32.30
11.48
-10.82
-27.44
-34.32
-32.56
-27.43
-25.04
-28.53
-36.17
-42.57
-42.07
-32.37
-15.92
1.44
13.98
19.25
19.31
19.12
23.31
33.18
45.82
55.59
57.31
49.16
33.86
17.45
6.10
2.82
5.88
9.74
8.12
-2.47
-20.58
-40.46
-55.13
-60.03
-55.23
-45.09
-35.56
-30.78
-30.95
-32.58
-30.90
-22.79
-8.67
7.69
21.15
28.03
28.21
25.30
24.60
30.02
41.46
54.34
61.73
58.32
43.86
23.92
7.12
0.12
3.55
11.34
14.28
5.66
-14.33
-38.48
-56.74
-62.12
-54.51
-40.25
-27.70
-21.94
-21.91
-21.64
-14.67
1.39
22.95
42.33
52.02
48.85
35.70
19.76
8.43
5.29
8.41
11.68
8.58
-4.03
-23.86
-44.38
-58.24
-61.10
-53.51
-40.23
-27.24
-18.53
-14.22
-11.07
-4.98
6.33
21.68
36.88
46.83
48.40
42.44
33.63
28.12
30.00
38.71
48.83
53.01
46.19
29.07
8.09
-8.09
-13.71
-9.37
-1.64
0.89
-7.08
-24.41
-44.29
-58.41
-61.75
-55.02
-43.70
-34.32
-30.68
-31.96
-33.70
-30.85
-20.71
-4.50
13.37
27.53
34.45
34.29
30.79
29.29
33.60
43.65
54.98
60.90
56.29
40.99
20.50
3.21
-4.36
-1.69
5.30
7.59
-1.33
-21.25
-45.18
-63.44
-69.39
-63.04
-50.53
-39.94
-36.32
-38.98
-42.60
-41.09
-31.51
-15.66
1.27
13.80
19.20
18.74
16.69
17.85
24.83
36.67
49.14
56.90
56.34
47.82
35.84
26.72
25.01
30.68
38.80
42.28
36.11
20.64
1.64
-12.96
-17.83
-13.33
-5.31
-1.63
-7.47
-22.30
-40.19
-53.24
-56.10
-48.89
-37.04
-28.10
-27.50
-35.37
-46.58
-53.82
-51.89
-40.88
-26.00
-14.48
-11.16
-15.65
-22.67
-25.50
-20.14
-7.62
6.78
16.82
19.00
14.42
7.99
5.38
9.90
20.75
33.63
43.19
45.95
42.15
35.61
31.48
33.19
40.45
49.34
54.59
52.73
44.34
33.84
26.93
27.27
34.25
43.23
48.01
44.37
32.54
17.37
5.71
2.55
7.99
16.81
21.20
15.20
-1.48
-22.91
-40.13
-46.29
-40.63
-28.87
-19.76
-19.83
-29.53
-43.10
-52.36
-51.60
-40.99
-26.30
-15.39
-13.60
-20.68
-31.06
-37.30
-34.60
-23.60
-10.07
-1.48
-2.60
-12.65
-25.71
-34.25
-33.42
-23.74
-10.71
-1.48
-0.85
-8.53
-19.48
-27.01
-26.63
-18.62
-7.78
-0.46
-0.90
-8.55
-18.52
-24.46
-22.44
-13.21
-1.62
6.36
7.22
1.88
-5.09
-8.27
-4.66
5.00
16.76
25.92
29.49
27.68
23.68
21.75
24.82
32.81
42.37
48.67
48.03
40.34
29.45
21.10
19.64
25.35
34.14
39.92
38.14
28.68
15.95
6.33
4.40
10.38
20.02
27.01
26.53
18.00
5.49
-4.55
-6.94
-0.80
9.72
17.62
17.06
6.99
-7.98
-20.03
-22.86
-15.37
-2.57
7.38
7.96
-1.73
-16.38
-27.49
-28.38
-18.06
-1.93
11.23
14.17
5.23
-10.57
-24.47
-28.99
-22.28
-9.19
1.63
2.86
-7.00
-22.75
-35.69
-38.94
-31.49
-18.60
-8.55
-7.53
-16.05
-28.78
-37.83
-37.48
-27.43
-12.80
-1.14
1.91
-4.23
-14.88
-22.97
-23.26
-15.24
-3.35
5.78
7.29
0.90
-8.97
-15.95
-15.49
-7.47
3.81
12.21
13.42
7.32
-1.92
-8.52
-8.51
-2.02
6.94
12.84
11.97
4.62
-4.95
-11.11
-10.13
-2.33
8.08
15.43
16.00
10.06
1.79
-3.32
-1.67
6.40
16.90
24.48
25.59
20.40
12.82
8.04
9.47
16.68
25.64
31.04
29.48
21.41
11.02
3.71
3.07
8.88
17.36
23.31
23.14
16.95
8.54
3.04
3.86
10.59
19.26
24.57
23.06
15.07
4.60
-2.97
-3.98
1.42
9.32
14.20
12.22
3.35
-8.41
-17.50
-19.99
-15.82
-8.70
-3.96
-5.38
-13.02
-23.08
-30.16
-30.48
-24.23
-15.54
-10.22
-12.30
-21.69
-34.00
-43.10
-44.45
-37.68
-26.69
-17.54
-15.01
-19.85
-28.38
-34.73
-34.30
-26.41
-14.54
-4.20
0.43
-1.18
-5.61
-7.65
-3.41
7.39
21.21
32.72
37.83
35.98
30.43
26.20
27.16
33.78
42.98
49.83
50.38
43.95
33.75
25.18
22.75
27.30
35.23
40.26
36.89
23.71
4.61
-13.07
-22.45
-20.94
-11.99
-3.30
-2.55
-12.95
-31.22
-49.51
-60.05
-59.45
-50.49
-40.09
-34.90
-37.38
-44.37
-49.27
-46.35
-34.24
-16.74
-0.49
8.99
10.40
7.20
5.34
9.68
21.17
36.26
48.96
54.05
50.11
40.35
30.76
26.81
30.42
38.76
45.86
45.89
36.57
20.81
5.17
-4.00
-4.24
1.34
5.74
2.32
-11.21
-31.12
-49.57
-59.04
-56.50
-44.93
-31.36
-22.70
-21.71
-25.76
-28.97
-25.98
-15.22
0.14
14.18
21.69
21.04
15.10
9.45
9.01
15.35
25.80
35.02
38.08
33.13
22.40
11.00
3.91
3.26
7.31
11.53
11.37
5.02
-5.44
-15.24
-19.58
-16.51
-8.01
1.03
5.57
3.18
-4.55
-13.00
-17.22
-14.78
-7.20
1.01
5.00
2.36
-5.41
-13.77
-17.83
-15.16
-7.28
1.24
5.47
2.99
-4.77
-13.35
-17.83
-15.70
-8.22
0.33
5.21
3.89
-2.54
-10.16
-14.53
-13.18
-6.92
0.66
5.41
4.95
0.03
-6.08
-9.58
-8.33
-3.03
3.25
6.95
6.11
1.56
-3.67
-6.17
-4.24
1.19
7.02
9.84
7.96
2.48
-3.34
-6.00
-3.79
2.18
8.62
11.86
10.04
4.22
-2.24
-5.62
-3.97
1.70
8.08
11.43
9.73
3.90
-2.74
-6.41
-5.10
0.37
6.80
10.49
9.39
4.33
-1.54
-4.65
-3.07
2.30
8.35
11.54
10.01
4.69
-1.25
-4.33
-2.81
2.36
8.06
10.93
9.29
4.25
-1.00
-3.04
-0.29
5.98
12.38
15.28
12.93
6.55
-0.23
-3.46
-1.18
5.43
12.58
15.91
12.97
4.66
-5.18
-11.91
-12.63
-7.89
-1.36
2.34
0.22
-7.30
-16.60
-22.93
-23.17
-17.56
-9.56
-3.74
-3.11
-7.47
-13.55
-17.00
-14.93
-7.62
1.61
8.41
9.86
6.13
0.34
-3.25
-1.74
4.76
13.06
18.66
18.31
11.88
2.38
-5.76
-9.19
-7.43
-3.06
0.02
-0.97
-6.00
-12.17
-15.57
-13.61
-6.61
2.36
9.24
11.30
8.68
4.21
1.62
3.26
8.72
14.99
18.20
15.91
8.59
-0.48
-6.99
-8.15
-4.23
1.51
4.72
2.42
-5.18
-14.71
-21.55
-22.51
-17.58
-9.95
-3.97
-2.74
-6.25
-11.59
-14.69
-12.83
-6.28
1.92
7.77
8.65
4.86
-0.66
-4.00
-2.56
3.41
10.97
16.21
16.47
11.84
5.07
0.07
-0.40
3.81
10.07
14.51
14.24
9.12
1.73
-3.98
-5.01
-1.01
5.40
10.13
10.02
4.74
-3.09
-9.32
-10.65
-6.57
0.35
5.93
6.85
2.61
-4.24
-9.60
-10.16
-5.42
2.04
7.99
9.01
4.54
-2.80
-8.76
-9.93
-5.65
1.61
7.57
8.72
4.41
-2.84
-8.79
-9.97
-5.56
2.03
8.57
10.47
6.86
0.06
-5.87
-7.42
-3.73
2.98
8.69
9.97
6.05
-0.66
-6.04
-6.73
-2.12
5.29
11.26
12.28
7.70
0.19
-5.92
-7.17
-2.97
4.06
9.61
10.16
5.12
-2.74
-8.99
-10.13
-5.67
1.55
6.95
6.89
0.80
-8.34
-15.72
-17.44
-12.86
-4.95
1.46
2.41
-2.91
-11.59
-18.73
-20.33
-15.61
-7.43
-0.51
1.29
-2.86
-10.23
-16.22
-17.07
-12.09
-3.95
2.93
5.04
1.72
-4.39
-8.92
-8.33
-1.99
7.46
15.67
19.05
16.78
11.25
6.70
6.67
11.92
19.91
26.20
27.08
21.69
12.68
4.77
1.99
5.37
12.18
17.56
17.29
10.34
-0.42
-9.82
-13.48
-10.33
-3.37
2.19
1.94
-5.04
-15.55
-24.18
-26.51
-21.66
-12.84
-5.44
-3.85
-8.91
-17.47
-24.34
-25.35
-19.75
-10.57
-2.68
0.06
-2.97
-8.89
-13.18
-12.38
-6.08
2.92
10.29
12.68
9.64
3.81
-0.70
-0.60
4.71
12.85
19.82
22.22
19.09
12.45
6.08
3.41
5.57
10.75
15.25
15.66
10.88
2.96
-4.06
-6.36
-2.71
4.83
11.88
14.32
10.62
2.92
-4.25
-6.61
-2.71
5.21
12.43
14.58
10.27
2.06
-5.08
-6.71
-1.57
7.64
15.75
18.13
13.42
4.35
-3.88
-6.68
-2.72
5.26
12.10
13.18
7.23
-2.91
-11.99
-15.34
-11.52
-3.21
4.41
6.65
2.05
-6.81
-14.92
-17.67
-13.57
-5.10
2.76
5.44
1.38
-7.00
-14.62
-16.70
-11.52
-1.49
8.23
12.53
9.24
0.54
-8.28
-11.92
-8.15
0.97
10.23
14.23
10.59
1.52
-7.64
-11.59
-8.18
0.36
8.76
11.79
7.47
-1.79
-10.79
-14.57
-11.30
-3.29
4.45
7.31
3.65
-4.30
-11.82
-14.49
-10.72
-2.69
5.05
8.18
4.97
-2.66
-10.29
-13.59
-10.90
-4.04
2.69
5.04
1.34
-6.39
-13.65
-16.07
-11.96
-3.34
5.26
9.31
6.89
-0.24
-7.70
-11.09
-8.44
-1.31
6.13
9.55
6.96
-0.13
-7.67
-11.50
-9.74
-3.99
1.63
2.96
-1.62
-10.09
-17.81
-20.18
-15.37
-5.44
4.73
10.14
8.44
1.32
-6.53
-10.17
-7.27
0.61
8.93
12.83
10.05
2.28
-5.91
-9.69
-6.85
0.94
9.07
12.66
9.41
0.97
-8.01
-12.58
-10.30
-2.55
6.20
10.88
8.73
0.90
-8.19
-13.34
-11.42
-3.25
6.92
13.89
14.43
9.19
2.29
-1.15
1.91
10.60
20.65
26.78
25.88
19.07
11.05
7.33
10.93
20.47
30.78
35.82
32.41
22.35
11.54
6.58
10.77
21.62
31.98
34.06
24.08
5.01
-14.66
-25.64
-23.27
-10.49
3.49
8.24
-1.83
-23.88
-48.23
-63.90
-64.98
-54.08
-40.56
-34.75
-41.61
-57.67
-73.27
-78.54
-69.46
-50.19
-30.48
-19.80
-21.87
-32.49
-42.62
-43.95
-33.78
-16.36
-0.20
7.20
3.71
-6.38
-15.13
-15.60
-5.96
9.55
23.30
28.65
23.54
11.83
0.96
-2.54
3.53
15.90
27.84
33.05
29.45
20.24
11.94
10.55
17.94
30.59
41.68
44.99
38.43
25.65
13.87
9.62
15.02
26.49
36.67
38.72
30.42
15.60
1.93
-3.38
2.09
14.54
26.12
29.38
21.57
6.52
-7.59
-13.04
-6.92
6.95
20.15
24.48
16.74
0.80
-14.60
-20.85
-14.47
0.83
16.32
23.31
18.16
4.51
-9.16
-14.56
-8.50
5.30
18.56
23.33
16.59
2.10
-12.08
-18.32
-13.90
-2.47
8.25
11.02
3.38
-10.85
-23.95
-28.82
-23.08
-10.38
1.81
6.61
1.65
-9.40
-19.12
-20.76
-12.20
2.79
16.56
22.00
16.60
3.91
-8.61
-13.78
-8.93
2.75
14.23
18.65
13.35
1.58
-9.62
-13.56
-7.79
4.36
15.69
19.31
12.69
-0.69
-13.25
-17.74
-11.50
1.87
14.57
19.06
12.54
-1.20
-14.07
-18.35
-11.28
3.33
17.25
22.58
16.24
1.91
-12.22
-18.08
-12.41
1.42
15.33
21.24
15.70
2.04
-11.63
-17.24
-11.53
2.10
15.51
20.71
14.58
0.81
-12.43
-17.35
-11.18
2.32
15.16
19.87
13.71
0.30
-12.81
-18.54
-14.28
-3.28
7.39
10.98
4.91
-7.60
-19.42
-23.65
-17.52
-3.98
9.89
16.94
14.06
4.05
-6.07
-9.21
-2.51
10.88
23.66
28.55
22.60
9.17
-4.16
-9.94
-5.13
7.12
19.22
23.65
17.18
2.88
-11.49
-18.01
-13.14
0.24
14.28
20.44
14.52
-0.81
-17.38
-26.02
-21.86
-7.24
9.61
19.16
16.05
2.44
-13.28
-21.45
-16.56
-0.72
17.59
28.53
26.50
13.56
-1.71
-9.46
-4.25
11.82
30.27
41.24
39.40
26.98
12.42
5.36
10.74
25.95
42.40
50.41
44.97
28.93
11.11
1.34
4.69
18.28
32.97
38.62
29.83
9.51
-12.62
-25.78
-24.19
-10.72
4.47
9.82
-1.08
-25.57
-53.19
-71.76
-74.37
-63.12
-47.93
-40.59
-47.67
-66.73
-87.80
-99.37
-95.29
-78.25
-57.95
-45.47
-46.67
-58.88
-72.99
-78.94
-71.67
-53.88
-33.95
-20.71
-18.40
-24.13
-30.11
-28.43
-15.73
4.91
25.83
39.32
41.74
35.54
27.56
24.96
31.14
44.00
57.26
64.18
61.37
50.84
38.77
32.00
34.20
43.84
55.24
61.83
59.88
50.72
39.83
33.53
35.35
43.98
54.06
59.40
56.62
47.29
36.98
31.98
35.50
45.62
56.21
60.19
53.62
38.25
20.65
8.73
7.17
14.40
23.22
24.75
13.40
-9.13
-34.51
-52.21
-55.53
-45.72
-31.71
-24.92
-32.76
-53.99
-79.19
-96.43
-98.16
-85.56
-67.81
-56.50
-58.63
-72.68
-89.67
-98.78
-93.99
-77.34
-57.41
-44.12
-42.73
-50.88
-60.55
-62.86
-53.49
-34.99
-14.83
-0.92
2.88
-1.00
-5.77
-4.46
6.01
22.98
39.75
49.45
48.81
40.13
29.88
24.84
28.37
38.54
49.20
53.73
48.82
36.52
23.23
15.86
17.81
26.99
36.94
40.52
34.26
20.55
6.37
-0.71
3.02
14.98
27.76
33.25
27.28
12.36
-3.77
-12.57
-9.48
3.32
18.16
26.40
23.16
10.24
-4.93
-13.95
-12.15
-1.16
11.91
19.01
15.75
3.95
-9.32
-16.20
-12.62
-0.57
12.93
20.06
16.83
5.33
-7.36
-13.55
-9.42
2.73
15.79
22.00
17.55
4.82
-8.93
-15.91
-12.34
-0.49
12.50
18.95
15.02
2.95
-10.15
-16.57
-12.45
0.14
14.26
22.06
19.39
8.07
-4.94
-11.70
-7.98
4.49
18.80
26.87
24.31
12.98
0.08
-5.99
-0.80
13.74
30.25
40.14
38.73
27.92
15.16
9.07
14.33
29.15
46.22
56.97
56.50
46.20
32.82
24.31
25.11
33.92
44.62
50.04
46.24
34.45
20.25
9.83
6.27
7.91
9.47
5.32
-6.95
-24.91
-42.34
-52.62
-52.56
-44.17
-33.92
-29.24
-34.44
-48.08
-63.46
-72.24
-69.14
-55.05
-36.87
-23.66
-21.57
-29.96
-41.51
-46.47
-38.55
-18.82
4.25
19.61
19.89
5.95
-13.22
-25.71
-23.52
-7.30
13.81
27.51
25.40
8.01
-15.37
-32.18
-33.83
-20.52
-1.05
12.60
12.17
-1.95
-21.15
-33.89
-32.48
-17.59
2.28
15.90
15.73
2.36
-16.13
-29.01
-29.19
-17.18
-0.54
10.70
9.82
-2.62
-19.25
-30.40
-29.73
-18.01
-2.68
6.46
2.95
-12.39
-31.66
-44.36
-43.36
-29.08
-9.42
4.64
5.24
-7.72
-26.37
-39.45
-38.75
-23.97
-3.00
12.74
14.81
2.98
-14.71
-26.63
-24.52
-8.56
12.67
27.12
26.34
10.71
-10.70
-25.39
-24.71
-9.02
12.56
27.43
26.82
10.94
-11.18
-26.92
-27.56
-13.24
7.12
21.02
19.69
3.28
-19.16
-34.92
-35.09
-19.55
2.87
19.68
21.99
9.65
-8.69
-20.93
-18.68
-2.10
20.20
36.42
38.50
26.76
9.64
-1.65
0.27
14.67
33.21
45.13
43.46
29.25
10.73
-1.65
-1.22
11.05
27.44
38.19
37.14
25.40
10.29
0.94
2.82
14.52
28.77
36.71
33.13
19.65
3.67
-5.90
-3.87
8.22
23.11
32.00
29.72
17.81
3.56
-4.22
-0.49
13.24
29.63
39.84
38.66
27.47
13.53
5.54
8.66
21.61
37.46
47.83
47.60
37.99
25.55
18.01
19.89
29.74
41.25
47.16
43.28
31.10
16.30
5.34
1.60
3.43
5.56
2.26
-9.13
-26.47
-44.13
-56.18
-60.01
-57.83
-55.55
-59.39
-72.02
-90.46
-107.06
-113.56
-105.76
-86.27
-63.72
-48.25
-46.02
-55.36
-67.54
-71.71
-61.16
-37.57
-10.19
9.35
13.67
4.28
-9.53
-15.97
-7.90
13.09
37.73
54.53
56.75
46.22
32.24
25.85
33.27
52.45
74.33
88.42
88.73
77.15
61.90
52.31
53.49
63.45
74.72
78.93
71.64
54.79
35.05
19.75
12.54
11.49
10.64
3.62
-12.33
-34.54
-56.36
-70.86
-74.84
-70.72
-65.36
-66.22
-76.98
-94.91
-111.88
-118.67
-110.14
-88.48
-62.38
-42.45
-35.45
-40.26
-48.68
-50.27
-38.71
-15.67
10.02
27.51
30.38
20.56
7.09
0.72
7.47
25.12
44.60
55.53
52.30
37.55
20.41
11.11
14.91
29.11
44.76
51.96
45.72
28.95
10.68
0.82
4.32
18.35
33.90
40.99
34.54
17.40
-1.19
-10.95
-6.52
9.39
27.64
37.84
34.57
20.53
4.97
-1.87
5.19
23.41
43.64
55.92
55.12
43.96
30.90
24.85
29.77
42.31
54.08
56.70
46.86
28.39
9.83
-0.50
0.66
10.03
19.90
22.73
15.48
1.12
-13.35
-21.31
-20.16
-12.71
-5.30
-3.93
-10.90
-23.32
-35.15
-40.66
-37.99
-30.19
-23.57
-24.08
-33.78
-49.46
-64.19
-71.42
-68.68
-59.23
-50.52
-49.84
-60.08
-77.30
-92.60
-96.80
-85.83
-63.46
-39.47
-24.56
-24.12
-35.02
-47.16
-49.32
-35.76
-9.69
18.30
36.41
38.34
27.23
13.62
9.22
20.07
42.79
66.80
80.51
78.15
63.29
46.60
39.51
47.57
67.44
89.01
101.42
99.15
84.80
66.91
54.47
51.80
56.34
60.89
58.23
45.48
25.83
6.15
-7.03
-11.58
-10.77
-11.24
-19.04
-35.81
-57.50
-76.23
-84.77
-80.48
-67.14
-53.25
-47.41
-53.73
-68.97
-84.34
-90.26
-82.14
-63.32
-43.43
-33.19
-37.81
-53.74
-70.14
-75.36
-63.55
-38.42
-11.24
5.84
6.72
-4.54
-16.44
-16.58
0.77
31.28
63.15
83.74
86.97
76.31
62.52
56.87
64.70
82.61
100.94
109.74
104.40
88.03
68.79
54.88
49.46
49.43
47.72
38.01
18.80
-5.56
-27.26
-39.80
-41.55
-36.93
-33.78
-38.92
-54.20
-74.94
-92.58
-99.34
-92.83
-77.62
-63.04
-57.99
-65.80
-81.79
-95.70
-97.41
-82.72
-56.11
-28.29
-10.33
-7.21
-14.93
-23.06
-21.03
-4.61
21.55
46.59
60.03
57.94
45.43
33.42
32.01
44.49
65.44
84.07
90.63
82.17
64.14
47.18
40.73
47.87
63.78
78.86
84.35
77.20
61.44
45.31
36.20
36.52
42.74
47.82
45.68
34.65
18.32
3.01
-6.19
-8.48
-7.85
-10.64
-21.83
-41.80
-65.53
-85.03
-93.36
-88.46
-74.36
-59.17
-50.71
-52.11
-59.80
-65.57
-61.49
-44.82
-20.08
3.07
15.33
13.15
1.05
-10.93
-13.28
-2.63
16.08
32.45
36.82
26.14
6.08
-12.14
-18.27
-9.08
9.51
25.77
28.83
15.06
-9.54
-32.60
-42.43
-34.62
-14.59
5.55
13.95
5.85
-13.71
-33.06
-40.90
-33.14
-15.29
0.73
3.76
-9.75
-33.26
-53.84
-59.61
-46.69
-21.64
2.46
13.41
7.20
-9.89
-24.96
-26.41
-10.60
15.90
40.31
51.16
44.90
27.93
12.50
9.50
22.02
43.95
63.69
71.19
63.68
47.22
32.62
29.13
39.05
56.82
72.54
77.94
70.94
56.40
42.63
36.12
37.83
42.86
43.85
35.41
17.46
-4.81
-24.09
-35.32
-38.49
-38.68
-42.88
-55.69
-76.13
-97.44
-110.49
-108.74
-92.24
-68.13
-47.20
-38.18
-42.69
-54.19
-61.60
-55.66
-34.26
-3.73
24.86
42.16
45.81
41.45
38.68
44.88
60.63
79.38
91.69
90.84
76.93
56.48
38.31
28.14
25.50
24.21
16.59
-1.84
-29.13
-57.53
-77.44
-82.64
-73.62
-57.60
-44.62
-42.24
-51.01
-64.14
-70.95
-63.09
-39.13
-5.74
26.08
46.87
53.87
51.74
49.09
52.60
62.93
74.41
78.94
71.05
51.62
27.34
6.84
-4.55
-7.71
-9.17
-16.95
-35.61
-62.77
-89.74
-105.58
-103.00
-82.27
-51.37
-21.85
-2.85
3.72
3.53
5.87
17.53
38.66
62.50
79.66
83.65
74.76
59.44
46.02
39.46
38.43
36.34
25.63
2.69
-29.31
-61.44
-83.22
-88.14
-76.74
-56.44
-37.34
-26.95
-25.97
-28.44
-25.45
-10.92
14.63
44.00
67.40
77.87
75.11
64.89
55.06
50.16
48.87
44.84
31.21
5.21
-29.11
-62.28
-83.94
-88.22
-76.66
-57.54
-41.38
-35.49
-39.86
-47.49
-48.33
-35.42
-8.79
24.10
52.69
68.88
71.47
65.78
59.87
58.99
62.61
64.98
59.30
42.37
17.05
-9.09
-27.99
-35.89
-35.18
-33.31
-38.02
-52.87
-74.34
-93.36
-99.66
-87.59
-59.18
-23.59
7.68
26.56
32.46
31.64
32.76
41.11
55.32
68.00
70.48
57.93
32.79
3.42
-20.32
-32.58
-34.30
-32.28
-34.62
-45.49
-62.05
-75.53
-76.15
-58.86
-26.72
10.09
39.52
53.80
53.53
46.61
43.17
49.41
64.23
80.31
88.98
85.62
72.30
56.19
44.74
41.14
42.48
41.87
32.79
13.34
-12.32
-36.14
-50.68
-53.37
-47.98
-42.70
-45.60
-59.97
-81.95
-102.23
-110.91
-102.99
-81.34
-55.50
-36.53
-30.97
-36.89
-45.16
-44.72
-29.20
-0.61
31.66
56.44
67.03
64.89
58.05
55.69
62.38
75.31
86.36
87.14
74.24
51.26
26.68
8.67
0.54
-1.18
-4.31
-16.29
-39.25
-68.06
-92.38
-102.00
-92.32
-67.17
-37.02
-13.69
-4.10
-6.58
-12.39
-11.02
3.42
28.80
56.26
75.57
80.87
73.81
61.73
52.69
50.27
51.72
49.86
37.97
14.16
-16.76
-45.56
-63.49
-66.88
-59.01
-48.15
-42.76
-46.52
-55.97
-62.33
-56.67
-35.11
-1.62
33.88
60.44
71.76
68.91
58.81
49.30
44.30
41.56
34.60
17.36
-11.24
-45.29
-74.35
-88.52
-83.70
-63.81
-38.81
-19.28
-10.82
-11.15
-12.03
-4.63
14.79
42.28
68.25
82.85
81.50
67.22
48.30
33.00
24.58
19.71
11.01
-7.75
-37.03
-69.95
-95.32
-103.29
-90.64
-62.76
-31.12
-7.29
2.93
2.33
-0.02
5.40
22.69
47.93
71.63
84.18
81.51
67.12
49.45
36.38
30.45
27.54
19.85
1.13
-28.65
-62.24
-88.40
-97.64
-87.44
-63.70
-37.81
-20.47
-16.11
-20.46
-23.63
-16.08
5.38
35.70
64.21
80.92
81.75
70.54
55.84
45.35
41.15
38.91
31.00
11.80
-18.17
-51.70
-78.18
-89.34
-83.43
-66.35
-48.20
-37.94
-38.18
-44.01
-45.83
-35.39
-10.69
22.34
53.13
72.12
75.80
68.19
57.50
50.92
50.11
50.70
45.18
28.10
-0.25
-32.99
-60.01
-72.97
-69.82
-55.69
-40.35
-32.72
-35.87
-45.18
-50.85
-43.88
-21.42
10.96
42.32
62.09
66.23
58.91
49.64
47.00
53.57
64.41
70.52
64.46
44.96
17.89
-7.43
-23.49
-29.09
-29.54
-33.51
-47.20
-70.21
-94.56
-108.81
-104.12
-79.49
-42.85
-7.17
16.14
23.30
19.43
15.13
19.61
35.49
57.41
75.89
83.11
77.63
64.76
52.65
47.14
48.18
50.39
46.65
32.80
10.31
-14.31
-33.25
-41.87
-41.29
-37.89
-39.70
-51.65
-72.21
-93.42
-104.76
-98.79
-75.71
-43.76
-15.42
-0.71
-1.76
-11.58
-18.29
-12.13
8.97
38.20
64.16
77.49
76.15
66.05
56.82
55.82
63.87
75.32
81.91
77.99
63.72
44.82
28.76
20.36
19.12
19.79
15.70
2.78
-17.83
-40.18
-56.70
-62.56
-58.42
-50.40
-46.67
-52.79
-68.10
-85.53
-95.45
-91.15
-73.01
-48.69
-29.10
-22.30
-28.82
-41.24
-48.68
-43.27
-24.92
-1.66
15.11
17.24
5.04
-12.72
-23.73
-19.33
0.40
26.66
46.93
52.48
43.34
28.31
19.48
25.05
44.55
69.26
87.58
91.67
81.91
65.92
53.82
51.85
59.25
68.95
72.28
64.13
45.69
23.68
5.79
-3.52
-5.70
-6.72
-13.45
-29.36
-52.02
-74.39
-88.42
-89.96
-80.93
-68.83
-62.46
-66.90
-80.31
-94.42
-99.34
-89.02
-65.48
-37.76
-17.35
-11.50
-18.82
-30.29
-34.28
-23.96
-1.03
24.84
42.07
44.02
32.99
19.05
13.65
23.05
44.32
67.42
81.00
79.18
65.05
48.47
40.29
45.71
61.78
79.05
87.57
82.52
66.81
49.03
37.98
37.76
45.54
53.74
54.69
45.01
27.58
9.19
-3.41
-7.72
-6.44
-5.78
-11.46
-25.25
-43.71
-60.12
-68.43
-66.85
-59.09
-52.49
-53.79
-65.26
-82.67
-97.49
-101.46
-91.53
-71.95
-52.35
-42.51
-46.69
-60.70
-74.08
-75.84
-61.02
-33.66
-4.75
14.14
17.52
9.28
0.24
1.55
18.05
45.42
72.75
89.08
89.59
78.29
65.06
59.46
65.09
77.82
88.63
89.37
77.44
57.29
37.24
24.46
20.70
21.51
19.09
7.17
-15.15
-42.34
-65.49
-77.15
-75.59
-65.78
-56.77
-56.51
-67.02
-82.71
-93.13
-88.77
-66.50
-31.58
4.88
31.95
44.50
45.54
43.42
46.22
56.65
70.58
79.91
77.84
63.23
41.39
20.71
7.59
2.57
0.25
-7.34
-25.47
-52.87
-81.35
-99.49
-98.62
-77.47
-43.18
-7.79
17.85
29.39
30.60
30.10
35.61
49.00
65.20
75.56
73.18
57.31
33.88
11.77
-2.38
-8.07
-10.79
-18.48
-36.21
-62.38
-88.75
-104.18
-100.60
-77.31
-41.78
-5.96
19.70
31.29
32.81
32.94
39.21
53.44
70.56
82.10
81.23
67.07
45.22
24.09
9.94
3.17
-1.58
-11.74
-31.75
-59.38
-85.99
-100.64
-95.83
-71.86
-36.83
-2.81
20.40
30.10
31.04
31.82
38.87
52.44
66.40
72.13
63.96
42.75
15.63
-8.11
-22.27
-26.86
-27.79
-32.68
-45.99
-65.76
-83.94
-90.95
-80.92
-55.50
-23.31
4.45
19.88
22.57
19.27
19.30
28.79
46.79
66.06
77.26
74.50
58.63
36.28
15.77
2.16
-5.34
-12.30
-25.13
-46.38
-72.28
-93.95
-101.88
-91.24
-64.85
-32.37
-5.38
8.56
9.72
5.67
6.32
17.97
39.50
63.18
79.56
82.97
74.90
62.58
54.14
53.76
59.28
63.95
60.81
47.02
25.61
3.57
-12.41
-19.78
-21.59
-24.55
-35.04
-54.97
-79.95
-101.14
-109.53
-100.95
-78.45
-51.04
-29.08
-18.64
-18.32
-20.31
-15.34
1.60
28.16
55.87
75.22
81.02
75.18
64.97
57.97
57.38
60.25
59.58
49.15
27.46
-0.80
-27.20
-44.27
-49.47
-46.58
-43.27
-46.71
-59.14
-75.96
-88.20
-87.20
-69.95
-41.08
-10.86
10.19
17.07
12.86
6.63
7.91
20.96
42.58
64.20
77.25
77.98
69.11
57.49
49.05
44.97
40.94
30.13
7.99
-24.10
-58.25
-83.47
-91.13
-79.36
-54.23
-26.57
-6.49
1.70
1.32
0.57
7.17
23.42
44.62
61.63
66.09
55.12
32.92
8.12
-11.07
-21.10
-24.35
-26.72
-33.20
-44.16
-54.55
-56.66
-44.86
-19.33
13.31
42.99
61.03
64.25
55.91
43.03
31.90
24.51
17.91
6.83
-12.24
-37.85
-63.31
-79.72
-80.54
-65.17
-39.55
-13.14
5.84
14.53
16.38
18.33
26.17
40.74
57.20
67.97
67.18
54.21
34.02
14.07
0.00
-7.57
-12.96
-22.38
-39.54
-62.49
-83.73
-93.67
-85.77
-60.35
-24.82
9.71
33.96
44.87
46.21
45.33
47.93
54.20
58.78
54.23
36.09
6.58
-25.94
-50.87
-61.05
-56.36
-43.50
-31.94
-28.20
-31.98
-36.43
-32.42
-14.42
15.68
49.04
74.40
83.99
77.57
61.77
45.82
35.83
31.73
27.87
17.15
-3.96
-32.62
-60.60
-78.52
-81.00
-69.53
-51.70
-36.89
-30.89
-32.59
-34.84
-28.86
-9.98
19.29
50.17
72.38
79.71
73.13
59.51
46.99
39.80
35.94
28.78
11.80
-16.56
-50.81
-80.28
-94.49
-88.68
-66.29
-37.42
-13.35
-0.70
1.78
1.73
7.85
24.10
47.09
67.53
75.73
67.09
44.72
17.63
-4.50
-16.48
-19.79
-20.72
-25.49
-35.65
-46.59
-49.86
-38.58
-12.07
22.79
54.40
72.16
71.62
56.24
35.04
17.14
6.79
1.99
-3.50
-15.22
-33.99
-54.77
-69.21
-70.53
-57.61
-35.79
-14.45
-1.90
-1.19
-8.71
-16.56
-17.37
-8.49
6.73
21.02
27.68
24.53
14.95
5.82
3.21
8.99
19.86
29.54
32.56
27.42
17.16
7.48
3.18
5.43
11.44
16.15
15.39
8.31
-2.26
-11.51
-15.48
-13.30
-7.54
-2.64
-2.34
-7.35
-15.05
-20.91
-21.13
-14.82
-4.49
5.30
10.54
9.92
5.47
1.12
0.27
3.77
9.43
13.45
12.72
6.85
-1.61
-8.63
-11.11
-8.75
-4.13
-1.21
-2.86
-9.06
-16.72
-21.52
-20.30
-13.05
-2.92
5.48
8.68
6.20
0.78
-3.36
-3.08
1.94
9.01
14.18
14.60
10.20
3.70
-1.07
-1.58
1.97
6.74
8.96
6.26
-0.93
-9.49
-15.39
-16.00
-11.54
-4.98
-0.31
-0.22
-4.55
-10.34
-13.63
-11.69
-4.72
4.30
11.27
13.35
10.55
5.63
2.32
2.99
7.24
12.02
13.57
9.62
0.91
-9.09
-16.18
-17.83
-14.67
-10.19
-8.70
-12.63
-20.77
-28.69
-31.11
-24.99
-11.47
4.53
16.92
21.96
20.24
16.25
15.39
20.67
30.79
41.00
46.05
43.42
34.83
25.12
19.19
19.05
22.68
25.23
22.05
11.46
-4.12
-19.43
-29.47
-32.41
-30.79
-30.06
-35.27
-47.51
-62.59
-72.69
-70.59
-53.84
-26.56
2.46
24.22
34.29
34.73
32.21
33.32
40.43
50.07
55.11
49.28
31.18
5.49
-19.24
-35.21
-39.40
-34.80
-28.40
-26.69
-31.59
-39.12
-41.78
-33.09
-11.91
16.40
42.62
58.33
60.46
52.45
41.47
33.78
30.92
28.86
21.13
3.28
-23.59
-52.30
-72.94
-78.15
-66.87
-45.15
-23.03
-9.02
-5.74
-8.90
-10.04
-2.13
16.13
39.52
59.22
68.05
64.58
53.49
42.21
36.38
36.24
36.94
31.98
17.35
-5.45
-29.77
-47.54
-53.64
-48.61
-38.55
-31.41
-32.41
-40.92
-50.61
-52.95
-42.42
-19.74
8.25
32.10
44.89
45.66
39.16
32.37
29.95
31.41
31.82
25.34
9.27
-13.49
-35.54
-48.86
-49.01
-37.53
-20.95
-7.10
-0.86
-1.72
-4.56
-3.17
5.63
19.85
33.24
38.83
32.90
17.41
-1.22
-15.45
-20.68
-17.43
-10.44
-5.50
-5.85
-10.28
-13.96
-11.83
-1.86
13.32
27.49
34.26
30.55
18.30
3.30
-8.00
-12.20
-10.44
-7.37
-8.16
-15.01
-25.64
-34.52
-36.05
-27.81
-12.26
4.65
16.70
20.62
17.89
13.39
12.21
16.46
24.12
30.16
29.76
21.30
7.35
-6.67
-15.57
-17.31
-13.96
-10.28
-10.76
-16.76
-25.42
-31.32
-29.57
-18.76
-2.05
14.48
25.02
27.09
22.67
16.70
13.82
15.60
19.67
21.27
16.35
4.34
-11.24
-24.52
-30.47
-27.74
-19.32
-10.70
-6.78
-8.85
-13.90
-16.51
-12.23
-0.39
15.28
28.58
34.30
31.03
21.69
11.57
5.09
3.18
3.16
0.62
-7.32
-19.72
-31.89
-37.72
-33.14
-18.61
0.90
18.33
27.99
28.30
22.12
14.57
9.85
8.73
8.38
4.59
-5.19
-19.55
-33.26
-39.87
-35.29
-20.15
0.27
18.47
28.52
28.85
22.39
14.35
8.98
6.89
5.33
0.33
-10.08
-23.81
-35.25
-38.20
-29.50
-10.96
10.97
28.34
35.53
31.78
20.99
9.24
1.25
-2.04
-3.21
-6.11
-12.82
-21.69
-27.95
-26.53
-15.32
3.19
22.66
35.94
38.67
31.35
18.71
6.86
-0.12
-2.37
-3.51
-7.92
-17.49
-29.87
-39.26
-39.76
-28.84
-9.03
12.92
29.44
35.89
32.65
24.23
16.29
12.19
11.05
8.78
1.13
-13.14
-30.58
-44.39
-47.91
-38.43
-18.65
4.29
22.40
30.78
29.73
23.71
18.14
16.00
15.91
13.54
4.81
-10.75
-28.77
-41.82
-43.35
-31.43
-9.97
13.05
29.51
35.09
30.98
22.36
14.87
11.24
9.94
6.60
-2.51
-17.49
-33.83
-44.41
-43.35
-29.44
-7.11
15.57
30.75
34.54
28.47
17.99
8.81
3.79
1.58
-1.74
-9.43
-21.25
-32.83
-37.87
-31.84
-14.92
7.46
26.97
36.32
32.68
19.02
2.17
-10.63
-15.37
-12.67
-6.72
-2.30
-1.68
-3.41
-3.63
1.11
10.99
22.08
28.10
23.93
8.87
-12.23
-30.94
-39.30
-33.95
-17.53
2.92
19.76
28.55
29.77
27.33
25.13
24.06
21.27
12.13
-6.02
-30.82
-54.53
-67.43
-62.53
-39.49
-5.36
28.44
51.35
58.35
51.42
37.36
23.35
12.86
4.40
-6.14
-21.38
-39.27
-52.96
-54.31
-38.78
-8.80
26.52
55.39
68.60
63.66
45.34
22.48
3.00
-9.62
-17.00
-23.35
-31.56
-40.39
-44.74
-38.90
-20.62
6.55
34.00
51.72
53.22
38.76
15.07
-8.37
-24.26
-31.05
-33.06
-36.94
-46.76
-60.71
-71.51
-70.43
-52.71
-21.07
14.98
43.75
57.11
54.33
41.71
28.39
20.88
19.88
20.84
17.49
6.18
-11.60
-29.82
-41.40
-42.14
-32.98
-19.44
-8.54
-4.88
-7.98
-12.57
-11.80
-1.31
18.07
40.42
57.88
64.81
60.75
50.10
39.02
31.77
28.30
24.84
16.59
1.17
-19.38
-39.45
-52.61
-54.99
-47.26
-34.21
-21.85
-13.96
-9.88
-5.29
4.77
22.09
43.33
61.01
67.29
58.18
36.09
8.66
-15.12
-29.41
-34.04
-33.60
-33.73
-37.07
-41.07
-39.56
-26.89
-2.07
29.51
58.07
74.09
73.05
57.68
36.03
16.71
4.27
-2.76
-9.95
-22.37
-40.29
-57.90
-66.23
-58.40
-34.05
-0.42
30.90
49.57
51.32
39.54
22.52
8.48
1.33
-0.59
-2.31
-8.35
-19.58
-32.63
-41.97
-43.29
-35.94
-23.20
-10.46
-2.39
-0.65
-3.37
-6.64
-6.98
-3.35
2.17
5.70
3.80
-4.32
-16.03
-26.35
-30.48
-26.10
-14.63
-0.33
12.05
19.55
22.24
22.45
22.63
23.40
22.89
18.10
7.19
-8.51
-24.42
-34.64
-34.92
-24.96
-8.68
7.63
18.44
21.27
17.50
10.80
4.86
1.35
-0.58
-3.03
-7.47
-13.24
-17.64
-17.48
-11.04
0.59
13.64
23.42
26.51
22.40
13.65
4.41
-1.67
-3.13
-1.23
1.29
2.02
0.43
-1.89
-2.35
0.86
7.42
14.81
19.49
18.85
12.65
3.28
-5.63
-10.97
-11.75
-9.37
-6.58
-5.71
-7.23
-9.57
-10.14
-7.15
-0.78
6.56
11.43
11.15
5.35
-3.69
-12.26
-17.04
-16.68
-12.36
-6.83
-2.73
-1.12
-0.92
0.02
3.39
9.07
14.82
17.46
14.58
6.25
-4.69
-13.87
-17.50
-14.24
-5.69
4.62
13.18
18.37
20.89
22.76
25.33
27.88
27.56
21.01
6.74
-13.05
-32.58
-44.78
-44.73
-32.19
-12.02
8.26
21.93
26.14
22.54
15.36
8.22
1.75
-6.56
-19.97
-39.32
-60.94
-77.46
-81.11
-67.78
-39.63
-4.65
26.75
46.21
50.84
43.59
30.94
19.01
10.67
5.06
-0.25
-6.21
-10.49
-8.46
3.48
24.42
47.79
63.36
61.94
40.39
4.05
-34.97
-63.04
-71.06
-58.23
-31.65
-2.19
20.98
34.29
39.85
42.13
43.70
42.77
34.26
13.75
-18.17
-53.88
-81.17
-88.77
-72.26
-36.65
5.84
41.53
61.47
64.75
57.35
47.22
39.06
31.77
20.08
-0.80
-30.56
-61.97
-83.68
-85.76
-65.12
-27.69
14.14
47.18
63.30
62.32
50.45
35.75
23.30
12.88
0.56
-17.07
-38.89
-58.08
-65.15
-53.28
-22.90
17.17
52.92
71.29
66.06
40.77
6.60
-23.16
-39.22
-39.83
-30.03
-17.59
-7.98
-1.48
5.63
17.11
32.70
46.59
49.90
35.81
4.46
-35.27
-69.05
-83.52
-72.75
-41.01
-0.51
34.68
54.96
58.68
50.96
39.09
27.70
16.59
2.32
-17.54
-40.73
-59.63
-64.68
-49.87
-17.07
23.68
57.96
73.34
64.91
37.38
2.41
-26.95
-42.17
-42.13
-31.97
-18.96
-8.00
0.71
10.15
22.82
37.30
47.45
45.19
25.54
-9.22
-48.77
-78.68
-87.02
-70.09
-34.27
7.09
40.12
56.45
56.16
45.75
33.06
22.38
12.55
-0.95
-21.28
-46.32
-68.01
-76.00
-63.45
-31.42
10.71
49.19
72.10
74.45
59.64
36.55
14.26
-2.38
-14.08
-24.69
-37.04
-49.63
-56.67
-51.44
-31.03
0.86
34.38
57.68
62.34
47.43
19.89
-9.08
-29.64
-37.54
-35.08
-28.28
-22.38
-18.40
-12.86
-0.92
19.06
42.67
60.46
62.37
43.36
7.25
-34.00
-65.15
-74.26
-57.82
-21.56
22.99
63.90
93.50
109.98
115.86
114.15
106.75
93.92
75.40
51.96
26.36
2.73
-15.02
-25.01
-27.84
-25.96
-22.47
-19.84
-19.16
-19.94
-20.76
-20.12
-17.32
-12.47
-6.35
-0.07
5.55
10.09
13.63
16.52
19.05
21.27
23.32
25.38
27.59
29.85
31.70
32.22
30.27
24.85
15.15
1.70
-14.08
-30.60
-46.57
-61.59
-76.06
-90.83
-105.43
-120.69
-137.30
-155.47
-174.15
-190.30
-199.04
-195.01
-174.82
-139.25
-94.03
-47.72
-8.75
17.76
31.35
35.22
33.82
30.49
26.46
21.36
14.90
7.68
1.16
-3.28
-5.20
-5.34
-5.03
-5.63
-7.66
-10.42
-12.42
-12.11
-8.50
-1.59
7.87
18.68
29.66
40.01
49.35
57.60
64.66
70.29
74.21
76.40
77.19
77.32
77.69
78.79
80.52
82.13
82.80
82.36
81.87
83.46
89.16
99.32
111.60
121.38
123.65
115.15
95.63
67.64
34.95
0.89
-32.26
-62.54
-87.00
-101.56
-102.52
-89.19
-65.57
-39.65
-19.97
-11.23
-11.89
-15.57
-15.34
-8.19
3.21
12.37
13.17
3.87
-11.76
-26.91
-36.08
-38.48
-38.45
-42.46
-54.66
-73.67
-92.40
-101.56
-94.64
-71.60
-39.54
-9.35
9.11
12.28
5.03
-2.14
0.78
17.44
43.16
67.66
81.11
79.54
66.89
51.88
42.39
40.58
41.71
37.39
21.01
-7.65
-41.41
-69.04
-81.10
-74.74
-55.01
-31.95
-14.97
-7.97
-7.52
-5.65
4.70
24.65
47.87
63.51
62.10
41.18
7.38
-26.67
-48.52
-52.01
-39.62
-20.18
-3.23
6.27
10.04
14.13
23.73
38.85
53.21
57.42
44.40
14.14
-24.97
-59.61
-77.61
-73.77
-51.91
-22.44
3.46
19.35
25.96
28.99
33.88
41.34
46.07
40.15
18.49
-16.60
-54.84
-82.34
-88.19
-69.84
-34.21
5.82
37.66
54.51
57.24
51.98
45.06
38.76
30.14
13.99
-12.38
-45.36
-75.11
-89.94
-82.31
-53.11
-11.71
28.37
55.74
65.83
61.82
51.38
41.47
34.45
27.53
15.74
-3.69
-28.20
-50.35
-61.45
-56.28
-36.16
-8.47
16.95
32.47
35.90
30.80
23.60
19.40
19.05
18.63
12.15
-4.37
-29.40
-55.41
-71.97
-70.94
-50.81
-17.80
17.09
43.45
56.17
56.83
51.14
44.35
37.64
27.83
10.21
-17.01
-49.71
-78.32
-91.81
-83.21
-53.56
-12.03
27.94
54.75
63.54
57.49
44.56
31.95
21.87
11.12
-5.19
-28.54
-53.90
-71.28
-71.05
-49.72
-12.56
28.33
59.59
72.47
66.07
46.67
23.66
4.66
-7.77
-16.10
-24.94
-36.92
-49.79
-56.84
-50.62
-27.96
6.93
43.24
68.44
74.37
61.33
37.38
13.42
-3.02
-11.27
-16.55
-25.35
-40.21
-57.18
-67.74
-63.64
-41.91
-7.09
30.49
59.43
72.39
69.12
55.78
40.90
30.27
23.88
16.39
1.14
-24.57
-56.26
-83.28
-94.12
-82.77
-52.39
-14.06
19.00
38.21
43.37
41.23
39.96
43.41
48.60
47.90
34.34
6.55
-29.25
-61.87
-80.36
-79.22
-60.71
-33.44
-7.83
8.91
15.92
18.16
22.55
33.03
47.47
58.28
56.76
38.52
7.21
-26.63
-50.72
-57.47
-47.72
-29.64
-13.43
-5.21
-3.70
-2.06
6.89
25.38
48.60
67.17
72.34
60.86
36.76
9.10
-12.95
-24.61
-27.44
-27.77
-32.63
-45.35
-62.97
-77.28
-79.06
-63.30
-32.61
3.45
33.11
48.51
49.92
44.71
42.07
46.69
55.44
59.29
49.27
22.77
-13.68
-47.47
-66.62
-66.15
-50.47
-30.24
-15.92
-11.81
-14.22
-14.59
-5.47
14.55
39.82
60.92
70.02
65.06
50.52
34.23
22.69
17.41
14.45
7.14
-9.76
-36.48
-66.98
-91.25
-99.75
-88.24
-60.23
-25.65
3.86
20.77
25.30
24.43
26.96
37.70
54.36
69.03
73.21
63.31
42.92
20.47
3.98
-3.82
-6.77
-12.40
-26.73
-49.85
-75.03
-91.98
-92.26
-73.83
-42.20
-7.62
19.91
35.33
40.10
40.18
41.72
47.05
53.35
54.39
44.39
21.88
-8.51
-37.75
-56.47
-59.54
-48.60
-30.94
-15.43
-7.37
-5.50
-3.26
6.49
26.07
50.56
69.78
74.05
60.09
33.36
5.16
-13.96
-20.04
-17.42
-15.21
-20.71
-34.08
-47.63
-50.56
-35.90
-5.40
30.60
58.42
68.11
58.30
36.11
12.51
-3.92
-10.95
-12.36
-14.16
-20.14
-29.47
-37.55
-39.28
-32.46
-19.17
-4.62
5.59
8.22
3.61
-4.86
-12.87
-17.31
-17.60
-15.48
-13.69
-14.24
-17.16
-20.37
-20.75
-16.01
-6.07
6.38
16.99
21.72
18.93
10.43
0.64
-5.57
-5.28
1.10
10.29
18.04
21.56
20.75
17.90
15.88
16.09
17.53
17.39
13.11
4.38
-6.09
-13.76
-14.59
-7.54
4.59
16.40
22.44
20.02
10.43
-1.88
-11.95
-16.84
-16.91
-14.87
-13.51
-13.55
-13.09
-9.22
-0.62
10.60
19.21
19.37
8.21
-11.78
-33.23
-47.08
-47.14
-33.17
-10.95
10.66
24.18
26.90
21.34
12.97
6.59
3.68
2.22
-1.06
-7.80
-16.20
-21.79
-20.11
-9.74
6.32
21.71
29.82
27.07
14.77
-1.44
-14.35
-18.58
-12.99
-0.79
12.28
20.90
22.58
18.35
11.66
6.09
3.31
2.49
1.34
-1.98
-6.95
-10.65
-9.32
-0.92
12.96
26.85
33.50
27.42
8.02
-19.14
-44.41
-58.00
-54.34
-34.36
-4.84
24.89
46.93
57.17
55.49
43.98
24.93
0.32
-27.29
-53.13
-70.09
-70.82
-51.70
-16.14
24.98
56.83
66.79
50.41
14.14
-26.87
-55.41
-59.93
-39.50
-3.83
31.73
53.48
55.36
40.68
18.94
0.09
-10.53
-13.69
-13.92
-15.11
-17.09
-15.67
-6.13
12.48
34.90
51.17
51.44
31.56
-3.75
-42.25
-69.67
-76.31
-61.33
-32.38
-1.13
22.85
36.15
41.64
44.59
47.84
49.13
42.27
21.74
-12.47
-52.52
-85.19
-97.91
-84.97
-50.72
-7.67
29.52
50.88
55.08
48.68
40.97
37.95
38.74
36.60
23.76
-2.85
-38.22
-70.84
-88.08
-82.61
-56.03
-18.03
18.59
43.87
54.48
53.49
46.54
37.35
25.44
7.58
-18.28
-49.02
-75.57
-86.24
-72.97
-36.44
12.65
57.38
81.73
77.69
48.77
8.03
-28.15
-47.33
-45.88
-29.03
-6.66
12.44
24.69
31.95
38.04
44.46
48.09
42.69
23.27
-9.17
-45.90
-73.45
-80.03
-61.74
-25.05
16.13
46.97
58.59
51.45
33.67
15.51
3.53
-2.30
-6.95
-15.62
-28.94
-41.42
-44.34
-31.40
-3.56
29.91
55.06
60.00
41.04
5.14
-33.08
-58.20
-61.10
-42.69
-12.44
16.95
35.83
41.42
37.28
29.52
22.19
15.07
4.94
-10.58
-29.53
-44.94
-48.16
-34.16
-5.70
26.59
48.54
49.32
27.10
-9.37
-44.56
-63.54
-58.93
-33.90
0.13
29.56
45.06
45.16
35.14
22.58
12.46
4.86
-3.66
-16.09
-31.32
-43.39
-44.42
-29.66
-1.30
31.24
55.11
59.99
43.34
11.93
-21.16
-42.71
-45.55
-31.37
-8.90
11.42
23.02
26.18
26.41
29.60
37.17
44.21
42.03
23.76
-10.41
-51.40
-84.73
-97.18
-83.26
-47.76
-3.39
35.21
57.83
62.09
52.61
36.83
20.45
5.14
-10.27
-26.64
-41.52
-48.95
-42.53
-20.06
13.37
46.07
64.33
58.92
30.06
-11.86
-50.59
-71.43
-67.67
-43.02
-8.99
21.17
38.57
41.95
36.28
28.24
21.47
14.61
3.08
-16.50
-42.21
-65.85
-76.37
-65.68
-33.63
10.86
53.28
79.90
83.73
67.01
38.97
10.43
-11.45
-25.44
-34.71
-42.62
-49.11
-49.83
-39.00
-14.08
20.95
55.81
78.13
79.32
59.17
26.40
-5.51
-24.90
-27.57
-18.12
-6.47
-1.66
-6.27
-15.09
-18.52
-8.93
14.23
43.45
66.94
74.96
65.06
43.36
20.92
7.81
8.12
18.72
31.65
38.79
35.78
23.56
7.01
-8.19
-18.27
-22.71
-23.42
-22.99
-22.77
-22.33
-20.53
-17.10
-13.84
-14.10
-20.74
-33.78
-49.24
-60.21
-60.17
-46.66
-23.21
1.59
17.81
18.73
4.16
-19.49
-42.32
-55.66
-55.78
-44.98
-29.47
-15.77
-7.45
-4.17
-3.21
-2.31
-1.76
-4.31
-12.98
-28.25
-46.46
-60.90
-65.00
-55.94
-36.43
-13.58
4.49
12.46
10.05
1.71
-6.00
-7.94
-2.59
7.62
18.10
24.65
25.61
22.48
18.94
18.70
23.61
32.64
42.37
48.56
48.27
41.17
29.57
16.90
5.82
-3.01
-10.57
-17.81
-23.78
-25.23
-18.26
-1.15
23.31
47.82
63.11
62.30
44.56
16.06
-12.68
-31.65
-35.79
-26.75
-11.08
3.96
14.30
20.55
26.09
33.38
40.97
43.41
34.29
10.75
-23.11
-56.60
-76.86
-75.05
-50.89
-13.03
25.03
51.16
59.78
53.27
39.02
24.17
11.58
-0.93
-17.45
-39.40
-62.31
-76.72
-72.92
-47.01
-4.33
41.55
74.41
82.60
64.28
28.03
-11.47
-40.34
-51.31
-45.64
-30.47
-13.72
0.28
12.11
24.60
38.74
50.96
53.96
40.86
10.32
-30.53
-67.86
-87.11
-80.06
-49.04
-6.04
32.77
54.38
54.26
37.22
13.73
-5.98
-16.63
-19.07
-17.77
-16.63
-15.76
-11.48
0.45
20.66
43.96
60.59
60.71
39.84
2.19
-40.14
-72.11
-82.49
-68.69
-37.29
-0.28
30.85
49.89
57.16
56.86
52.64
44.57
29.40
3.96
-30.58
-66.56
-91.82
-95.22
-72.65
-30.05
18.29
55.62
69.89
58.84
30.43
-1.37
-23.31
-28.43
-18.15
0.04
17.37
28.39
32.58
32.54
30.48
25.54
14.05
-7.17
-36.88
-67.45
-86.86
-84.37
-56.56
-10.27
39.28
74.73
83.98
65.56
28.95
-9.94
-36.09
-41.61
-28.12
-4.51
18.30
32.78
37.09
33.85
26.56
16.53
2.42
-17.32
-41.05
-62.27
-71.40
-60.76
-29.73
13.22
53.12
74.74
69.57
40.00
-1.52
-38.09
-55.89
-49.91
-25.20
6.57
33.21
47.39
48.59
40.98
29.27
15.49
-1.40
-22.85
-47.08
-67.58
-75.11
-62.79
-31.00
10.99
48.04
65.67
56.82
25.41
-15.08
-47.61
-59.19
-46.10
-14.80
21.85
50.72
63.98
61.20
47.70
30.43
14.09
-0.18
-13.39
-25.64
-34.20
-34.10
-21.66
1.81
28.51
46.45
44.95
20.48
-20.33
-62.64
-89.69
-90.44
-64.51
-22.16
20.54
48.91
55.61
42.69
19.15
-4.26
-19.91
-25.49
-22.97
-15.62
-5.35
7.85
23.99
40.70
52.38
51.95
34.84
2.84
-34.77
-64.01
-72.37
-54.96
-17.44
25.97
58.58
68.47
53.62
22.15
-12.03
-36.04
-43.52
-36.27
-21.56
-7.03
3.73
12.20
22.22
35.80
50.25
58.77
54.25
34.01
2.56
-29.57
-50.85
-54.68
-42.78
-24.17
-10.08
-7.80
-16.71
-28.89
-34.02
-25.67
-5.01
19.80
38.40
44.02
37.13
24.48
14.63
12.75
18.01
24.70
26.28
19.50
6.25
-7.75
-16.49
-17.09
-11.20
-3.83
-0.38
-3.78
-13.03
-23.95
-31.58
-32.75
-27.55
-18.98
-11.15
-7.01
-6.94
-8.76
-9.24
-6.09
0.80
9.26
16.16
19.13
17.89
14.20
10.76
9.61
10.99
13.30
14.16
11.82
6.35
-0.33
-5.44
-6.80
-4.05
1.23
6.47
9.48
9.61
7.96
6.41
6.30
7.39
7.85
5.32
-1.53
-11.80
-22.52
-29.91
-31.26
-26.36
-17.59
-8.67
-2.73
-0.85
-1.81
-3.20
-3.08
-1.18
1.01
1.28
-1.78
-7.70
-14.27
-18.63
-18.89
-15.10
-9.21
-3.93
-1.27
-1.48
-3.06
-3.85
-2.48
0.68
3.56
3.58
-0.74
-8.64
-17.21
-22.78
-22.78
-17.06
-7.97
0.92
6.69
8.53
7.81
7.00
8.00
10.98
14.31
15.68
13.48
7.94
1.03
-4.45
-6.31
-3.98
1.38
7.62
12.82
16.29
18.67
21.02
23.59
25.00
22.50
13.50
-2.27
-21.49
-37.74
-44.09
-36.40
-15.58
12.54
39.76
59.10
67.46
65.95
57.91
46.17
31.32
12.11
-12.30
-39.96
-65.23
-80.49
-79.70
-61.73
-31.55
1.49
27.68
40.92
40.93
32.44
22.02
14.52
10.99
9.05
5.15
-2.70
-13.39
-23.15
-27.70
-24.69
-15.04
-2.62
7.62
12.02
9.88
3.58
-2.94
-6.26
-5.14
-0.88
3.77
6.48
6.81
6.47
8.10
13.38
21.57
29.16
31.21
23.90
6.93
-15.53
-36.33
-48.41
-48.32
-37.62
-21.70
-6.43
5.24
14.37
24.16
36.36
48.65
54.70
47.68
24.79
-9.59
-44.88
-69.13
-74.95
-63.35
-43.02
-25.46
-18.54
-22.40
-29.81
-31.00
-19.78
2.70
28.56
47.90
54.36
48.50
36.76
26.94
23.27
24.01
22.88
13.48
-6.24
-31.84
-54.03
-63.25
-54.56
-30.24
1.36
29.90
47.94
54.00
51.94
47.48
44.02
40.48
32.37
15.43
-10.39
-39.22
-61.33
-67.58
-54.06
-24.16
12.98
46.80
69.84
80.31
81.25
77.00
70.00
59.43
42.87
19.72
-5.96
-25.45
-28.96
-10.80
26.38
71.90
111.50
133.95
136.13
124.03
109.07
102.05
107.88
123.52
140.70
150.68
148.41
134.41
113.11
89.67
67.01
44.52
18.11
-17.50
-66.19
-128.13
-198.80
-269.77
-330.99
-374.08
-392.00
-383.54
-353.15
-308.61
-257.62
-204.61
-150.56
-95.21
-39.98
10.52
49.30
70.71
73.25
60.44
39.03
15.83
-4.79
-21.26
-34.15
-44.87
-54.26
-62.44
-69.44
-75.88
-82.99
-92.24
-102.92
-112.42
-117.42
-115.35
-105.74
-90.57
-73.35
-56.88
-42.72
-30.25
-17.71
-4.02
9.76
20.34
23.91
18.91
8.04
-1.41
0.24
20.65
61.56
117.33
176.49
226.18
258.06
269.81
264.96
250.77
234.78
222.01
214.02
209.35
204.92
197.46
184.00
162.31
131.20
90.78
42.98
-7.52
-53.25
-85.33
-96.52
-84.88
-55.61
-20.16
7.58
16.65
3.47
-26.77
-62.66
-91.70
-105.57
-102.58
-87.03
-65.88
-45.15
-27.65
-13.75
-3.37
1.94
-1.32
-16.46
-43.11
-74.92
-100.14
-106.23
-86.12
-42.61
11.56
58.58
82.97
78.16
49.04
9.25
-25.32
-43.37
-42.13
-27.05
-7.66
7.62
15.15
16.12
13.79
9.98
3.47
-8.65
-27.42
-49.07
-64.77
-64.33
-42.13
-1.55
44.74
79.42
88.20
66.61
22.63
-26.49
-61.91
-71.37
-54.10
-20.13
15.11
38.22
43.40
33.46
16.60
1.09
-8.77
-13.29
-14.84
-14.48
-10.29
1.05
20.46
43.35
59.91
59.16
35.10
-8.64
-58.51
-95.96
-105.70
-82.99
-36.13
16.82
55.96
68.12
52.35
19.37
-14.17
-33.81
-33.47
-17.01
5.21
22.41
28.84
25.35
17.18
9.58
4.50
0.37
-5.17
-11.95
-16.02
-11.52
4.77
29.65
53.22
62.65
48.69
11.16
-39.35
-85.13
-108.81
-101.05
-64.58
-12.92
35.53
65.31
69.94
53.35
26.66
2.09
-12.53
-16.05
-12.35
-6.39
-0.63
5.64
14.14
24.31
31.75
29.93
14.55
-12.19
-40.75
-57.73
-52.80
-24.86
16.17
53.15
69.52
57.01
19.77
-27.55
-66.40
-82.49
-71.41
-39.41
0.50
34.76
54.75
58.85
50.85
36.18
18.62
-0.73
-21.69
-42.36
-57.51
-60.03
-44.93
-13.33
26.18
60.08
75.50
66.25
35.96
-3.40
-36.99
-53.86
-51.39
-35.33
-15.68
-0.89
6.31
9.19
13.49
22.55
34.15
41.28
36.11
15.28
-16.91
-49.45
-69.65
-69.34
-48.91
-17.02
13.90
33.76
39.23
34.27
26.39
21.39
19.71
16.63
6.08
-14.14
-39.30
-58.98
-62.44
-44.79
-10.40
28.50
57.55
66.94
55.80
31.92
6.96
-9.67
-15.04
-12.82
-9.70
-10.47
-14.76
-17.46
-12.50
2.56
23.97
42.78
49.12
37.44
10.05
-23.30
-49.80
-59.63
-50.43
-28.05
-3.00
15.19
22.65
22.32
20.94
23.94
31.40
37.60
34.36
16.50
-14.00
-47.79
-72.36
-78.35
-64.37
-37.51
-9.41
10.12
17.96
18.61
20.31
29.19
44.91
60.31
65.40
53.17
24.08
-13.46
-47.10
-66.60
-68.47
-56.94
-40.64
-27.24
-19.14
-12.66
-1.34
18.79
45.50
70.20
81.80
72.53
42.57
0.83
-39.01
-64.76
-71.12
-61.36
-44.38
-29.13
-19.56
-12.91
-2.56
16.70
44.20
72.47
90.55
89.78
68.71
34.31
-1.41
-27.47
-38.93
-38.55
-33.86
-31.98
-34.99
-38.74
-35.74
-20.45
6.37
36.98
59.97
66.05
52.94
26.71
-1.52
-21.45
-28.66
-26.02
-20.93
-20.08
-25.01
-30.97
-30.12
-16.93
7.66
35.56
55.07
56.84
38.94
8.30
-22.60
-41.97
-44.29
-32.36
-14.80
-0.60
5.98
7.20
9.32
17.48
31.37
44.42
47.08
32.47
1.14
-37.90
-70.94
-85.97
-78.25
-52.13
-18.25
12.19
32.70
43.58
49.72
55.82
62.24
64.13
54.25
27.97
-12.49
-57.35
-92.94
-107.89
-98.62
-71.00
-37.37
-10.39
3.11
4.90
3.26
7.40
21.68
43.03
62.98
72.91
69.34
55.90
40.77
31.16
28.53
27.49
19.11
-3.32
-39.17
-79.28
-109.44
-117.02
-97.19
-55.30
-4.59
39.86
67.49
75.95
70.03
57.13
42.38
26.16
5.59
-21.38
-52.00
-77.82
-88.20
-76.04
-42.49
2.41
43.75
68.56
71.46
56.52
34.21
15.20
4.94
1.65
-1.17
-9.58
-24.49
-40.27
-47.69
-39.36
-14.46
19.88
51.49
68.67
65.54
44.70
15.36
-11.44
-28.11
-33.34
-31.13
-26.99
-23.66
-19.27
-9.07
10.19
36.25
60.49
71.04
58.80
22.81
-27.50
-75.58
-104.60
-104.83
-77.52
-33.80
10.90
43.67
59.07
59.46
51.48
40.99
29.66
15.12
-5.65
-32.12
-58.00
-73.39
-69.78
-45.39
-7.15
31.77
58.03
64.19
51.90
30.11
9.80
-2.06
-5.45
-6.06
-10.46
-21.02
-33.48
-39.10
-30.09
-5.07
28.70
57.83
68.84
54.87
19.56
-24.28
-60.35
-76.15
-68.06
-41.88
-8.85
20.22
39.54
49.31
52.81
52.35
46.69
31.82
4.77
-32.32
-70.41
-96.28
-98.49
-73.53
-28.32
22.18
61.56
79.12
73.99
54.31
31.91
15.76
7.76
3.05
-5.68
-22.54
-44.79
-63.72
-69.30
-56.16
-26.96
8.56
38.57
55.05
57.31
51.29
44.71
41.69
39.90
32.24
11.83
-22.44
-63.28
-97.15
-110.41
-96.04
-57.32
-6.62
40.23
70.81
80.77
74.19
59.50
43.97
29.92
14.76
-5.50
-31.63
-58.56
-76.82
-77.43
-57.31
-21.87
16.95
46.36
58.95
55.83
45.25
37.06
36.62
41.67
43.82
33.75
7.06
-32.29
-73.08
-101.72
-108.59
-92.20
-59.47
-21.97
9.61
30.01
40.50
46.17
51.42
56.62
57.65
48.89
27.52
-3.35
-35.09
-57.53
-64.22
-55.94
-40.29
-27.43
-24.17
-29.91
-36.81
-34.34
-15.73
17.60
56.03
86.29
97.99
88.68
64.45
36.06
12.89
-1.60
-10.67
-20.96
-37.43
-59.24
-79.47
-88.66
-80.31
-55.03
-20.90
10.52
30.22
36.50
35.42
36.62
46.90
65.79
85.53
95.55
88.76
65.86
35.10
7.73
-8.21
-11.85
-9.46
-10.33
-21.26
-42.47
-67.35
-86.09
-91.15
-81.31
-62.18
-42.73
-29.93
-24.57
-21.00
-11.11
9.94
39.79
69.29
87.17
86.25
67.62
40.20
15.85
2.85
1.65
5.02
2.63
-12.79
-40.70
-72.27
-94.50
-96.66
-75.66
-37.60
5.29
40.57
61.14
67.46
65.34
61.09
57.13
50.78
36.75
11.69
-22.04
-56.05
-79.59
-85.07
-72.29
-48.76
-25.79
-12.25
-9.78
-12.13
-9.32
5.84
32.89
63.42
85.63
91.01
79.25
58.20
38.95
29.10
28.34
28.93
20.65
-2.69
-38.88
-77.54
-105.17
-112.05
-97.39
-69.88
-43.28
-29.18
-30.87
-41.60
-48.57
-40.37
-13.58
25.09
62.49
86.17
91.07
81.60
68.21
60.74
62.77
70.25
74.77
69.22
52.22
28.87
7.33
-6.26
-11.38
-13.34
-19.81
-35.95
-60.76
-86.79
-103.75
-104.09
-87.22
-60.21
-34.09
-17.95
-13.95
-16.41
-15.60
-3.96
19.17
47.04
69.60
79.39
75.76
64.59
53.95
48.49
46.46
40.99
24.77
-4.59
-41.99
-76.48
-96.56
-96.11
-77.61
-50.88
-27.88
-16.45
-16.26
-19.49
-15.94
0.43
27.65
56.54
75.93
79.00
66.91
47.70
30.88
21.61
17.80
11.94
-3.50
-30.63
-63.65
-91.11
-101.59
-89.74
-59.06
-20.23
14.29
36.22
44.75
45.63
46.51
51.73
59.52
63.23
55.64
33.58
0.53
-34.46
-60.84
-71.48
-65.70
-49.07
-30.34
-16.86
-11.08
-9.65
-5.89
5.96
26.88
51.90
72.08
78.99
69.05
45.69
17.62
-5.67
-18.72
-22.53
-23.35
-28.23
-40.05
-54.85
-63.52
-56.99
-32.03
5.86
44.45
70.74
77.57
67.00
48.32
31.83
22.47
17.22
7.83
-12.80
-44.62
-78.72
-101.38
-101.59
-77.44
-37.49
3.63
33.00
45.64
45.93
43.11
44.31
49.49
51.53
41.15
13.70
-26.56
-67.25
-93.62
-95.76
-73.20
-34.72
6.29
38.13
55.31
59.40
56.21
51.18
45.97
37.97
22.63
-2.59
-34.93
-65.87
-84.22
-81.27
-55.55
-14.46
28.38
58.95
69.14
59.98
39.96
19.49
4.92
-4.24
-13.24
-26.58
-43.27
-55.91
-54.91
-35.01
0.28
39.20
67.02
73.15
56.04
23.41
-11.86
-38.04
-49.23
-46.66
-36.47
-25.45
-17.28
-10.84
-1.82
13.77
36.07
59.86
76.33
77.36
60.26
30.21
-1.87
-24.77
-33.06
-29.90
-24.89
-27.83
-42.10
-61.85
-74.99
-70.43
-44.93
-5.56
34.02
60.95
69.74
64.13
53.36
45.42
42.02
38.17
26.13
1.29
-33.87
-69.67
-93.44
-95.46
-73.68
-34.95
7.89
41.56
57.95
57.12
45.72
32.24
21.54
12.36
-0.75
-22.23
-50.61
-77.13
-89.71
-79.65
-46.98
-1.29
42.61
71.62
79.92
70.54
52.35
34.47
21.60
12.47
1.93
-14.57
-36.88
-58.70
-70.24
-63.40
-36.79
2.41
41.34
67.48
74.62
65.25
47.97
31.62
20.09
10.81
-2.33
-23.56
-51.14
-76.76
-89.33
-80.86
-51.00
-7.97
34.77
64.49
74.69
67.47
51.35
35.74
25.43
18.17
6.91
-14.56
-46.07
-79.27
-101.28
-101.52
-77.69
-37.40
5.74
38.94
56.15
59.69
57.23
56.05
58.50
60.87
56.02
38.14
6.92
-31.00
-64.50
-83.00
-81.62
-63.64
-38.72
-17.68
-6.59
-3.70
-1.35
8.36
27.73
51.21
68.16
69.02
50.92
19.73
-13.10
-36.60
-45.49
-41.97
-33.27
-26.78
-25.53
-26.56
-23.08
-9.08
16.16
46.35
70.41
77.80
64.14
33.98
-1.37
-29.69
-43.91
-44.99
-39.82
-35.96
-36.37
-37.62
-32.52
-15.43
13.25
45.99
71.15
78.53
64.46
34.04
-1.33
-29.30
-42.43
-41.04
-31.81
-22.88
-18.51
-16.64
-10.89
4.12
28.02
53.33
68.71
64.94
40.18
1.77
-37.00
-62.98
-69.10
-56.88
-34.60
-12.37
3.26
12.10
18.98
29.18
43.74
57.53
61.46
47.84
15.80
-26.55
-65.06
-85.97
-82.52
-57.91
-23.22
8.51
28.71
36.57
37.77
39.28
43.90
47.87
43.08
22.68
-13.17
-55.25
-88.71
-100.04
-83.95
-46.16
-0.54
37.59
58.48
61.34
52.69
40.90
30.69
20.78
6.06
-17.43
-47.76
-76.08
-90.30
-81.39
-48.88
-2.10
43.56
73.55
80.53
66.96
42.54
18.32
1.09
-8.95
-16.22
-25.19
-36.10
-43.95
-41.31
-23.42
7.75
42.79
68.47
73.79
55.53
20.27
-18.59
-47.06
-56.74
-47.84
-27.73
-6.11
10.20
20.17
27.41
35.98
46.17
52.90
48.16
26.21
-11.64
-55.58
-90.81
-104.22
-90.48
-54.56
-9.27
30.67
55.10
61.95
56.21
45.28
34.02
22.29
6.72
-15.05
-40.53
-61.65
-68.31
-53.97
-20.19
22.78
59.76
77.35
69.89
41.97
5.81
-24.78
-40.56
-40.09
-28.63
-13.93
-1.47
8.15
18.13
31.52
47.35
59.30
58.38
38.27
0.27
-45.20
-82.27
-96.66
-82.46
-45.14
1.00
39.56
59.49
59.30
45.76
28.48
13.85
2.07
-11.30
-30.58
-55.13
-77.66
-87.34
-75.79
-42.54
3.51
47.59
75.83
81.40
67.08
42.79
19.76
4.66
-2.99
-9.15
-20.19
-37.80
-56.78
-67.61
-61.79
-37.14
0.34
38.87
66.41
76.19
69.34
53.16
36.07
22.73
11.93
-1.35
-21.32
-47.04
-71.18
-83.11
-74.64
-45.03
-2.41
39.49
67.80
76.28
67.74
51.38
36.85
28.68
24.11
15.54
-3.99
-35.44
-71.69
-100.44
-110.19
-96.34
-63.76
-24.56
8.02
26.07
30.51
29.32
31.88
42.81
59.00
71.37
70.42
52.07
20.63
-13.27
-38.26
-48.09
-44.48
-35.33
-29.50
-31.31
-37.73
-40.37
-30.80
-6.23
28.07
60.81
80.16
79.70
61.64
35.14
10.96
-4.37
-11.39
-16.10
-25.03
-40.09
-56.28
-64.10
-55.21
-27.96
10.65
47.82
71.12
74.38
60.35
38.48
19.20
8.17
3.76
-0.80
-12.17
-31.97
-54.79
-70.65
-70.34
-50.80
-17.32
18.69
45.30
55.53
50.28
36.75
23.72
16.35
13.54
9.41
-2.16
-22.75
-47.35
-66.33
-70.30
-55.34
-25.47
8.91
36.03
48.15
44.69
31.35
16.18
5.00
-1.32
-6.11
-13.46
-24.27
-34.70
-38.00
-28.80
-7.13
20.26
42.15
48.04
33.64
3.59
-30.23
-53.87
-57.60
-40.09
-8.79
23.93
46.59
53.56
46.29
31.03
14.63
0.95
-10.03
-20.27
-30.41
-37.57
-36.34
-22.39
3.59
34.34
58.08
63.71
46.37
10.54
-31.29
-64.26
-77.92
-70.88
-50.61
-28.86
-14.87
-10.47
-9.98
-4.62
11.30
36.53
63.28
81.76
85.82
76.52
61.05
47.98
41.85
40.51
36.84
23.58
-1.73
-34.57
-65.21
-83.74
-85.28
-72.66
-55.13
-43.47
-44.20
-55.79
-69.37
-73.80
-61.99
-35.12
-2.06
25.57
39.79
40.70
35.87
35.37
45.37
64.20
83.21
91.90
84.02
61.05
31.27
4.78
-12.00
-19.35
-23.27
-31.22
-46.97
-67.55
-84.23
-87.08
-70.50
-36.62
5.14
42.37
65.29
70.85
62.97
49.03
35.03
22.45
8.52
-10.19
-33.66
-56.16
-68.21
-61.57
-34.53
5.99
46.45
72.40
74.81
54.10
19.72
-14.62
-37.23
-43.07
-34.66
-19.26
-4.20
7.01
15.55
24.67
35.71
45.61
47.67
35.19
6.25
-33.38
-71.32
-93.83
-92.23
-67.15
-28.06
11.41
39.65
51.91
50.95
43.45
34.96
26.40
14.49
-4.47
-30.27
-56.45
-72.27
-68.11
-41.34
1.07
44.77
74.17
79.26
59.89
25.57
-9.49
-32.98
-39.57
-31.60
-16.13
-0.20
12.81
23.58
34.06
43.88
48.53
41.37
18.13
-18.72
-58.62
-86.35
-89.10
-63.24
-17.12
32.03
65.57
71.55
49.79
11.43
-26.77
-50.09
-51.75
-34.59
-8.19
16.44
31.96
36.72
33.51
26.26
17.05
5.57
-9.26
-26.37
-41.11
-46.29
-36.20
-10.60
23.51
53.89
68.16
59.50
30.24
-9.00
-43.92
-62.99
-62.05
-45.31
-22.07
-1.51
11.83
19.32
25.61
34.37
44.98
52.21
49.17
31.84
2.51
-30.35
-55.63
-64.90
-56.36
-35.36
-11.16
8.08
19.13
24.42
28.98
35.98
43.62
45.47
34.22
6.92
-31.44
-68.68
-90.49
-87.31
-59.23
-16.21
26.48
55.21
63.69
54.70
36.88
19.23
6.31
-2.80
-11.96
-23.41
-34.61
-38.89
-29.59
-5.29
27.67
56.74
68.67
56.06
21.56
-22.71
-60.43
-78.17
-70.94
-43.63
-7.73
24.40
44.76
51.73
48.55
39.76
27.92
12.77
-6.66
-28.97
-48.82
-58.08
-50.04
-23.97
12.51
45.59
60.96
50.54
16.88
-27.05
-63.45
-77.78
-65.08
-31.60
8.69
40.85
55.77
52.91
38.49
20.70
5.21
-6.56
-16.01
-23.99
-28.44
-25.09
-10.88
12.46
37.09
51.46
45.86
18.02
-24.46
-66.18
-90.25
-86.02
-54.28
-7.14
37.14
62.03
59.82
34.70
0.01
-28.49
-39.75
-31.45
-9.73
15.16
34.47
44.26
45.39
40.69
32.05
19.16
1.08
-20.76
-40.88
-50.89
-43.68
-18.19
18.08
50.86
65.14
52.29
14.94
-33.10
-72.39
-86.74
-70.40
-30.43
16.83
53.33
67.35
57.87
33.38
6.59
-11.97
-18.00
-13.52
-3.75
6.87
16.62
25.71
33.75
37.89
33.30
16.22
-12.32
-44.83
-69.28
-74.27
-55.27
-17.90
23.56
52.07
55.55
32.47
-7.23
-46.71
-69.88
-68.32
-44.29
-8.75
24.29
44.19
47.63
38.37
23.68
9.76
-1.21
-10.50
-19.98
-28.87
-32.77
-25.94
-5.71
24.20
53.61
69.82
63.66
34.66
-7.84
-48.38
-72.38
-72.39
-50.83
-17.91
13.95
36.05
46.46
48.83
48.31
47.15
42.85
30.11
5.26
-29.64
-65.46
-89.21
-90.22
-65.79
-23.26
22.84
57.10
70.05
61.66
40.10
16.40
-1.32
-11.10
-16.24
-21.16
-27.04
-30.23
-24.64
-6.61
21.04
48.49
62.79
54.38
22.64
-22.36
-63.83
-85.84
-80.68
-52.07
-12.67
22.72
44.16
50.41
47.32
42.34
39.02
34.85
23.63
0.73
-32.26
-66.33
-88.72
-89.25
-65.74
-25.48
18.03
51.32
66.97
66.06
56.11
45.69
39.13
34.33
24.76
4.52
-26.93
-62.69
-91.17
-101.59
-89.77
-60.33
-24.41
5.97
23.81
30.09
32.03
37.61
50.30
66.58
77.80
75.50
56.65
25.88
-6.71
-30.84
-41.42
-40.70
-36.14
-35.33
-41.13
-49.53
-51.93
-40.65
-13.96
22.03
55.67
75.41
75.60
59.07
35.02
13.71
0.87
-4.94
-10.52
-22.95
-44.78
-71.35
-92.56
-98.17
-83.33
-51.42
-12.66
20.85
41.12
48.04
48.16
50.09
58.85
72.68
84.26
85.58
72.87
49.28
23.20
3.28
-6.67
-9.65
-13.45
-25.77
-49.11
-78.29
-102.61
-111.32
-99.38
-70.56
-35.92
-8.00
5.65
6.21
2.28
4.41
18.44
42.06
66.48
81.59
81.96
69.76
52.88
39.54
33.31
31.22
25.84
10.32
-16.98
-50.66
-80.67
-97.20
-95.93
-80.48
-60.57
-47.03
-46.07
-55.60
-66.36
-67.23
-51.77
-22.23
11.21
35.93
44.04
36.96
24.44
18.66
27.08
48.10
72.35
88.58
90.40
79.82
65.64
57.62
60.45
71.10
80.96
81.13
67.71
44.14
18.91
0.46
-7.65
-8.56
-10.24
-20.47
-42.23
-71.46
-98.70
-113.87
-111.68
-94.48
-71.01
-51.86
-43.72
-45.37
-48.73
-43.76
-24.49
7.18
42.10
69.08
81.04
78.54
68.78
60.50
58.33
60.01
58.26
45.62
19.66
-14.70
-47.28
-67.96
-72.04
-62.71
-49.42
-42.60
-47.96
-63.16
-78.79
-83.41
-70.16
-40.63
-4.29
26.50
43.15
45.60
41.40
40.70
49.83
67.36
85.14
93.60
87.48
68.97
46.35
28.54
19.81
17.44
13.62
0.40
-25.01
-57.94
-88.12
-104.72
-101.99
-82.33
-55.06
-31.56
-19.37
-18.11
-20.33
-16.21
0.29
27.54
56.99
78.00
83.84
75.28
59.61
45.67
38.38
35.96
31.37
17.15
-9.37
-43.47
-74.81
-92.67
-91.60
-74.37
-50.55
-31.27
-23.33
-25.38
-29.20
-24.76
-6.50
23.08
54.62
77.08
83.86
76.22
61.93
50.08
45.44
45.77
43.45
30.49
3.83
-31.88
-65.99
-87.14
-89.06
-73.78
-50.41
-29.94
-19.30
-17.61
-17.35
-9.55
10.19
38.26
64.42
77.20
70.04
45.21
12.47
-16.05
-32.18
-35.27
-31.42
-28.95
-32.82
-41.22
-46.63
-40.48
-18.73
14.79
49.78
74.49
81.52
71.54
52.15
32.91
19.79
12.20
3.94
-11.83
-37.22
-67.12
-90.75
-97.22
-81.70
-48.32
-8.45
24.85
43.33
47.19
43.62
41.65
46.15
54.65
59.12
51.12
27.09
-8.48
-44.85
-70.28
-77.67
-67.80
-48.55
-30.05
-19.19
-16.10
-14.48
-6.20
13.00
40.34
66.74
81.29
77.48
56.83
27.90
1.72
-14.32
-20.15
-21.81
-26.99
-39.60
-56.38
-68.43
-66.30
-45.46
-9.71
30.09
61.39
75.64
72.05
57.05
39.61
25.83
15.98
5.11
-12.52
-38.33
-66.95
-87.76
-90.04
-69.24
-29.87
15.94
53.86
74.06
75.24
63.80
49.11
37.58
29.13
18.40
-0.72
-29.84
-63.04
-88.88
-95.91
-78.71
-41.28
4.43
43.98
66.76
70.21
59.71
44.09
30.14
19.11
6.98
-11.25
-36.85
-64.57
-84.15
-85.49
-64.42
-25.51
19.35
56.31
75.78
76.05
63.04
45.78
30.99
19.70
7.83
-10.01
-35.47
-63.56
-84.25
-87.23
-67.83
-30.33
13.56
49.95
69.24
70.04
58.63
44.12
32.85
24.92
15.07
-2.63
-29.99
-61.76
-87.34
-96.10
-82.91
-51.18
-11.57
23.31
44.76
51.61
49.69
47.17
48.92
53.44
53.68
41.58
13.92
-24.48
-61.96
-85.28
-86.27
-65.87
-33.32
-1.34
20.54
30.29
32.96
36.37
45.12
57.09
64.36
58.04
33.89
-3.79
-43.57
-72.14
-80.75
-69.43
-46.46
-23.29
-8.44
-3.12
-1.42
4.92
20.75
43.96
65.91
76.26
68.89
45.36
14.39
-13.00
-29.47
-34.71
-34.78
-37.96
-48.82
-64.87
-77.57
-76.83
-57.29
-21.97
18.81
52.38
70.14
71.73
64.08
56.35
54.07
55.60
53.57
39.97
11.43
-27.35
-65.22
-89.96
-94.16
-78.65
-51.99
-25.42
-7.18
1.35
5.57
13.13
28.49
49.56
68.35
75.35
65.23
40.14
8.84
-17.86
-32.90
-36.19
-33.75
-33.30
-38.93
-48.06
-52.66
-44.15
-19.04
17.87
54.76
78.20
79.46
58.96
25.93
-6.54
-28.00
-35.09
-31.97
-26.24
-23.44
-23.64
-21.59
-11.23
9.39
35.75
58.14
66.67
56.70
31.53
0.91
-24.14
-37.17
-39.05
-36.95
-39.66
-51.91
-71.14
-88.39
-93.02
-78.93
-48.33
-11.17
19.74
35.50
35.75
28.42
24.76
32.46
51.24
73.35
88.49
90.19
79.64
64.59
54.30
53.76
60.89
68.18
67.68
55.86
35.89
15.52
2.32
-0.93
2.12
3.59
-4.03
-23.48
-50.74
-76.94
-92.96
-94.28
-83.53
-69.07
-60.44
-63.15
-75.09
-87.65
-90.31
-76.52
-47.82
-12.99
16.70
33.48
37.56
36.00
37.87
48.43
65.58
81.26
86.60
77.15
55.80
31.02
11.63
1.88
-1.05
-4.93
-17.46
-41.26
-71.34
-97.08
-107.55
-97.17
-69.08
-33.62
-3.08
14.40
19.07
18.36
21.90
35.48
57.21
78.82
90.51
86.54
68.77
44.95
24.10
11.11
4.21
-3.18
-17.74
-41.12
-67.84
-87.41
-89.74
-70.80
-35.26
5.51
38.86
56.84
59.63
53.99
48.26
46.95
47.93
44.25
28.94
0.20
-36.15
-68.97
-87.28
-86.04
-68.77
-45.56
-27.56
-20.81
-23.12
-25.81
-19.22
1.16
31.60
61.92
80.91
82.46
68.57
47.62
29.04
17.73
11.56
3.47
-13.32
-40.02
-69.93
-91.24
-92.91
-70.84
-30.63
14.94
51.73
70.83
71.93
61.92
49.60
39.89
31.53
18.78
-3.59
-35.18
-68.42
-91.33
-93.59
-72.21
-33.44
9.77
43.95
61.11
61.64
52.69
42.70
36.26
31.52
22.08
2.25
-28.14
-61.45
-85.38
-88.90
-68.25
-29.51
14.35
49.45
67.42
68.38
59.14
47.89
38.81
30.25
16.62
-6.45
-37.66
-68.76
-87.79
-85.20
-59.08
-16.84
27.76
60.95
74.86
70.38
55.23
38.66
26.05
16.35
4.12
-15.81
-43.41
-71.79
-90.08
-88.99
-66.36
-28.71
11.57
42.23
56.82
56.89
49.83
43.20
39.81
36.17
25.16
1.58
-33.17
-69.76
-94.79
-97.16
-73.92
-32.16
14.25
50.95
69.41
69.69
58.51
44.12
31.25
19.14
3.54
-18.65
-45.37
-68.55
-77.62
-65.25
-32.22
11.81
52.01
74.83
74.04
53.11
22.82
-4.57
-21.20
-26.39
-25.17
-23.60
-24.18
-24.05
-17.42
-0.51
24.46
48.50
59.79
49.84
18.71
-23.67
-61.58
-80.54
-74.14
-46.26
-8.70
25.15
46.22
52.93
49.56
41.83
32.74
21.05
3.51
-21.06
-48.62
-69.95
-74.72
-57.11
-19.90
25.52
63.60
81.09
72.99
44.35
7.70
-23.08
-38.91
-38.65
-28.12
-15.46
-6.11
-0.07
6.82
18.64
35.24
50.60
55.48
42.54
11.39
-29.59
-66.34
-85.31
-79.90
-53.03
-15.37
20.26
44.65
55.23
55.05
48.80
39.09
25.03
4.57
-21.93
-49.03
-67.05
-66.61
-44.09
-5.45
35.30
61.52
61.73
35.36
-6.45
-45.60
-65.66
-58.89
-29.61
8.81
40.70
55.34
51.23
34.74
15.64
1.16
-6.66
-10.36
-13.32
-16.08
-15.48
-6.93
11.12
34.42
53.08
56.01
36.84
-1.66
-47.32
-83.65
-96.92
-82.90
-48.13
-6.51
27.82
46.95
51.69
49.21
46.87
47.43
47.10
38.58
16.45
-18.14
-56.35
-85.47
-94.85
-81.58
-51.50
-16.38
12.40
29.06
35.37
38.12
43.43
52.46
59.75
56.76
37.16
2.01
-39.17
-72.33
-85.23
-73.78
-43.45
-6.66
23.96
41.30
46.23
45.37
45.36
48.25
49.61
41.87
19.38
-16.44
-56.28
-86.63
-96.11
-81.39
-48.37
-9.58
22.54
41.04
46.93
46.80
47.40
51.03
53.64
47.98
28.22
-4.82
-42.96
-73.68
-86.09
-76.40
-49.29
-15.62
13.54
31.68
39.29
41.57
43.90
47.63
48.65
40.33
17.93
-16.63
-54.30
-82.07
-89.23
-72.67
-38.33
1.43
34.22
52.76
57.53
54.45
50.15
47.41
43.41
32.43
9.93
-22.76
-58.01
-84.52
-92.98
-80.71
-52.97
-20.46
6.44
22.28
28.76
32.08
38.31
48.56
57.76
57.59
41.39
9.49
-29.94
-63.74
-80.12
-74.09
-49.66
-17.46
11.10
29.07
36.71
39.29
42.62
48.14
51.50
45.32
24.03
-10.93
-50.36
-80.55
-89.92
-74.72
-40.96
-1.38
30.99
48.71
52.64
49.42
46.44
46.36
45.66
37.16
15.31
-18.72
-56.01
-83.23
-89.29
-70.81
-34.32
7.11
40.16
57.23
59.10
52.62
45.38
40.45
34.98
22.49
-1.64
-35.68
-70.47
-93.16
-93.53
-69.40
-28.37
15.72
49.00
63.71
60.83
47.94
33.84
23.19
14.54
2.33
-18.16
-46.26
-74.32
-90.86
-86.36
-58.76
-15.25
30.49
64.45
78.40
72.97
55.89
36.88
21.96
10.97
-0.88
-18.25
-40.86
-61.92
-71.08
-60.41
-29.52
12.90
52.70
76.71
78.71
61.90
36.26
12.76
-2.39
-10.07
-16.34
-27.23
-43.95
-60.90
-68.55
-58.88
-30.72
8.74
46.90
71.80
77.78
67.68
50.20
34.22
23.75
16.07
4.64
-15.91
-45.01
-75.06
-94.48
-93.68
-70.12
-30.05
13.96
48.93
66.90
67.94
58.31
46.04
35.60
26.00
12.31
-9.73
-39.24
-68.79
-87.23
-85.48
-61.52
-22.31
19.56
51.55
66.94
67.07
59.24
51.28
46.74
43.06
33.61
12.80
-19.58
-56.41
-86.09
-97.90
-87.55
-59.21
-23.69
7.20
26.22
33.64
35.62
39.26
47.43
56.48
58.44
45.90
17.46
-20.29
-55.20
-75.29
-74.40
-55.06
-26.36
0.91
19.68
29.27
34.17
39.51
46.68
51.73
47.29
27.71
-6.49
-46.67
-79.34
-92.06
-79.74
-47.00
-6.02
29.58
50.96
57.32
54.51
50.05
47.99
46.44
39.54
21.71
-7.55
-42.10
-71.60
-86.79
-84.29
-68.69
-50.00
-38.43
-38.75
-47.69
-55.67
-52.36
-32.70
0.09
35.74
62.81
74.48
72.27
64.10
59.28
62.57
71.85
80.00
79.87
68.99
51.25
34.26
24.44
23.04
25.10
22.68
9.41
-15.39
-45.75
-71.85
-85.25
-83.07
-69.87
-54.94
-47.56
-51.67
-63.55
-73.65
-71.95
-53.69
-22.02
13.31
41.45
55.96
58.00
54.60
53.73
59.04
67.71
72.32
65.72
45.68
16.88
-11.46
-30.56
-36.95
-34.17
-30.59
-34.13
-47.39
-65.24
-77.33
-73.73
-50.69
-13.30
26.76
56.97
70.27
68.07
58.37
50.23
47.98
48.93
45.35
29.85
0.51
-36.80
-70.91
-90.75
-91.08
-74.97
-51.97
-32.80
-23.46
-22.21
-21.23
-11.83
9.71
39.50
67.74
84.34
84.38
70.87
52.48
37.93
30.78
27.49
20.05
1.44
-29.14
-64.63
-93.07
-103.51
-91.84
-62.97
-28.40
-0.32
14.52
17.74
17.40
22.37
36.56
56.12
71.69
73.65
58.02
29.00
-3.08
-27.40
-38.10
-37.04
-31.68
-30.11
-35.72
-44.84
-48.78
-39.32
-13.94
21.79
56.55
78.92
83.18
71.96
54.10
39.18
31.90
29.83
25.46
11.39
-14.53
-47.06
-75.81
-90.71
-87.49
-70.11
-48.60
-33.73
-31.05
-37.94
-45.34
-43.22
-26.39
2.30
33.78
57.78
68.46
67.15
60.54
55.66
55.15
55.51
49.39
30.63
-1.10
-38.75
-70.63
-86.01
-80.57
-58.63
-30.82
-8.54
2.04
2.82
1.96
8.34
25.79
50.14
71.27
78.57
66.94
39.87
7.56
-18.68
-32.25
-34.37
-32.26
-34.15
-43.50
-56.45
-63.63
-55.97
-30.32
7.74
46.31
72.94
80.93
72.11
55.01
38.99
28.88
22.45
12.85
-6.35
-35.73
-68.39
-92.52
-97.48
-79.30
-43.26
-1.33
33.44
53.00
57.37
53.18
48.67
48.42
50.59
48.59
35.58
9.59
-24.26
-55.64
-74.42
-75.91
-63.55
-46.86
-35.99
-35.91
-43.43
-49.12
-43.14
-21.27
12.14
46.40
70.22
77.97
72.17
61.28
53.80
53.06
55.25
52.33
37.35
9.31
-25.42
-56.04
-73.11
-73.40
-61.78
-48.26
-42.52
-48.29
-61.08
-70.50
-66.31
-44.32
-9.15
28.04
55.38
66.72
64.38
57.07
54.09
59.70
70.68
78.79
75.92
59.17
32.75
5.64
-13.66
-21.75
-22.24
-23.23
-32.46
-52.09
-76.66
-95.16
-96.95
-77.42
-41.21
0.08
33.41
51.00
53.70
49.43
47.53
52.89
62.92
69.59
64.46
44.33
13.56
-18.03
-40.52
-49.10
-46.49
-40.79
-40.25
-48.02
-59.71
-65.78
-57.17
-31.02
6.90
44.70
70.30
77.60
68.95
52.88
38.37
29.35
22.91
11.94
-9.40
-40.90
-74.91
-99.64
-105.14
-88.53
-55.69
-18.50
11.16
27.00
31.03
31.12
35.73
48.25
64.98
77.04
75.86
58.17
28.51
-3.26
-27.21
-38.57
-39.75
-38.28
-41.47
-51.46
-63.40
-68.05
-57.29
-29.49
8.90
46.06
70.75
77.59
69.42
54.60
41.59
33.84
28.27
17.92
-2.79
-33.40
-66.05
-88.84
-91.66
-71.70
-35.09
5.79
38.35
55.41
57.95
52.89
47.98
46.51
45.52
37.88
17.66
-15.05
-52.38
-81.86
-92.38
-80.01
-49.99
-14.12
15.37
31.57
35.57
34.38
35.49
41.95
50.24
52.78
42.69
18.83
-12.91
-42.04
-59.04
-60.07
-48.92
-34.25
-24.65
-23.52
-27.32
-28.04
-18.27
3.79
32.81
58.71
72.05
68.77
52.31
30.97
13.15
2.45
-3.51
-11.09
-25.63
-47.38
-70.14
-84.14
-81.19
-59.42
-24.79
11.76
39.42
52.85
53.99
49.90
47.54
49.42
51.76
47.21
29.56
-1.65
-39.41
-72.19
-89.20
-85.94
-66.16
-39.99
-18.11
-6.35
-2.77
0.23
10.62
31.21
57.50
80.00
89.69
83.26
64.86
43.45
27.12
18.61
13.91
5.34
-13.29
-42.31
-74.75
-99.47
-106.55
-92.45
-61.81
-25.32
5.68
24.59
32.21
35.00
40.13
50.39
62.06
66.98
57.65
32.33
-2.87
-36.60
-57.87
-61.78
-51.63
-36.75
-26.63
-25.46
-29.64
-30.27
-19.05
6.30
39.80
70.10
86.41
84.05
66.74
43.80
24.50
12.84
6.09
-2.78
-19.75
-45.26
-72.72
-91.35
-91.81
-71.16
-35.00
5.24
37.56
55.03
58.31
53.93
49.18
47.24
45.28
36.40
14.94
-19.06
-57.73
-88.57
-100.18
-88.06
-56.89
-18.21
15.31
35.98
43.82
45.36
48.12
55.65
64.88
68.09
58.02
32.65
-2.20
-35.77
-57.45
-62.70
-54.93
-43.47
-37.87
-42.09
-52.27
-58.69
-51.93
-28.53
6.42
41.80
66.45
74.82
69.73
59.55
52.71
52.16
53.83
49.41
31.78
0.15
-38.69
-72.98
-91.96
-90.89
-73.22
-48.39
-26.51
-13.28
-7.32
-2.11
9.09
28.34
50.93
67.49
69.03
52.21
21.74
-11.76
-36.95
-47.51
-44.81
-36.39
-30.86
-32.50
-38.47
-40.62
-30.75
-6.07
28.31
61.54
82.49
85.52
73.04
53.57
36.20
25.32
18.52
9.01
-9.27
-36.70
-66.35
-86.93
-88.50
-67.93
-30.98
10.31
43.25
60.20
61.46
53.41
43.68
36.11
28.85
16.22
-6.37
-37.98
-70.50
-91.81
-91.68
-67.28
-25.40
20.39
55.89
72.63
70.94
58.30
43.95
33.23
25.05
13.58
-6.82
-36.62
-69.01
-92.47
-96.30
-76.43
-37.86
7.14
44.61
64.97
66.60
55.30
39.71
26.20
15.56
3.90
-13.42
-37.08
-61.28
-76.03
-72.19
-47.16
-7.23
34.58
64.32
73.40
62.06
38.39
13.36
-5.00
-14.92
-20.36
-26.65
-36.05
-45.10
-46.47
-33.71
-5.93
30.16
62.82
80.59
77.91
57.66
29.34
3.87
-12.04
-18.58
-21.61
-28.21
-41.74
-58.93
-71.32
-69.78
-49.96
-15.31
24.06
56.01
72.27
71.99
61.25
48.58
39.52
33.47
24.66
6.72
-22.13
-56.27
-84.38
-94.94
-82.21
-49.44
-7.61
29.90
53.37
60.54
56.32
48.23
41.31
35.07
24.40
3.94
-27.23
-62.90
-91.66
-102.10
-88.66
-54.92
-11.98
26.50
50.66
58.20
53.90
45.55
38.42
32.44
22.75
3.83
-25.74
-60.48
-89.39
-100.89
-88.70
-55.32
-11.32
29.52
56.56
66.81
65.23
60.73
60.40
65.41
70.81
69.20
55.75
31.79
4.32
-17.87
-29.29
-30.80
-28.99
-31.95
-44.11
-62.83
-79.12
-82.28
-65.93
-31.90
10.07
46.96
68.70
72.70
64.11
51.55
41.48
34.26
24.88
6.93
-21.82
-56.28
-85.53
-97.71
-86.52
-54.54
-12.49
25.97
50.59
58.66
55.16
48.35
44.28
43.11
39.29
25.81
-0.83
-36.89
-72.08
-94.37
-95.68
-76.27
-44.35
-11.89
11.50
23.10
27.26
31.62
41.41
55.57
67.14
67.15
50.50
19.52
-16.39
-45.16
-58.26
-54.60
-40.82
-26.94
-20.65
-22.92
-27.56
-25.30
-9.59
19.02
52.50
79.54
91.23
85.83
69.23
50.77
37.83
31.50
26.74
15.86
-6.21
-37.99
-71.61
-96.20
-103.61
-92.62
-69.44
-44.44
-26.42
-18.09
-15.04
-8.96
6.61
32.04
60.67
82.59
90.06
81.84
63.71
44.56
31.14
24.24
18.61
6.83
-15.70
-47.13
-79.17
-101.16
-105.58
-92.39
-69.32
-48.17
-38.58
-42.87
-54.75
-62.96
-57.89
-37.22
-7.64
18.99
32.32
29.64
17.50
7.70
10.34
27.90
53.88
76.82
87.16
82.69
69.55
58.03
56.19
65.06
78.34
86.44
82.38
65.72
42.69
22.20
10.40
7.27
6.77
0.53
-17.05
-45.31
-76.80
-101.05
-109.86
-101.64
-82.47
-62.97
-52.73
-54.86
-64.30
-70.56
-63.83
-40.86
-6.97
26.65
49.31
56.73
53.04
47.78
49.62
61.18
77.57
89.73
90.14
77.34
56.79
37.22
25.35
22.01
21.90
17.14
2.14
-22.83
-51.23
-73.70
-83.06
-78.37
-65.39
-53.74
-51.31
-59.69
-72.89
-80.25
-72.50
-46.93
-9.32
28.94
56.77
68.83
67.68
60.99
56.01
54.83
53.07
43.19
19.74
-15.91
-54.72
-83.96
-93.13
-79.44
-48.95
-13.52
15.27
31.65
37.42
39.56
44.58
53.84
62.20
60.88
43.26
9.71
-31.02
-65.35
-81.45
-74.82
-50.53
-19.96
5.21
19.00
23.34
25.46
32.32
45.41
59.16
64.14
52.44
23.18
-15.99
-52.25
-73.59
-74.72
-58.89
-35.60
-14.95
-2.27
3.88
9.78
21.14
38.71
56.84
66.01
58.57
33.34
-2.58
-36.94
-58.29
-61.41
-49.56
-31.78
-17.51
-11.25
-10.29
-7.22
4.72
26.73
52.58
71.61
74.03
56.43
24.10
-11.69
-39.06
-51.29
-49.17
-39.51
-30.33
-25.75
-23.83
-18.32
-3.35
21.88
51.62
75.86
85.67
78.07
57.66
33.93
15.69
6.24
1.94
-5.11
-21.65
-48.59
-79.50
-103.38
-110.55
-97.70
-70.13
-39.03
-15.65
-5.59
-5.79
-7.01
0.31
20.23
48.50
75.22
90.35
89.56
76.54
60.08
48.58
44.73
44.19
38.53
20.71
-10.08
-46.98
-78.64
-94.87
-92.10
-74.96
-53.97
-39.65
-36.70
-41.64
-45.00
-37.16
-14.32
19.02
52.28
74.69
81.04
74.09
62.06
52.98
49.62
47.95
40.06
19.56
-13.56
-51.76
-83.10
-97.18
-90.50
-68.11
-40.88
-19.67
-9.69
-8.06
-6.37
3.72
24.69
51.22
72.54
78.26
64.29
35.24
2.06
-23.64
-35.51
-34.66
-27.99
-23.03
-22.99
-24.84
-21.54
-7.15
18.35
47.87
69.87
74.17
57.47
25.30
-10.41
-37.13
-47.88
-43.58
-31.57
-20.35
-14.39
-11.95
-6.92
6.18
27.39
50.05
63.42
58.44
33.31
-4.64
-41.82
-64.66
-66.10
-48.31
-20.82
5.01
21.84
29.18
31.78
35.07
40.49
44.00
38.47
18.60
-14.45
-51.93
-80.93
-90.31
-76.22
-43.96
-5.29
27.26
46.16
51.53
49.41
46.99
47.69
48.98
44.29
27.49
-2.40
-39.09
-71.57
-89.25
-87.41
-69.62
-45.70
-26.30
-17.30
-16.74
-16.81
-8.98
10.48
37.88
64.06
79.59
79.94
67.90
51.40
38.35
31.87
28.58
21.01
2.78
-26.68
-60.50
-87.08
-95.83
-82.69
-52.46
-16.38
13.55
30.54
35.81
36.44
39.92
48.81
58.61
60.48
46.76
16.22
-23.82
-60.57
-81.77
-81.43
-62.47
-34.58
-8.71
8.36
16.81
22.36
31.10
44.73
58.56
63.60
52.00
22.31
-18.34
-56.82
-79.98
-81.05
-62.27
-33.25
-5.52
13.37
22.83
27.85
34.45
44.63
54.26
55.24
40.38
8.75
-32.01
-68.48
-87.39
-82.01
-55.44
-18.67
15.14
37.08
46.02
47.62
48.95
53.37
57.62
53.93
35.53
1.83
-39.27
-74.20
-90.09
-81.16
-51.23
-11.86
23.54
45.75
52.95
49.56
42.02
33.99
24.54
10.02
-12.05
-38.72
-61.27
-68.86
-54.59
-20.32
22.44
57.18
69.54
54.01
16.87
-26.50
-58.86
-68.34
-53.31
-22.12
11.95
36.95
47.17
44.18
33.84
21.72
10.13
-2.00
-16.22
-31.08
-41.08
-39.12
-21.19
9.57
42.47
63.44
61.42
34.14
-9.90
-54.57
-83.26
-85.79
-62.57
-23.70
16.34
44.94
56.34
52.47
39.81
24.79
10.59
-3.20
-17.95
-32.39
-41.55
-38.76
-20.23
11.18
45.35
68.63
70.03
46.68
5.92
-37.60
-68.25
-76.13
-60.92
-30.96
1.62
26.68
40.25
44.69
45.07
44.62
42.00
32.19
10.47
-22.92
-60.41
-89.48
-98.25
-81.67
-44.43
0.84
39.44
61.18
64.27
54.62
41.05
29.81
21.12
10.15
-8.68
-36.61
-67.75
-90.90
-95.03
-75.25
-35.96
10.54
49.94
72.31
76.11
67.56
55.75
46.61
39.63
29.08
8.66
-22.85
-58.79
-86.91
-95.35
-78.94
-42.39
1.71
39.19
60.80
66.06
61.80
56.68
55.23
55.09
48.89
29.52
-4.30
-45.66
-81.92
-100.73
-96.17
-71.78
-38.55
-9.24
8.07
13.47
14.03
18.67
32.22
52.10
69.61
74.69
61.73
33.17
-1.48
-30.54
-46.09
-47.63
-41.59
-36.69
-38.28
-44.80
-48.64
-40.99
-17.81
16.78
51.86
75.04
78.82
64.25
39.86
16.33
0.55
-7.42
-13.04
-22.58
-38.01
-54.73
-63.69
-56.50
-30.70
7.80
46.94
73.73
80.04
66.14
39.86
12.13
-8.52
-19.39
-23.68
-26.82
-32.02
-37.53
-37.52
-25.94
-1.35
30.90
60.23
75.52
70.54
47.22
14.72
-15.27
-34.09
-39.99
-37.89
-35.34
-37.41
-43.25
-46.51
-39.43
-18.33
13.38
45.88
67.42
70.13
54.08
27.01
-0.02
-18.28
-25.73
-26.96
-29.34
-37.70
-50.56
-60.30
-57.66
-37.59
-2.84
36.28
66.64
78.61
70.63
49.26
25.02
6.55
-3.96
-10.60
-20.05
-36.30
-56.94
-73.52
-76.08
-59.06
-24.87
16.35
51.49
70.71
71.89
60.59
46.00
35.01
28.16
20.25
4.38
-22.54
-56.22
-85.99
-99.88
-90.97
-61.07
-20.37
17.73
43.08
53.16
53.04
51.09
53.17
58.59
60.89
52.08
28.16
-7.33
-44.07
-70.08
-77.87
-68.03
-48.97
-31.91
-24.63
-27.17
-32.16
-29.41
-12.34
17.58
51.40
77.27
86.74
79.07
61.01
42.10
28.91
21.64
14.45
0.00
-25.23
-57.79
-88.08
-104.71
-100.46
-76.16
-40.28
-4.86
20.28
32.08
34.92
36.75
43.76
56.37
68.57
71.58
59.22
32.03
-2.44
-33.11
-51.07
-53.99
-46.59
-37.30
-32.89
-34.26
-35.81
-29.37
-9.82
20.96
53.64
75.70
77.80
58.77
26.23
-7.05
-29.58
-36.56
-30.92
-20.37
-12.08
-8.22
-4.96
4.05
22.64
48.87
74.99
91.36
91.83
77.20
54.63
33.52
20.24
14.59
10.54
0.30
-20.67
-50.19
-79.60
-98.04
-98.09
-80.05
-52.36
-27.86
-17.57
-25.05
-44.91
-66.27
-78.82
-78.57
-69.32
-59.37
-56.00
-60.62
-67.83
-69.30
-59.28
-38.21
-12.76
8.21
18.83
19.48
16.25
17.09
26.84
44.55
64.05
77.52
79.97
71.99
59.49
50.44
50.43
59.40
71.63
78.63
73.79
56.29
32.05
10.63
0.17
2.56
11.94
17.99
11.66
-9.17
-37.62
-61.29
-69.21
-58.09
-34.35
-10.45
2.37
0.74
-9.07
-15.24
-7.89
14.99
46.04
72.88
85.32
80.90
65.58
49.71
41.54
42.46
46.93
46.33
34.50
11.75
-15.18
-37.20
-48.02
-47.71
-42.78
-42.37
-52.86
-73.98
-98.48
-115.81
-117.86
-103.82
-80.79
-60.19
-51.53
-56.94
-69.55
-77.42
-70.52
-46.45
-12.21
19.59
37.93
39.61
30.73
22.80
25.82
42.14
65.43
84.77
91.17
82.90
66.50
52.43
48.59
55.92
67.85
74.48
68.75
50.67
27.49
9.48
4.19
12.17
27.19
40.07
44.01
38.09
27.29
18.73
16.78
20.38
23.65
19.34
3.43
-22.09
-49.85
-70.98
-79.63
-76.29
-67.64
-62.91
-68.82
-85.66
-106.26
-119.51
-116.39
-94.91
-61.60
-28.35
-5.94
1.86
0.05
-0.95
8.15
29.75
57.90
82.07
93.40
89.92
77.37
65.28
60.77
64.25
69.47
67.58
52.75
25.97
-5.07
-30.36
-43.09
-43.45
-38.48
-37.98
-48.62
-69.67
-92.68
-105.58
-99.13
-72.18
-32.67
6.25
32.88
42.86
40.87
36.98
40.21
53.18
70.87
84.19
85.78
74.51
55.88
38.24
27.30
22.66
18.18
6.04
-18.02
-51.31
-84.65
-106.54
-108.88
-91.20
-61.01
-29.95
-7.96
1.80
3.98
7.49
19.63
41.24
65.95
83.84
87.29
75.46
54.69
34.48
21.73
16.89
14.05
4.96
-15.60
-46.04
-78.08
-100.78
-106.28
-94.08
-71.56
-50.23
-39.59
-41.82
-50.51
-54.34
-43.68
-16.44
20.44
54.78
75.86
80.25
73.17
64.64
63.05
70.23
80.97
86.76
81.34
64.66
42.77
23.82
13.07
9.99
8.59
1.31
-16.35
-42.74
-70.45
-90.21
-95.80
-87.80
-73.68
-63.79
-65.58
-79.14
-96.53
-105.85
-98.05
-72.38
-37.17
-5.51
11.73
12.07
2.67
-4.22
1.34
21.19
48.21
70.50
78.63
71.24
55.81
43.88
44.31
58.28
78.72
94.70
97.94
87.47
69.70
54.13
47.52
49.89
54.61
52.75
38.55
13.00
-16.52
-40.41
-52.29
-52.81
-49.15
-50.74
-63.63
-86.39
-110.11
-122.93
-116.63
-91.55
-56.65
-25.01
-6.87
-4.04
-9.24
-10.87
-0.21
23.53
52.95
76.92
87.24
83.31
71.87
62.27
60.60
66.21
72.33
70.51
55.88
30.20
1.10
-22.25
-34.16
-35.45
-33.08
-36.11
-50.44
-74.89
-101.21
-118.00
-116.62
-96.18
-64.35
-33.32
-13.27
-6.93
-8.40
-7.19
5.05
29.19
58.06
80.77
89.16
82.51
67.48
53.56
47.04
47.19
47.11
38.31
16.29
-16.14
-49.61
-72.92
-78.95
-68.36
-49.13
-32.16
-25.21
-28.52
-34.86
-34.02
-19.09
9.11
42.16
68.60
80.17
76.07
62.66
48.90
40.54
36.86
31.47
16.90
-10.14
-45.59
-79.34
-99.87
-100.14
-81.28
-52.02
-24.17
-6.62
-0.90
-0.99
2.54
16.52
40.85
68.35
88.89
95.04
86.19
68.42
50.51
38.57
32.52
26.66
13.57
-10.95
-44.45
-78.12
-100.95
-105.36
-91.30
-66.49
-42.41
-28.30
-26.12
-29.70
-28.65
-14.89
12.23
45.19
72.25
83.64
76.70
56.80
33.58
15.04
3.27
-5.69
-18.21
-37.93
-62.07
-81.77
-86.61
-70.56
-35.90
7.27
45.60
68.77
74.14
67.20
57.32
51.77
51.64
51.70
44.14
23.88
-7.62
-42.22
-69.06
-80.21
-74.75
-59.00
-42.85
-34.12
-34.11
-36.83
-32.89
-15.48
14.93
50.19
78.46
90.21
83.15
63.05
39.87
21.77
10.76
2.43
-10.26
-31.66
-59.43
-84.56
-95.72
-85.53
-54.87
-13.01
26.79
53.58
63.65
61.37
55.38
52.66
54.20
54.89
47.19
26.36
-5.76
-40.71
-67.50
-78.29
-72.55
-57.21
-42.61
-36.75
-40.66
-47.81
-47.97
-33.51
-4.38
31.48
62.25
78.62
78.61
67.96
55.96
49.37
48.33
46.77
36.81
14.18
-18.43
-52.11
-76.25
-84.17
-76.69
-61.71
-49.62
-47.46
-54.80
-63.92
-64.20
-48.46
-17.55
19.56
50.51
66.28
66.00
56.93
49.76
52.18
64.46
79.77
88.91
86.15
72.76
56.00
44.41
42.56
48.43
54.66
53.06
39.60
16.80
-7.64
-25.37
-32.14
-30.02
-26.34
-29.50
-44.16
-68.18
-93.37
-109.76
-110.89
-97.39
-77.00
-60.61
-56.39
-64.96
-78.77
-86.17
-77.90
-52.36
-16.66
17.17
38.84
45.41
42.55
40.57
47.70
65.17
86.59
102.04
104.03
91.85
71.76
52.79
41.03
36.15
31.87
20.24
-3.10
-35.67
-68.59
-91.03
-95.96
-84.02
-63.35
-45.29
-38.25
-42.98
-52.22
-54.92
-42.72
-15.15
19.87
50.34
66.92
67.98
59.93
52.75
53.73
63.16
74.43
78.40
69.17
47.78
21.58
-0.17
-11.75
-14.14
-14.25
-20.60
-38.07
-64.28
-90.04
-103.87
-97.89
-72.07
-34.39
3.18
30.55
44.25
48.01
49.13
53.00
59.29
61.94
53.08
28.62
-7.93
-46.01
-72.64
-78.89
-64.28
-36.77
-8.38
11.20
19.36
20.88
23.91
33.91
49.46
62.56
63.03
44.61
9.29
-32.65
-67.27
-83.51
-78.17
-56.63
-29.20
-5.37
10.58
20.48
29.20
40.01
51.28
56.60
48.46
23.41
-14.37
-53.76
-81.44
-88.25
-73.59
-45.54
-16.42
3.63
11.72
12.87
16.00
27.74
47.86
68.99
80.55
74.89
51.85
19.15
-11.76
-31.87
-39.20
-39.08
-39.97
-47.63
-60.79
-71.29
-68.87
-47.48
-9.71
33.60
68.48
84.86
81.29
64.82
46.03
32.55
25.06
17.82
3.25
-22.37
-55.19
-84.74
-98.86
-90.00
-59.41
-16.66
24.76
53.70
66.24
66.28
62.05
60.65
63.88
67.72
65.85
54.21
34.13
11.90
-5.10
-12.92
-13.52
-13.84
-21.72
-40.87
-68.18
-94.53
-109.39
-106.50
-87.47
-61.36
-40.24
-32.86
-39.75
-52.90
-60.22
-52.49
-28.72
3.31
31.49
46.31
46.29
38.51
33.98
40.84
59.49
82.52
99.42
102.89
92.94
76.31
61.80
54.55
53.02
50.05
37.49
11.68
-23.70
-58.76
-82.52
-88.68
-78.96
-62.15
-49.33
-47.79
-56.82
-67.88
-69.48
-53.84
-21.63
18.08
52.67
72.66
76.19
68.97
59.72
54.29
52.16
47.08
31.60
2.57
-35.54
-71.91
-94.56
-96.57
-79.76
-53.75
-30.97
-20.09
-21.51
-27.44
-26.85
-12.15
16.04
49.11
75.50
87.10
83.60
71.85
60.97
56.49
57.18
55.98
44.76
19.85
-14.98
-49.72
-73.21
-79.08
-69.13
-52.21
-39.37
-37.65
-45.87
-55.35
-54.84
-37.31
-4.44
33.88
64.82
79.45
77.15
64.86
51.83
43.64
38.95
30.98
12.63
-18.02
-55.01
-86.39
-99.90
-89.34
-57.77
-16.19
21.87
46.74
56.46
56.18
53.69
53.94
55.87
53.25
39.01
10.34
-28.01
-65.21
-89.32
-93.47
-79.35
-56.21
-35.76
-25.78
-26.16
-29.33
-25.14
-7.25
22.72
55.56
79.36
86.00
75.38
54.91
34.43
20.27
11.96
3.45
-12.03
-36.48
-64.56
-85.33
-87.90
-67.51
-28.69
16.35
53.33
72.46
72.50
59.77
43.42
29.73
18.96
6.48
-12.66
-38.92
-65.89
-82.58
-79.09
-52.53
-9.57
35.82
68.59
79.33
68.22
43.78
17.62
-1.66
-12.29
-18.52
-26.34
-38.36
-50.97
-55.96
-45.64
-18.26
19.65
55.58
76.87
76.88
58.05
30.04
4.24
-12.12
-18.98
-22.09
-28.22
-40.12
-53.89
-60.82
-52.54
-26.57
11.35
49.24
74.56
80.27
68.06
46.72
26.60
13.88
7.41
0.39
-14.54
-39.84
-70.33
-95.11
-103.08
-88.95
-56.27
-15.93
19.13
40.28
46.92
45.75
45.70
52.13
63.25
71.30
67.52
47.92
16.37
-17.06
-41.53
-51.34
-48.65
-41.73
-39.76
-47.17
-60.75
-71.17
-68.24
-46.85
-10.26
30.91
63.84
79.91
78.86
68.01
57.12
52.09
51.40
47.43
31.95
2.14
-36.33
-71.59
-91.55
-90.15
-70.11
-41.11
-14.38
2.90
10.56
14.23
20.95
34.22
51.31
64.29
64.25
46.65
14.84
-20.87
-48.08
-58.85
-53.63
-40.60
-30.20
-28.48
-33.14
-35.29
-25.60
-0.96
32.70
63.07
77.94
71.61
47.56
15.99
-11.76
-28.66
-34.22
-33.17
-31.40
-32.06
-33.61
-30.81
-18.26
5.54
35.94
62.99
75.45
66.44
37.65
-0.60
-34.00
-51.30
-49.57
-34.85
-17.61
-6.04
-1.20
2.57
12.53
31.11
52.78
66.14
60.45
32.52
-10.24
-52.83
-79.91
-83.18
-64.73
-34.85
-5.96
13.66
22.94
26.80
31.63
40.49
50.88
55.89
48.23
24.74
-10.72
-48.02
-74.86
-82.37
-69.39
-42.93
-14.40
6.38
16.20
19.53
24.41
36.07
52.31
63.65
58.82
32.37
-10.30
-54.15
-81.67
-81.78
-55.29
-14.04
25.73
51.44
59.21
53.39
41.64
29.44
17.28
2.28
-17.65
-40.11
-57.79
-61.85
-47.04
-15.54
22.92
54.60
67.39
55.89
23.78
-17.44
-53.00
-70.73
-65.84
-42.30
-10.34
18.68
37.56
45.70
47.22
46.50
44.03
35.66
15.96
-16.42
-54.85
-86.22
-96.99
-80.66
-41.79
5.84
46.14
68.49
71.82
63.19
52.13
44.50
39.64
31.86
14.89
-13.42
-48.74
-81.52
-101.02
-100.19
-79.12
-45.07
-9.31
18.21
33.27
38.86
42.16
49.14
60.00
68.43
65.46
45.58
11.54
-26.03
-54.02
-64.19
-57.80
-44.69
-37.12
-42.15
-57.16
-71.44
-72.72
-54.67
-20.81
17.43
47.13
60.80
59.86
52.66
48.85
53.64
65.30
77.02
81.36
74.64
58.73
39.67
24.10
15.47
12.25
8.68
-2.12
-24.14
-55.31
-87.32
-108.92
-111.60
-94.32
-64.77
-35.66
-17.88
-14.26
-18.10
-17.62
-3.59
24.51
57.83
83.38
91.83
83.01
65.29
49.60
42.05
40.14
34.73
16.54
-16.96
-58.74
-95.18
-113.32
-107.91
-84.26
-55.45
-35.42
-31.76
-42.13
-56.11
-61.20
-49.79
-23.16
9.40
35.83
47.75
45.03
35.51
30.33
37.27
56.26
79.41
95.72
97.65
85.76
68.24
55.68
54.44
62.85
72.49
73.68
61.52
38.88
14.20
-3.97
-12.18
-13.69
-16.04
-26.25
-46.55
-72.95
-97.19
-110.85
-109.50
-94.86
-74.07
-56.28
-48.05
-49.77
-55.15
-54.49
-40.30
-11.99
23.16
53.51
69.45
68.77
57.62
46.33
42.68
47.19
52.95
50.44
33.97
5.98
-23.90
-44.29
-48.73
-39.18
-24.67
-15.64
-17.58
-27.86
-37.56
-37.12
-22.26
3.48
30.82
50.03
56.10
50.75
40.40
31.55
26.80
23.71
16.97
2.27
-20.54
-46.64
-68.22
-78.07
-72.93
-54.85
-30.29
-7.02
9.22
17.20
20.21
23.64
31.41
43.30
54.46
57.76
47.69
24.04
-7.16
-35.96
-53.19
-54.83
-43.71
-27.46
-13.85
-6.34
-2.38
4.02
17.46
36.90
54.83
60.80
47.44
15.61
-24.72
-58.81
-74.25
-67.11
-43.51
-15.67
4.97
13.97
15.38
17.90
28.20
45.67
61.86
65.23
48.32
13.28
-28.20
-60.50
-72.15
-61.64
-37.51
-12.90
2.20
6.18
5.66
9.96
24.02
44.09
59.15
57.10
32.28
-9.98
-55.06
-85.87
-91.52
-72.60
-40.44
-10.64
5.47
6.59
1.35
2.20
17.21
44.82
74.54
93.24
93.16
76.65
54.62
39.66
38.42
47.97
58.19
58.57
44.86
21.49
-1.41
-14.57
-15.14
-8.10
-2.89
-7.54
-23.98
-46.99
-67.48
-77.76
-75.86
-66.39
-57.79
-57.47
-67.73
-84.20
-98.09
-100.83
-88.71
-65.04
-38.49
-18.65
-10.98
-13.92
-19.94
-20.04
-8.85
12.51
37.25
57.00
66.42
65.83
60.24
55.57
54.77
56.10
54.49
44.94
25.77
0.13
-25.43
-44.28
-53.07
-53.32
-50.39
-50.30
-56.16
-65.96
-73.38
-71.18
-55.37
-27.71
4.81
33.41
51.80
59.07
59.25
58.14
59.44
62.62
63.57
57.53
42.32
20.06
-3.73
-22.95
-34.04
-37.50
-37.27
-38.26
-43.32
-51.26
-57.15
-54.99
-41.13
-16.62
12.79
39.33
56.94
64.21
64.59
63.71
65.77
70.92
75.26
73.25
61.20
39.77
14.02
-9.15
-24.39
-30.52
-30.80
-30.75
-34.60
-42.38
-49.52
-49.33
-36.95
-12.54
18.18
46.60
65.39
72.03
69.34
62.89
57.15
52.81
46.75
34.60
14.16
-12.26
-38.30
-56.45
-61.95
-55.33
-42.35
-30.83
-26.47
-29.36
-33.82
-31.68
-17.06
9.93
42.68
71.32
87.60
88.79
78.26
62.68
47.94
36.29
26.10
14.00
-2.22
-21.61
-40.29
-53.67
-59.04
-57.31
-52.57
-49.86
-52.05
-57.70
-61.46
-56.94
-40.59
-14.20
15.52
40.17
53.95
56.46
52.18
47.08
44.67
44.17
41.48
32.50
16.19
-4.08
-22.29
-33.20
-35.56
-32.92
-31.74
-37.60
-51.66
-69.21
-81.64
-80.92
-64.27
-36.18
-6.57
14.36
21.64
18.37
13.81
17.66
33.99
58.48
80.74
90.21
82.36
61.29
37.43
21.39
17.93
23.30
27.49
20.14
-3.34
-38.41
-73.18
-94.01
-92.34
-68.89
-33.17
1.45
24.34
32.52
30.95
28.45
31.86
41.98
53.51
58.84
53.08
37.27
17.75
2.09
-5.58
-7.13
-9.10
-18.47
-37.77
-62.53
-82.84
-88.18
-73.19
-40.84
-1.51
32.07
50.90
53.80
47.10
40.02
38.96
43.88
48.85
46.07
31.13
6.33
-20.11
-38.49
-43.16
-35.66
-23.63
-16.12
-17.88
-26.25
-32.64
-28.04
-9.15
18.61
43.06
51.49
37.46
4.83
-33.95
-63.84
-74.55
-64.83
-42.01
-16.98
1.87
12.46
18.84
26.93
39.65
54.30
63.81
61.13
44.07
17.46
-8.76
-24.73
-25.98
-16.03
-4.50
-1.89
-13.68
-36.90
-61.29
-74.51
-68.58
-44.10
-9.89
21.79
41.85
49.02
49.78
53.47
65.99
85.89
105.06
113.73
106.36
85.18
58.78
37.27
26.58
25.64
27.69
24.86
12.68
-7.92
-32.20
-55.35
-75.04
-92.05
-107.85
-121.62
-129.16
-124.66
-104.57
-71.12
-33.11
-2.66
9.30
-2.35
-34.96
-79.13
-122.32
-153.12
-163.64
-154.29
-129.43
-96.18
-61.08
-27.63
4.02
35.15
65.83
93.02
110.84
113.87
100.17
73.50
42.23
15.65
-0.38
-5.89
-5.93
-6.92
-11.96
-18.66
-20.28
-9.96
14.42
47.84
79.66
98.48
97.60
78.53
49.74
22.03
3.02
-6.22
-10.35
-15.72
-25.39
-36.55
-41.70
-33.38
-9.21
25.52
59.47
80.34
80.54
60.85
29.54
-1.88
-24.51
-35.59
-38.45
-38.87
-40.56
-42.23
-38.53
-23.97
2.58
35.71
65.05
79.81
74.10
49.96
16.38
-15.23
-36.45
-45.34
-46.09
-45.34
-47.30
-50.76
-49.78
-37.69
-11.95
23.12
57.41
79.56
82.26
65.91
37.95
8.84
-13.40
-26.50
-33.77
-40.53
-49.60
-58.50
-60.45
-48.54
-20.59
18.25
56.84
82.67
87.62
71.65
42.56
11.71
-11.46
-23.41
-26.80
-27.28
-28.98
-31.55
-30.67
-21.58
-3.40
18.85
35.80
38.30
22.53
-7.07
-39.35
-61.54
-65.44
-51.14
-26.55
-2.77
11.73
15.25
12.82
12.14
18.37
30.58
42.17
44.76
33.45
10.23
-16.43
-35.91
-41.02
-31.64
-14.55
0.70
7.21
4.58
-1.34
-2.42
6.16
22.59
38.77
44.78
34.52
9.83
-20.06
-42.97
-50.08
-40.07
-19.28
2.29
16.63
21.68
21.54
22.69
29.00
38.46
43.81
36.76
13.51
-21.75
-57.75
-81.11
-82.85
-62.60
-28.51
7.20
34.25
48.70
53.39
54.39
55.86
56.84
51.67
33.94
1.59
-39.90
-78.58
-101.18
-99.46
-74.20
-34.80
5.42
35.53
51.45
56.38
56.95
58.03
59.11
54.70
38.17
7.02
-33.83
-72.96
-97.32
-98.53
-76.91
-41.26
-4.25
23.73
38.97
44.82
47.85
52.49
57.64
57.16
43.90
15.16
-24.06
-62.07
-85.65
-86.43
-65.00
-30.50
4.12
28.45
39.15
40.27
39.15
41.06
45.54
46.71
37.31
13.99
-19.37
-52.67
-74.22
-76.73
-60.91
-34.94
-9.93
6.00
11.53
12.06
15.49
26.80
44.53
61.42
68.51
60.49
39.04
12.23
-9.97
-21.30
-22.47
-20.74
-25.38
-42.05
-68.77
-96.19
-112.23
-108.52
-85.09
-50.66
-18.02
2.83
10.00
10.14
13.81
28.52
53.93
81.83
101.03
103.93
90.87
69.65
50.55
40.25
38.29
37.92
30.73
12.10
-15.65
-44.05
-63.06
-66.49
-55.29
-37.03
-21.83
-16.79
-22.15
-31.28
-34.64
-25.48
-3.87
23.09
45.20
54.81
50.91
39.19
28.04
23.11
24.00
24.56
17.20
-2.09
-30.33
-58.33
-75.13
-73.69
-54.59
-25.78
1.63
19.09
24.79
23.83
24.26
31.59
44.97
57.45
59.93
46.72
19.33
-13.96
-42.34
-58.05
-60.09
-54.00
-47.86
-47.15
-51.18
-53.47
-45.83
-23.66
10.61
48.05
77.47
91.02
88.04
74.65
59.67
49.12
42.93
35.44
19.60
-7.97
-43.79
-78.32
-100.47
-103.28
-87.50
-61.23
-35.59
-18.82
-12.07
-9.45
-2.22
15.34
42.07
70.01
88.82
91.48
78.12
55.64
33.33
17.34
7.53
-1.75
-17.42
-42.48
-73.06
-99.53
-111.24
-102.16
-74.31
-37.02
-2.29
21.16
31.89
35.49
40.21
51.33
67.58
81.65
84.57
71.19
43.67
10.58
-17.71
-34.76
-41.30
-44.43
-52.82
-71.04
-95.95
-117.71
-124.86
-110.76
-77.56
-35.53
2.04
25.62
33.94
33.64
34.40
42.81
58.49
74.69
82.89
78.21
62.58
43.54
29.87
26.57
32.45
41.48
46.80
44.98
37.92
31.36
31.00
38.63
50.78
60.35
60.51
48.41
26.92
3.14
-15.39
-24.91
-27.34
-29.24
-38.02
-57.41
-84.41
-110.12
-124.02
-119.56
-98.06
-68.50
-42.84
-29.64
-29.25
-34.06
-33.29
-19.74
5.90
35.52
58.65
68.65
66.43
59.15
55.20
58.70
67.03
72.73
68.31
51.01
24.71
-2.00
-20.60
-27.20
-24.55
-20.50
-23.46
-37.67
-60.15
-81.83
-92.08
-84.46
-60.60
-29.79
-4.28
7.22
4.42
-4.65
-8.52
0.79
23.07
50.02
70.26
75.99
67.41
52.13
40.09
37.51
43.37
50.58
50.78
39.64
19.50
-2.19
-17.56
-23.20
-22.10
-21.87
-30.06
-49.45
-75.62
-98.80
-108.73
-100.21
-76.09
-46.14
-22.10
-11.57
-13.93
-21.00
-21.79
-8.95
17.13
48.62
74.83
88.33
88.70
82.02
76.35
76.49
81.09
83.88
77.93
60.35
34.55
8.60
-9.22
-15.11
-11.91
-7.52
-10.37
-24.49
-46.52
-67.02
-75.30
-65.35
-39.44
-7.43
18.30
29.47
26.50
18.09
16.00
28.02
53.25
82.73
104.69
111.40
103.59
89.54
79.87
80.99
91.49
103.32
107.18
98.30
79.18
57.65
41.40
32.71
26.71
14.12
-13.04
-55.94
-107.17
-154.19
-185.57
-196.79
-192.11
-182.05
-176.19
-179.56
-189.37
-196.49
-190.75
-166.89
-127.56
-82.03
-41.37
-13.00
2.20
8.29
11.37
14.88
17.91
16.78
8.51
-6.54
-24.10
-38.39
-45.57
-46.45
-46.22
-52.29
-69.71
-97.62
-128.43
-150.71
-154.44
-136.11
-100.88
-60.35
-27.07
-8.05
-1.48
1.57
11.43
33.70
66.02
99.75
124.84
134.67
129.38
114.20
95.44
76.40
56.27
33.09
6.63
-18.98
-35.66
-34.72
-12.02
28.83
76.58
116.85
138.49
138.72
124.24
106.27
95.50
95.92
104.68
113.48
115.18
107.31
93.78
81.32
74.43
72.40
69.49
58.86
36.88
6.32
-24.05
-43.50
-44.58
-27.03
1.88
30.73
49.85
55.72
52.50
48.76
51.77
63.06
77.66
87.65
87.54
77.91
64.87
56.01
55.24
60.01
63.08
56.77
37.73
8.57
-22.87
-47.65
-59.96
-59.46
-50.93
-40.94
-34.58
-33.47
-35.54
-37.05
-34.81
-28.09
-19.01
-12.63
-13.79
-25.92
-50.17
-85.13
-126.88
-169.55
-206.16
-227.12
-226.32
-202.56
-160.40
-108.71
-57.18
-12.98
21.25
47.06
68.27
88.21
108.14
126.05
136.78
133.77
112.24
72.33
20.96
-29.31
-65.05
-77.22
-64.49
-33.17
6.78
45.91
77.84
98.96
106.31
95.94
63.92
9.15
-63.84
-144.31
-217.55
-269.35
-290.08
-277.03
-234.14
-170.13
-95.83
-22.21
40.54
85.22
107.96
109.06
93.19
68.62
44.90
29.37
24.64
27.55
30.89
26.60
9.63
-19.56
-53.91
-81.79
-91.08
-73.99
-31.16
27.61
86.23
128.46
143.98
131.76
99.36
59.03
23.28
1.09
-3.48
8.74
32.87
60.89
83.41
92.38
84.26
61.86
33.24
8.59
-4.17
-2.13
12.34
33.78
56.21
75.11
87.83
92.93
89.38
76.43
54.07
24.60
-6.35
-30.23
-38.33
-25.51
6.73
49.86
91.13
118.72
126.39
115.58
93.49
68.63
46.39
27.06
6.95
-17.91
-47.44
-76.57
-97.29
-103.91
-97.70
-87.61
-86.62
-104.74
-143.13
-192.17
-236.54
-263.34
-267.63
-256.10
-242.45
-238.85
-248.66
-267.67
-284.83
-290.03
-278.85
-252.89
-216.44
-173.73
-126.87
-76.67
-25.47
21.59
56.85
73.99
71.84
56.09
37.46
27.01
30.91
46.94
65.85
75.37
66.17
36.68
-6.26
-50.47
-83.79
-99.55
-98.88
-88.97
-78.54
-72.68
-70.16
-65.07
-51.34
-27.39
2.04
28.39
44.08
47.12
42.19
38.05
42.25
56.91
77.90
97.93
111.53
118.91
126.13
141.36
169.55
208.25
247.58
274.41
278.04
254.55
207.78
146.99
83.20
26.43
-15.37
-36.34
-33.13
-6.38
37.93
88.70
132.36
157.41
158.81
139.60
109.04
78.51
56.16
44.21
39.01
34.16
24.75
10.81
-2.27
-6.26
5.43
32.82
67.88
96.36
103.30
80.15
29.52
-34.76
-92.68
-126.25
-127.22
-99.71
-57.46
-16.05
15.15
36.80
57.22
85.92
126.96
174.59
217.60
245.01
252.06
242.57
225.74
210.48
200.48
193.07
181.71
160.92
129.41
90.99
52.92
22.26
3.13
-4.45
-3.92
-0.51
0.98
-2.81
-12.60
-26.58
-41.91
-55.52
-66.07
-73.66
-79.81
-86.72
-97.29
-114.08
-138.72
-171.93
-212.49
-256.27
-295.74
-321.62
-323.07
-294.70
-241.07
-171.88
-100.58
-40.58
-0.99
16.02
14.86
4.01
-7.80
-13.35
-8.86
4.64
22.05
36.02
41.42
36.65
23.98
8.31
-4.47
-9.68
-4.62
8.68
24.52
36.30
39.33
32.36
17.51
-1.57
-21.14
-38.06
-49.63
-52.64
-43.94
-22.85
5.64
32.75
48.08
43.92
20.04
-15.26
-48.11
-65.31
-60.59
-37.14
-5.39
23.05
38.96
39.21
26.20
4.96
-20.35
-47.93
-77.69
-109.34
-141.57
-172.28
-199.10
-220.73
-237.29
-250.35
-261.98
-273.61
-285.23
-295.40
-301.69
-301.29
-292.79
-275.36
-249.40
-216.34
-178.07
-136.39
-92.75
-48.10
-2.98
42.23
87.13
131.30
174.54
216.92
258.22
297.15
330.53
353.37
360.01
346.24
311.40
259.53
198.59
137.96
85.48
45.15
17.61
1.20
-6.29
-6.83
-2.18
5.40
12.95
17.59
17.98
15.52
14.05
18.21
30.83
51.37
75.77
98.36
114.01
119.83
115.60
103.00
84.62
63.21
41.42
21.55
5.38
-6.21
-13.55
-18.00
-21.28
-24.74
-28.65
-32.32
-34.62
-34.83
-33.25
-31.29
-31.00
-34.32
-42.33
-54.79
-69.98
-85.24
-97.74
-105.44
-107.62
-105.05
-99.39
-92.41
-85.35
-78.57
-71.87
-64.85
-57.04
-47.96
-37.07
-24.02
-8.88
7.57
24.03
39.18
52.39
64.19
76.16
90.20
107.76
129.23
153.99
180.79
208.17
234.77
259.55
281.98
302.17
320.75
338.32
354.69
368.43
376.79
376.62
365.88
344.95
316.83
286.08
256.88
230.10
204.29
176.13
142.26
100.86
52.08
-2.32
-60.15
-119.15
-176.73
-229.19
-272.26
-301.70
-314.61
-310.71
-292.76
-265.89
-235.96
-208.01
-184.91
-167.06
-153.25
-141.79
-131.55
-122.60
-115.77
-111.78
-110.28
-109.63
-107.68
-103.05
-95.98
-88.24
-81.88
-77.93
-75.57
-72.57
-66.81
-57.51
-45.89
-34.47
-25.91
-21.64
-21.33
-23.02
-24.10
-22.57
-17.93
-11.40
-5.34
-1.93
-2.08
-4.73
-7.59
-8.51
-6.87
-4.17
-3.21
-6.40
-14.09
-24.11
-32.94
-37.73
-37.83
-34.93
-31.71
-30.13
-30.47
-31.61
-32.25
-32.04
-31.81
-32.82
-35.88
-40.58
-45.54
-48.98
-49.45
-46.30
-39.66
-30.43
-20.05
-10.22
-2.39
2.88
6.12
8.66
11.76
15.80
20.07
23.25
24.41
23.68
22.14
21.08
21.01
21.26
20.40
17.28
11.96
6.03
1.84
1.16
4.21
9.47
14.39
16.67
15.43
11.51
6.95
3.78
2.91
3.58
3.81
1.51
-4.14
-12.21
-20.26
-25.62
-26.80
-24.29
-20.20
-17.05
-16.28
-17.52
-18.99
-18.73
-15.88
-11.19
-6.51
-3.72
-3.96
-7.24
-12.87
-20.03
-28.12
-36.72
-45.24
-52.52
-56.81
-56.22
-49.78
-38.33
-24.79
-13.41
-8.12
-10.65
-19.59
-31.00
-40.50
-45.56
-46.65
-46.61
-48.45
-53.37
-59.97
-65.35
-67.13
-65.17
-61.59
-59.52
-61.01
-65.47
-69.78
-69.64
-61.89
-46.38
-26.35
-7.09
6.74
13.72
16.80
22.05
35.67
60.41
93.65
128.04
154.48
165.60
158.34
134.21
97.90
55.54
13.53
-21.87
-44.79
-50.79
-38.61
-11.30
24.25
59.69
88.41
108.08
120.83
131.13
142.55
155.13
164.64
164.17
147.15
110.78
58.01
-2.40
-58.09
-96.95
-110.93
-98.94
-66.93
-25.45
14.47
44.95
62.89
69.32
67.23
59.49
47.92
33.70
18.36
4.48
-4.89
-7.45
-3.02
6.09
15.75
21.89
22.31
17.69
11.16
6.65
7.04
12.92
22.37
32.03
38.70
40.78
38.74
34.68
31.18
30.04
31.62
34.86
38.05
39.82
39.82
38.81
38.01
38.26
39.38
40.33
39.93
37.90
35.26
33.93
35.61
40.71
47.92
54.85
59.30
60.39
58.95
56.95
56.25
57.49
59.78
61.29
60.38
56.67
51.18
45.84
42.29
40.90
40.49
38.95
34.38
26.14
15.21
3.48
-7.33
-16.74
-25.63
-35.58
-47.75
-62.11
-77.33
-91.55
-103.41
-112.61
-119.95
-126.65
-133.33
-139.62
-144.21
-145.67
-143.28
-137.53
-130.06
-122.83
-117.28
-113.64
-110.96
-107.63
-102.27
-94.41
-84.69
-74.41
-64.76
-56.07
-47.71
-38.54
-27.63
-14.97
-1.51
11.29
22.27
31.12
38.45
45.26
52.15
58.94
64.71
68.36
69.41
68.41
66.72
65.79
66.37
68.04
69.41
68.91
65.56
59.58
52.18
44.83
38.34
32.49
26.28
18.78
9.92
0.78
-6.90
-11.80
-13.82
-14.31
-15.34
-18.44
-23.65
-29.45
-33.53
-34.33
-32.00
-28.67
-27.21
-29.86
-36.59
-44.82
-50.50
-50.38
-44.16
-35.05
-28.47
-29.74
-42.20
-66.30
-100.07
-139.84
-180.81
-217.35
-243.36
-253.24
-243.39
-213.79
-168.55
-114.72
-59.95
-10.03
32.64
68.86
100.99
131.07
159.28
183.48
199.83
204.47
195.84
175.84
149.34
121.79
96.80
74.74
53.89
32.94
13.03
-2.56
-10.72
-11.28
-8.10
-7.13
-12.94
-25.76
-41.49
-54.18
-59.51
-56.87
-49.07
-39.93
-32.11
-26.49
-23.08
-22.11
-24.11
-28.74
-33.83
-35.83
-31.96
-22.44
-10.99
-2.54
0.12
-1.28
-1.25
5.71
20.85
39.50
53.49
56.25
47.34
33.03
22.43
21.78
30.55
42.25
48.88
46.21
36.23
25.35
19.88
21.90
28.34
33.35
32.33
24.79
14.46
6.74
5.45
10.80
19.45
26.70
28.92
25.38
18.39
11.93
9.50
12.27
18.44
24.25
26.18
23.11
17.27
12.93
13.88
20.78
30.47
37.50
37.36
29.09
15.93
3.38
-3.92
-4.71
-1.30
2.19
2.72
0.14
-2.89
-2.79
2.53
12.21
22.94
30.73
33.10
30.18
24.19
17.88
12.77
8.53
3.56
-3.72
-13.69
-25.30
-36.50
-45.07
-49.21
-47.93
-41.36
-31.03
-19.79
-10.99
-7.02
-7.98
-11.44
-13.70
-12.07
-6.61
-0.24
3.27
1.89
-3.04
-7.69
-8.23
-3.40
4.49
11.13
13.02
9.62
3.59
-1.07
-1.55
2.08
7.27
10.78
10.84
8.18
5.34
4.91
7.96
13.43
18.93
22.27
22.81
21.80
21.64
24.27
29.97
36.96
42.27
43.47
40.45
36.13
35.43
42.84
59.92
83.59
106.95
121.83
121.80
104.39
71.13
26.43
-24.33
-76.13
-124.29
-164.09
-190.25
-197.58
-182.73
-146.08
-93.01
-33.40
20.82
59.18
75.83
71.15
50.99
23.90
-2.23
-22.72
-36.50
-44.81
-48.94
-48.90
-43.87
-33.97
-21.55
-11.39
-8.69
-16.03
-31.53
-49.12
-61.63
-64.53
-58.32
-48.20
-40.63
-39.47
-43.49
-47.32
-45.42
-36.30
-24.17
-16.85
-20.59
-35.54
-54.70
-67.06
-63.18
-39.42
1.15
51.37
103.86
153.41
197.13
232.87
257.71
267.91
260.45
234.92
194.62
146.00
96.97
54.83
24.52
7.74
2.46
3.76
5.47
2.25
-8.35
-25.29
-44.85
-62.67
-75.71
-83.58
-88.46
-93.87
-102.75
-115.89
-131.46
-146.03
-156.51
-161.72
-162.51
-160.74
-157.54
-152.71
-145.22
-134.51
-121.53
-108.38
-96.67
-85.87
-72.91
-53.82
-26.27
8.77
46.99
82.62
110.52
127.53
133.23
129.60
120.34
109.86
101.82
97.79
96.65
95.11
89.83
79.55
66.47
55.57
52.18
59.03
74.75
94.67
113.59
128.16
137.83
143.67
146.19
143.88
133.20
110.15
72.90
23.67
-30.90
-81.64
-120.22
-142.01
-147.58
-141.78
-130.96
-120.16
-111.43
-104.01
-95.99
-86.33
-75.73
-66.26
-59.89
-57.08
-56.47
-55.79
-53.23
-48.39
-42.29
-36.64
-32.68
-30.71
-30.09
-29.87
-29.36
-28.32
-26.90
-25.15
-22.64
-18.78
-13.39
-7.20
-1.98
0.15
-2.29
-9.24
-18.86
-28.23
-34.47
-36.06
-33.45
-28.74
-24.86
-24.28
-28.04
-35.15
-42.74
-47.02
-44.68
-34.21
-16.72
4.24
24.03
38.57
45.76
45.87
40.75
32.78
23.98
16.17
11.50
12.43
20.63
35.45
52.91
66.42
69.38
58.61
36.46
10.09
-11.76
-23.08
-23.21
-16.20
-7.70
-1.52
2.06
5.18
9.78
15.58
19.98
20.10
15.27
8.24
4.22
8.02
20.99
39.77
57.00
64.24
54.92
26.79
-16.88
-67.95
-115.29
-147.87
-157.72
-142.58
-106.95
-60.79
-15.95
18.27
38.23
46.36
48.37
49.45
51.40
52.49
49.74
41.69
29.85
17.81
8.94
4.42
2.76
1.14
-2.45
-7.91
-13.37
-16.52
-16.43
-13.86
-10.90
-9.75
-11.48
-15.68
-20.81
-25.33
-28.46
-30.42
-31.83
-32.92
-33.18
-31.80
-28.50
-24.08
-20.23
-18.43
-19.12
-21.41
-23.90
-25.66
-26.78
-28.02
-29.87
-32.05
-33.59
-33.72
-32.62
-31.62
-32.56
-36.76
-44.51
-54.99
-66.47
-76.68
-83.20
-84.01
-78.46
-68.07
-56.34
-47.33
-43.27
-42.85
-41.33
-33.12
-15.12
10.71
37.86
58.33
66.64
62.49
50.33
36.32
24.70
15.60
5.52
-9.93
-32.89
-61.65
-91.27
-116.15
-132.98
-142.37
-148.27
-155.59
-167.17
-182.08
-196.29
-205.10
-205.91
-199.55
-189.40
-178.46
-167.66
-154.86
-135.68
-105.89
-63.52
-9.83
51.32
114.91
176.27
231.75
278.96
316.74
344.86
363.82
374.65
378.74
377.49
372.05
362.87
349.93
333.18
312.84
289.65
264.68
239.19
214.01
189.23
164.52
137.76
105.88
65.72
15.12
-45.48
-111.95
-176.55
-229.08
-261.01
-269.10
-256.94
-233.21
-208.01
-188.44
-176.40
-169.02
-161.22
-149.10
-130.04
-103.03
-68.21
-26.97
17.47
59.76
93.59
114.01
119.19
112.18
99.76
89.54
86.91
93.56
107.48
124.99
142.39
156.50
165.21
166.71
159.36
142.02
115.68
83.17
50.10
23.69
9.62
9.17
17.60
25.95
25.16
10.66
-15.32
-44.40
-66.09
-72.55
-61.02
-35.08
-1.85
31.54
60.32
81.58
93.61
94.11
80.49
51.92
10.97
-35.35
-76.96
-103.22
-108.55
-94.51
-68.99
-42.47
-23.44
-15.55
-17.20
-23.74
-30.68
-35.97
-39.83
-43.60
-48.17
-53.32
-58.19
-61.97
-64.66
-67.02
-70.59
-76.48
-85.08
-95.83
-107.60
-119.32
-130.44
-141.15
-152.25
-164.75
-179.07
-194.86
-210.97
-225.71
-237.42
-244.75
-246.93
-243.69
-235.65
-222.93
-205.47
-183.25
-156.55
-126.16
-93.40
-59.99
-27.75
1.68
27.26
48.52
65.46
78.46
88.07
94.87
99.40
102.12
103.54
104.29
104.93
105.97
107.73
110.23
113.19
116.12
118.45
119.77
119.99
119.25
117.86
116.06
113.86
110.96
106.86
101.12
93.66
84.95
75.99
67.99
62.00
58.53
57.43
57.97
59.26
60.72
62.35
64.93
69.84
78.61
92.47
111.71
135.15
160.09
182.75
198.85
205.18
200.43
185.56
163.43
137.90
112.70
90.53
72.62
58.86
48.26
39.40
30.98
22.04
12.10
1.22
-10.13
-21.27
-31.53
-40.48
-48.07
-54.44
-59.63
-63.48
-65.98
-67.89
-71.08
-77.99
-90.20
-106.97
-124.66
-137.70
-141.02
-132.61
-114.82
-93.46
-74.92
-63.15
-58.27
-57.26
-56.46
-53.81
-49.72
-46.03
-44.03
-42.85
-39.62
-31.14
-16.19
3.18
22.33
36.21
41.90
39.89
33.41
26.49
22.03
20.92
22.42
25.32
28.81
32.81
37.44
42.44
46.87
49.44
49.20
46.03
40.65
34.37
28.45
23.68
20.17
17.38
14.37
10.35
5.06
-0.94
-6.42
-10.13
-11.39
-10.45
-8.44
-6.76
-6.31
-7.16
-8.49
-9.19
-8.55
-6.80
-5.04
-4.65
-6.48
-10.25
-14.72
-18.36
-20.30
-20.79
-21.08
-22.48
-25.51
-29.33
-32.20
-32.58
-30.09
-25.94
-22.29
-21.10
-22.92
-26.55
-29.65
-30.06
-26.98
-21.42
-15.60
-11.92
-11.66
-14.43
-18.32
-20.91
-20.38
-16.31
-9.70
-2.35
4.05
8.71
11.83
14.19
16.36
18.13
18.59
16.77
12.50
6.88
1.98
-0.15
1.45
5.96
11.16
14.61
14.86
12.26
8.57
5.94
5.66
7.46
9.82
10.92
9.82
6.98
3.94
2.31
2.72
4.48
5.90
5.43
2.67
-1.23
-4.17
-4.32
-1.25
3.66
7.95
9.41
7.33
2.90
-1.46
-3.52
-2.49
0.53
3.40
4.14
2.16
-1.43
-4.46
-5.08
-2.87
0.86
3.87
4.32
1.87
-2.07
-5.10
-5.28
-2.24
2.49
6.34
7.25
4.83
0.64
-2.79
-3.37
-0.75
3.46
6.65
6.70
3.30
-1.91
-6.30
-7.71
-5.67
-1.62
1.94
2.89
0.74
-3.19
-6.65
-7.75
-6.05
-2.78
-0.04
0.49
-1.40
-4.31
-6.10
-5.23
-1.65
3.08
6.66
7.40
5.21
1.65
-0.98
-1.06
1.46
5.08
7.62
7.56
4.91
1.24
-1.37
-1.54
0.57
3.35
4.66
3.12
-1.03
-5.89
-8.91
-8.36
-4.33
1.22
5.53
6.56
4.13
0.05
-2.92
-2.80
0.52
5.16
8.47
8.57
5.42
0.89
-2.44
-2.76
-0.12
3.75
6.45
6.31
3.37
-0.74
-3.73
-4.03
-1.71
1.56
3.53
2.73
-0.73
-5.14
-8.22
-8.46
-6.01
-2.65
-0.62
-1.37
-4.71
-8.92
-11.66
-11.47
-8.54
-4.67
-2.21
-2.71
-6.12
-10.86
-14.77
-16.38
-15.79
-14.59
-14.94
-18.25
-24.40
-31.78
-38.19
-42.13
-43.60
-44.12
-45.81
-50.18
-57.38
-66.16
-74.68
-81.62
-86.79
-91.12
-95.89
-101.74
-108.22
-113.93
-117.37
-117.86
-116.19
-114.21
-113.68
-115.02
-116.42
-114.33
-104.68
-84.99
-55.95
-21.60
12.42
41.15
62.42
77.39
89.30
101.38
114.91
129.73
144.24
157.21
168.74
179.98
191.95
203.60
212.30
214.66
208.22
192.75
170.87
147.01
125.55
109.14
97.64
88.73
79.46
68.12
55.15
42.72
33.24
27.67
24.75
21.57
15.42
5.49
-6.41
-16.80
-22.34
-21.72
-16.46
-10.14
-6.51
-7.41
-11.97
-17.28
-20.20
-19.15
-14.93
-10.18
-7.63
-8.47
-11.51
-14.06
-13.57
-9.13
-2.06
4.90
9.10
9.64
7.79
6.04
6.67
10.44
16.36
22.54
27.57
31.61
36.30
43.53
53.91
65.74
75.14
77.58
70.19
53.70
32.79
14.50
5.21
7.83
20.39
37.19
51.76
60.04
62.08
61.18
61.24
63.87
67.39
67.74
61.28
47.13
27.64
7.18
-9.96
-21.20
-26.14
-25.91
-22.27
-16.88
-11.28
-7.43
-7.79
-14.75
-29.49
-51.16
-76.74
-102.03
-123.31
-138.54
-147.96
-153.27
-156.25
-158.02
-158.98
-159.32
-159.67
-161.93
-166.91
-173.08
-176.60
-173.11
-159.68
-137.34
-110.76
-86.21
-68.93
-61.14
-61.84
-67.99
-76.22
-84.03
-90.26
-94.89
-98.71
-103.25
-110.26
-120.98
-135.44
-151.62
-165.83
-173.93
-172.81
-160.83
-138.37
-107.33
-70.67
-32.09
4.95
37.77
64.81
85.76
101.19
112.17
120.30
127.55
136.02
147.18
160.95
174.94
184.99
186.81
178.24
160.76
139.17
119.39
105.61
98.47
95.27
92.25
86.59
77.97
68.29
60.20
55.25
53.32
52.66
51.12
47.55
42.28
36.95
33.37
32.36
33.26
34.34
33.75
30.63
25.58
20.20
16.15
14.21
14.00
14.45
14.65
14.47
14.57
15.79
18.39
21.71
24.61
26.25
26.74
27.27
29.52
34.65
42.67
52.37
61.78
68.67
70.98
67.68
59.39
48.70
39.70
36.51
41.15
51.87
63.01
67.05
58.26
35.84
5.33
-23.33
-40.17
-39.74
-23.46
1.01
23.54
36.14
36.09
25.92
10.89
-4.67
-19.81
-36.41
-56.27
-77.90
-95.68
-102.33
-93.71
-72.51
-48.46
-33.98
-37.77
-60.24
-93.33
-125.02
-145.85
-153.14
-151.13
-147.06
-146.18
-149.07
-152.19
-151.07
-143.68
-131.71
-119.01
-109.25
-103.97
-102.47
-102.75
-102.68
-100.22
-93.38
-79.94
-57.93
-27.08
10.18
48.53
81.37
103.09
110.99
106.19
92.80
76.25
61.37
51.33
47.45
49.78
57.67
69.71
83.34
94.76
99.72
95.14
80.87
60.48
40.01
25.31
19.36
21.15
26.65
31.23
32.07
29.13
24.33
19.81
16.81
15.22
14.52
14.26
14.27
14.31
13.82
12.07
8.64
4.00
-0.47
-3.11
-2.92
-0.23
3.42
6.01
6.27
4.41
1.95
0.64
1.25
2.92
3.70
2.01
-2.01
-6.38
-8.34
-6.15
-0.43
5.97
9.55
8.15
2.38
-4.70
-9.29
-8.96
-4.09
2.48
7.14
7.56
4.05
-0.81
-3.82
-3.18
0.48
4.48
5.84
3.20
-2.25
-7.36
-8.90
-5.51
1.41
8.38
11.74
9.68
3.31
-3.91
-8.11
-7.16
-1.78
4.87
9.03
8.48
3.80
-2.14
-5.88
-5.48
-1.66
2.77
4.74
2.81
-1.82
-6.09
-7.01
-3.60
2.43
7.59
8.63
4.56
-2.61
-8.98
-10.93
-7.19
0.40
7.87
11.31
9.05
2.53
-4.58
-8.50
-7.40
-2.36
3.49
6.81
6.01
2.07
-2.16
-3.84
-1.88
2.35
5.93
6.11
2.20
-3.93
-8.79
-9.38
-4.99
2.24
8.41
10.06
6.21
-1.06
-7.75
-10.23
-7.23
-0.57
6.02
9.01
7.02
1.58
-3.93
-6.32
-4.39
0.39
4.88
6.17
3.38
-1.82
-6.29
-7.30
-4.25
0.93
4.95
5.15
1.16
-4.78
-9.10
-9.08
-4.46
2.32
7.51
8.18
4.05
-2.38
-7.24
-7.62
-3.17
3.51
8.51
8.89
4.38
-2.45
-7.63
-8.24
-4.07
2.24
6.87
6.94
2.45
-3.81
-7.93
-7.23
-1.88
5.09
9.59
8.87
3.18
-4.35
-9.48
-9.37
-4.18
2.99
8.00
7.93
2.91
-4.02
-8.75
-8.51
-3.38
3.68
8.56
8.50
3.61
-3.19
-7.86
-7.62
-2.59
4.28
9.03
8.85
3.84
-3.10
-7.99
-8.06
-3.34
3.42
8.30
8.58
4.26
-2.03
-6.58
-6.80
-2.69
3.20
7.39
7.50
3.64
-1.75
-5.40
-5.23
-1.58
3.12
5.80
4.63
0.21
-4.87
-7.58
-6.28
-1.77
3.14
5.36
3.39
-1.80
-7.16
-9.42
-7.03
-1.16
4.98
7.89
5.84
-0.03
-6.34
-9.43
-7.43
-1.37
5.41
9.20
8.04
2.79
-3.39
-6.95
-6.03
-1.49
3.77
6.51
5.17
0.82
-3.61
-5.18
-2.71
2.38
6.86
7.69
3.92
-2.71
-8.55
-10.20
-6.52
0.67
7.58
10.47
7.86
1.34
-5.38
-8.60
-6.66
-0.89
5.31
8.44
6.93
1.88
-3.60
-6.35
-5.00
-0.67
3.81
5.61
3.71
-0.56
-4.40
-5.27
-2.52
2.16
5.74
5.76
1.79
-4.07
-8.45
-8.69
-4.44
2.01
7.06
7.76
3.68
-2.87
-8.14
-9.05
-5.00
1.79
7.54
9.07
5.57
-0.83
-6.36
-7.77
-4.20
2.30
7.95
9.45
5.91
-0.63
-6.40
-8.06
-4.70
1.70
7.47
9.33
6.36
0.48
-4.78
-6.40
-3.61
1.64
6.00
6.71
3.28
-2.25
-6.55
-7.10
-3.61
1.73
5.65
5.74
1.92
-3.49
-7.17
-6.85
-2.64
3.02
6.75
6.29
1.86
-3.98
-7.80
-7.34
-2.88
2.90
6.57
5.94
1.41
-4.24
-7.55
-6.44
-1.42
4.60
8.06
6.87
1.62
-4.67
-8.39
-7.48
-2.62
3.19
6.39
5.01
-0.07
-5.68
-8.27
-6.01
-0.02
6.25
9.08
6.62
0.10
-6.84
-10.27
-8.24
-1.91
5.01
8.49
6.48
0.16
-6.71
-9.94
-7.45
-0.45
7.24
11.32
9.50
2.87
-4.78
-9.11
-7.73
-1.52
5.90
10.35
9.36
3.68
-3.29
-7.52
-6.62
-1.16
5.66
9.94
9.34
4.37
-1.95
-5.93
-5.43
-1.03
4.37
7.28
5.87
0.98
-4.42
-7.00
-5.22
-0.29
4.60
6.21
3.22
-2.82
-8.40
-10.16
-6.79
0.03
6.56
9.18
6.41
-0.24
-7.07
-10.38
-8.53
-2.74
3.62
7.06
6.05
1.74
-2.78
-4.48
-2.30
2.18
5.80
5.71
1.26
-5.38
-10.51
-10.95
-5.94
2.24
9.51
12.25
9.18
2.14
-5.01
-8.63
-7.19
-2.03
3.56
6.35
5.08
1.00
-2.94
-4.06
-1.69
2.51
5.52
4.86
0.35
-5.71
-9.81
-9.21
-3.74
4.00
10.02
11.10
6.61
-0.99
-7.64
-9.86
-6.63
0.02
6.31
8.91
6.71
1.47
-3.41
-5.04
-2.66
1.96
5.60
5.75
2.19
-2.89
-6.15
-5.23
-0.33
5.82
9.55
8.30
2.35
-5.30
-10.60
-10.71
-5.63
1.79
7.61
8.92
5.45
-0.36
-4.99
-5.90
-2.90
1.77
4.95
4.53
0.72
-4.08
-6.73
-5.42
-0.79
4.36
6.60
4.06
-2.30
-9.18
-12.69
-10.60
-3.74
4.50
10.05
10.31
5.72
-0.72
-5.29
-5.61
-2.04
2.75
5.53
4.47
0.30
-4.16
-5.84
-3.33
2.17
7.38
8.93
5.33
-1.98
-9.32
-12.79
-10.46
-3.47
4.58
9.57
9.17
4.07
-2.55
-6.87
-6.62
-2.30
3.26
6.69
6.10
2.21
-2.22
-4.18
-2.28
2.25
6.37
7.02
3.08
-3.74
-9.84
-11.75
-8.15
-0.75
6.62
10.10
7.90
1.36
-5.86
-9.87
-8.67
-3.18
3.39
7.50
7.27
3.49
-1.01
-3.28
-1.98
1.74
5.10
5.50
2.20
-3.05
-7.07
-7.14
-2.80
3.75
8.83
9.37
4.72
-2.77
-9.12
-10.86
-7.02
0.33
7.31
10.35
8.17
2.47
-3.31
-5.92
-4.23
0.27
4.47
5.67
3.13
-1.43
-5.00
-5.26
-1.99
2.70
5.60
4.48
-0.48
-6.68
-10.45
-9.34
-3.59
3.94
9.21
9.34
4.30
-3.11
-8.73
-9.41
-4.81
2.48
8.45
9.83
6.07
-0.48
-6.02
-7.46
-4.24
1.45
6.06
6.84
3.41
-1.95
-5.91
-6.05
-2.36
2.75
5.97
5.14
0.60
-4.94
-8.02
-6.61
-1.31
4.87
8.25
6.67
0.85
-6.04
-10.09
-8.99
-3.29
3.92
8.81
8.95
4.74
-1.01
-4.84
-4.63
-0.94
3.52
5.55
3.44
-1.82
-7.15
-9.17
-6.22
0.51
7.56
11.16
9.35
3.13
-4.04
-8.29
-7.53
-2.55
3.45
6.92
5.99
1.62
-3.08
-4.90
-2.49
2.73
7.41
8.32
4.36
-2.61
-8.83
-10.80
-7.26
-0.02
7.06
10.26
7.99
1.76
-4.82
-8.09
-6.40
-0.99
4.83
7.68
6.02
1.01
-4.27
-6.78
-5.30
-1.06
3.04
4.33
2.02
-2.30
-5.62
-5.52
-1.67
3.81
7.53
6.91
1.76
-5.41
-10.72
-11.13
-6.25
1.47
7.96
9.89
6.49
-0.07
-5.90
-7.72
-4.67
1.32
6.69
8.39
5.66
0.34
-4.26
-5.41
-2.62
2.18
5.81
5.81
2.03
-3.34
-7.01
-6.62
-2.31
3.41
7.05
6.18
1.07
-5.50
-9.75
-9.10
-3.81
3.24
8.10
8.03
3.19
-3.56
-8.26
-8.19
-3.49
3.03
7.51
7.34
2.81
-3.20
-6.93
-6.01
-0.97
5.10
8.42
6.72
0.83
-5.95
-9.67
-8.14
-2.27
4.50
8.13
6.47
0.50
-6.21
-9.56
-7.38
-0.71
6.79
10.90
9.29
2.90
-4.68
-9.19
-8.23
-2.55
4.45
8.64
7.67
2.26
-4.28
-7.97
-6.63
-1.03
5.50
9.08
7.62
2.03
-4.30
-7.52
-5.68
0.15
6.49
9.48
7.21
0.90
-5.85
-9.14
-7.11
-1.01
5.53
8.60
6.36
0.12
-6.42
-9.34
-6.88
-0.45
6.19
9.07
6.46
-0.17
-6.94
-9.85
-7.14
-0.28
6.83
10.14
7.84
1.33
-5.54
-8.82
-6.70
-0.48
6.16
9.42
7.50
1.64
-4.65
-7.78
-6.10
-0.81
4.82
7.51
5.76
0.83
-4.26
-6.61
-5.05
-0.91
2.97
4.02
1.50
-2.97
-6.55
-6.84
-3.45
1.67
5.50
5.61
1.85
-3.63
-7.54
-7.37
-3.07
3.00
7.33
7.30
2.89
-3.46
-8.02
-8.13
-3.67
2.85
7.71
8.21
4.11
-2.10
-6.73
-7.10
-2.95
3.26
7.92
8.30
4.16
-2.04
-6.69
-7.04
-2.85
3.40
8.04
8.21
3.70
-3.04
-8.19
-8.82
-4.58
2.14
7.58
8.78
5.29
-0.67
-5.53
-6.51
-3.21
2.23
6.45
6.90
3.35
-2.06
-6.11
-6.47
-3.06
1.92
5.40
5.23
1.58
-3.28
-6.31
-5.62
-1.58
3.31
6.02
4.79
0.27
-4.81
-7.35
-5.71
-0.76
4.60
7.23
5.58
0.68
-4.48
-6.74
-4.70
0.46
5.61
7.52
4.83
-1.14
-7.03
-9.47
-6.94
-0.78
5.53
8.37
5.99
-0.27
-6.82
-9.75
-7.15
-0.26
7.23
11.13
9.28
2.69
-4.91
-9.27
-8.02
-1.93
5.46
10.01
9.22
3.79
-3.04
-7.34
-6.81
-2.07
3.88
7.45
6.63
2.11
-3.22
-6.13
-4.98
-0.72
3.78
5.50
3.17
-1.97
-6.86
-8.53
-5.90
-0.47
4.48
5.86
2.58
-3.67
-9.37
-11.17
-7.88
-1.15
5.36
8.13
5.79
-0.07
-5.80
-7.88
-4.98
1.29
7.30
9.58
6.86
0.85
-4.80
-6.73
-3.74
2.36
7.97
9.73
6.52
0.17
-5.69
-7.65
-4.60
1.78
7.87
10.28
7.73
1.78
-4.08
-6.55
-4.32
1.14
6.50
8.58
6.10
0.51
-5.04
-7.46
-5.54
-0.67
4.21
6.17
4.17
-0.47
-4.89
-6.46
-4.37
-0.05
3.67
4.38
1.47
-3.35
-7.20
-7.75
-4.61
0.32
4.07
4.29
0.84
-4.22
-7.72
-7.32
-3.02
2.87
6.90
6.66
2.15
-4.01
-8.12
-7.59
-2.42
4.54
9.38
9.27
4.25
-2.74
-7.63
-7.49
-2.41
4.69
9.57
9.34
4.02
-3.37
-8.59
-8.76
-3.88
3.02
7.80
7.55
2.40
-4.53
-9.11
-8.43
-2.81
4.61
9.49
8.98
3.32
-4.25
-9.34
-9.12
-3.72
3.60
8.61
8.40
3.19
-3.88
-8.67
-8.34
-3.24
3.62
8.09
7.57
2.41
-4.25
-8.33
-7.35
-1.72
5.22
9.45
8.34
2.44
-4.93
-9.62
-8.93
-3.37
3.90
8.69
8.37
3.29
-3.40
-7.61
-6.79
-1.30
5.65
10.05
9.20
3.58
-3.68
-8.47
-8.11
-2.98
3.89
8.36
7.87
2.65
-4.20
-8.69
-8.26
-3.14
3.65
8.27
8.07
3.38
-2.98
-7.22
-6.81
-2.02
4.47
8.94
9.00
4.74
-1.21
-5.46
-5.72
-2.12
2.84
6.06
5.43
1.38
-3.69
-6.72
-5.90
-1.83
2.99
5.46
4.02
-0.61
-5.62
-7.97
-6.15
-1.10
4.18
6.67
4.82
-0.12
-5.13
-7.09
-4.68
0.67
5.80
7.49
4.62
-1.34
-6.94
-9.00
-6.36
-0.57
4.92
6.99
4.43
-1.09
-6.19
-7.72
-4.63
1.30
6.66
8.18
4.90
-1.43
-7.16
-9.01
-5.96
0.24
5.86
7.67
4.56
-1.57
-7.09
-8.67
-5.27
1.14
6.91
8.57
5.11
-1.61
-7.76
-9.84
-6.72
-0.15
5.99
8.25
5.28
-1.06
-6.98
-8.91
-5.58
1.12
7.40
9.53
6.31
-0.47
-6.83
-9.07
-5.92
0.84
7.21
9.54
6.39
-0.33
-6.70
-8.94
-5.57
1.55
8.57
11.50
8.87
2.20
-4.61
-7.74
-5.57
0.49
6.69
9.40
6.94
0.79
-5.50
-8.33
-6.11
-0.24
5.92
8.84
7.10
1.91
-3.47
-5.86
-4.00
0.81
5.45
7.02
4.42
-0.80
-5.61
-7.15
-4.53
0.61
5.27
6.63
4.00
-1.08
-5.53
-6.84
-4.38
0.20
3.96
4.59
1.66
-2.93
-6.35
-6.38
-2.93
1.99
5.38
5.07
1.12
-4.27
-7.87
-7.57
-3.45
2.05
5.62
5.04
0.53
-5.24
-8.82
-7.88
-2.77
3.74
7.97
7.45
2.45
-4.20
-8.63
-8.29
-3.26
3.63
8.52
8.67
4.09
-2.44
-7.01
-6.82
-1.85
5.15
10.15
10.25
5.26
-2.04
-7.59
-8.33
-3.92
3.03
8.57
9.54
5.51
-1.10
-6.42
-7.42
-3.62
2.62
7.54
8.21
4.20
-2.12
-7.10
-7.88
-4.12
1.87
6.54
7.18
3.53
-2.17
-6.47
-6.90
-3.30
2.04
5.89
5.92
2.20
-2.95
-6.34
-5.86
-1.77
3.52
6.82
6.19
2.00
-3.24
-6.44
-5.82
-1.90
2.74
5.15
3.73
-0.66
-5.33
-7.28
-5.15
-0.01
5.16
7.17
4.62
-1.27
-7.20
-9.67
-7.01
-0.43
6.61
10.28
8.50
2.26
-5.00
-9.25
-8.14
-2.31
5.00
9.74
9.40
4.33
-2.45
-7.10
-7.13
-2.78
3.20
7.25
7.08
3.01
-2.33
-5.64
-5.01
-1.03
3.56
5.64
3.59
-1.53
-6.67
-8.58
-5.81
0.24
6.14
8.33
5.25
-1.62
-8.59
-11.76
-9.33
-2.54
4.92
9.10
7.90
2.34
-4.16
-7.72
-6.28
-0.75
5.62
9.10
7.71
2.33
-3.79
-7.10
-5.66
-0.44
5.50
8.67
7.28
2.24
-3.41
-6.36
-4.98
-0.20
4.94
7.32
5.38
0.25
-5.06
-7.39
-5.40
-0.26
4.91
7.02
4.79
-0.42
-5.46
-7.32
-4.91
0.19
4.77
5.82
2.47
-3.49
-8.56
-9.69
-5.98
0.58
6.34
7.97
4.52
-2.04
-7.84
-9.41
-5.69
1.35
7.77
9.98
6.78
0.14
-6.08
-8.25
-5.22
1.19
7.16
9.22
6.14
-0.25
-6.27
-8.45
-5.55
0.78
6.92
9.41
6.85
0.73
-5.51
-8.40
-6.42
-0.87
4.99
7.78
6.00
0.84
-4.53
-6.91
-4.94
0.15
5.29
7.43
5.33
0.31
-4.63
-6.56
-4.42
0.44
5.03
6.60
4.18
-0.78
-5.33
-6.75
-4.18
0.86
5.37
6.67
3.95
-1.19
-5.71
-6.92
-4.06
1.22
5.87
7.21
4.56
-0.44
-4.77
-5.88
-3.14
1.76
5.90
6.81
3.96
-0.99
-5.17
-6.22
-3.60
1.03
4.92
5.74
3.02
-1.68
-5.61
-6.52
-3.90
0.63
4.40
5.15
2.46
-2.06
-5.69
-6.31
-3.54
0.89
4.33
4.64
1.66
-2.86
-6.16
-6.24
-2.97
1.71
5.08
5.08
1.64
-3.34
-7.05
-7.46
-4.37
0.40
4.19
4.93
2.40
-1.74
-4.87
-5.05
-2.04
2.47
5.93
6.31
3.41
-1.07
-4.42
-4.60
-1.42
3.32
6.81
6.90
3.40
-1.77
-5.62
-5.90
-2.35
3.02
7.17
7.71
4.32
-1.05
-5.34
-6.14
-3.05
2.09
6.30
7.17
4.24
-0.76
-4.92
-5.90
-3.26
1.35
5.12
5.83
3.08
-1.44
-4.98
-5.41
-2.48
2.03
5.32
5.32
1.85
-3.12
-6.73
-6.80
-3.24
1.95
5.75
5.93
2.33
-2.98
-6.92
-7.13
-3.39
2.31
6.81
7.69
4.52
-0.76
-5.12
-6.04
-3.11
1.91
5.99
6.73
3.63
-1.45
-5.57
-6.27
-3.16
1.97
6.08
6.80
3.72
-1.29
-5.33
-6.09
-3.37
0.96
4.00
3.78
0.31
-4.23
-7.00
-6.12
-2.04
2.84
5.43
3.98
-0.92
-6.46
-9.38
-7.76
-2.36
3.91
7.47
6.36
1.26
-4.71
-7.91
-6.19
-0.32
6.52
10.40
9.07
3.19
-3.94
-8.30
-7.45
-1.96
4.97
9.28
8.47
2.96
-4.07
-8.65
-8.18
-3.00
3.97
8.86
9.10
4.81
-1.28
-5.60
-5.71
-1.79
3.70
7.32
6.89
2.56
-3.15
-7.00
-6.86
-3.04
2.04
5.22
4.57
0.47
-4.52
-7.35
-6.17
-1.67
3.51
6.14
4.54
-0.48
-5.95
-8.56
-6.52
-0.83
5.40
8.60
6.92
1.28
-5.04
-8.43
-6.91
-1.44
4.83
8.18
6.65
1.11
-5.20
-8.62
-7.12
-1.61
4.70
8.06
6.45
0.70
-5.84
-9.37
-7.73
-1.77
5.25
9.36
8.30
2.76
-3.95
-7.90
-6.75
-1.19
5.60
9.61
8.53
2.91
-4.03
-8.40
-7.80
-2.79
3.60
7.51
6.66
1.52
-4.83
-8.70
-7.76
-2.61
3.81
7.73
6.90
1.82
-4.50
-8.37
-7.49
-2.39
4.02
7.97
7.16
2.08
-4.26
-8.11
-7.08
-1.67
5.14
9.48
8.91
3.85
-2.65
-6.76
-6.05
-1.01
5.32
9.07
7.92
2.44
-4.13
-7.91
-6.60
-0.95
5.75
9.53
8.11
2.30
-4.48
-8.25
-6.79
-1.05
5.51
8.87
6.89
0.64
-6.26
-9.79
-7.91
-1.77
4.91
8.18
6.05
-0.16
-6.74
-9.78
-7.50
-1.28
5.12
7.88
5.27
-1.17
-7.66
-10.32
-7.58
-0.99
5.62
8.44
5.90
-0.35
-6.48
-8.73
-5.66
1.05
7.54
10.10
7.28
0.79
-5.52
-7.97
-5.16
1.22
7.38
9.64
6.61
-0.06
-6.55
-9.22
-6.63
-0.42
5.68
8.04
5.28
-0.98
-6.98
-9.14
-6.09
0.48
6.84
9.39
6.73
0.54
-5.46
-7.71
-4.88
1.35
7.27
9.32
6.19
-0.35
-6.51
-8.72
-5.70
0.72
6.73
8.68
5.34
-1.43
-7.71
-9.86
-6.62
0.09
6.36
8.53
5.37
-1.16
-7.11
-8.87
-5.26
1.69
8.06
10.23
6.99
0.24
-6.23
-8.91
-6.60
-0.96
4.47
6.47
3.91
-1.61
-6.74
-8.38
-5.50
0.38
5.98
8.26
6.05
0.79
-4.40
-6.54
-4.50
0.41
5.19
6.98
4.70
-0.35
-5.23
-7.16
-5.08
-0.36
4.15
5.66
3.22
-1.76
-6.25
-7.47
-4.49
1.10
6.15
7.67
4.64
-1.28
-6.78
-8.71
-6.01
-0.27
5.11
6.94
4.05
-1.90
-7.42
-9.15
-5.91
0.73
7.10
9.70
7.08
0.76
-5.59
-8.30
-5.72
0.78
7.61
10.96
8.96
2.75
-4.19
-8.10
-6.94
-1.62
4.71
8.40
7.47
2.69
-3.00
-6.19
-5.04
-0.32
5.09
7.97
6.56
1.68
-3.86
-6.91
-5.83
-1.40
3.64
6.34
5.18
1.02
-3.50
-5.61
-4.06
0.04
3.95
4.86
1.73
-4.03
-9.22
-10.76
-7.44
-0.86
5.51
8.14
5.56
-0.71
-7.03
-9.63
-6.85
-0.07
7.02
10.56
8.67
2.58
-4.17
-7.78
-6.35
-0.91
5.22
8.40
6.75
1.25
-4.88
-8.14
-6.68
-1.44
4.51
7.68
6.30
1.25
-4.48
-7.57
-6.35
-1.70
3.47
6.09
4.61
0.10
-4.57
-6.41
-4.18
0.86
5.62
7.04
3.94
-2.21
-8.03
-10.20
-7.36
-1.02
5.41
8.42
6.52
1.07
-4.60
-7.05
-4.82
0.76
6.36
8.62
6.04
0.02
-6.04
-8.65
-6.28
-0.25
5.99
8.84
6.66
0.72
-5.49
-8.28
-5.95
0.26
6.82
9.95
7.81
1.65
-5.00
-8.31
-6.37
-0.33
6.33
9.78
8.04
2.18
-4.36
-7.76
-6.05
-0.23
6.30
9.74
8.06
2.20
-4.52
-8.35
-7.22
-1.96
4.30
7.93
6.95
2.08
-3.71
-7.04
-6.06
-1.49
3.86
6.86
5.79
1.41
-3.60
-6.30
-5.24
-1.27
2.99
4.76
2.77
-1.94
-6.62
-8.48
-6.28
-1.15
4.06
6.44
4.67
-0.09
-5.00
-7.10
-5.13
-0.23
4.72
6.81
4.85
0.06
-4.65
-6.43
-4.17
0.82
5.59
7.36
5.12
0.26
-4.27
-5.74
-3.29
1.56
5.80
6.74
3.64
-1.82
-6.47
-7.62
-4.56
0.88
5.48
6.49
3.21
-2.47
-7.31
-8.48
-5.33
0.33
5.24
6.60
3.65
-1.93
-6.92
-8.55
-5.89
-0.46
4.77
6.93
4.95
0.08
-4.85
-6.95
-5.02
-0.01
5.30
8.03
6.68
2.08
-3.06
-5.72
-4.22
0.66
6.22
9.15
7.60
2.24
-4.05
-7.75
-6.78
-1.70
4.47
8.10
6.92
1.58
-4.84
-8.53
-7.26
-1.74
4.82
8.46
7.03
1.34
-5.23
-8.78
-7.23
-1.58
4.69
7.81
5.84
0.04
-6.05
-8.66
-6.11
0.21
6.69
9.59
7.34
1.34
-4.83
-7.62
-5.55
-0.06
5.44
7.67
5.31
-0.13
-5.39
-7.40
-5.15
-0.21
4.26
5.40
2.45
-2.86
-7.26
-8.01
-4.45
1.48
6.37
7.34
3.65
-2.66
-8.05
-9.33
-5.62
1.21
7.49
9.83
6.95
0.43
-6.12
-9.14
-7.01
-0.95
5.70
9.35
8.11
2.87
-3.32
-6.97
-6.16
-1.53
4.11
7.49
6.73
2.47
-2.61
-5.46
-4.42
-0.29
4.27
6.29
4.38
-0.48
-5.45
-7.57
-5.56
-0.61
4.29
6.13
3.65
-1.78
-7.01
-8.90
-6.21
-0.35
5.37
7.69
5.24
-0.54
-6.26
-8.55
-5.93
0.22
6.49
9.32
7.07
1.02
-5.44
-8.66
-6.85
-1.13
5.17
8.37
6.63
1.05
-5.00
-7.85
-5.69
0.35
6.85
10.08
8.16
2.23
-4.31
-7.78
-6.33
-0.98
5.03
8.18
6.65
1.40
-4.52
-7.68
-6.36
-1.40
4.26
7.33
6.06
1.20
-4.37
-7.44
-6.26
-1.59
3.80
6.73
5.45
0.73
-4.70
-7.65
-6.49
-1.93
3.25
6.00
4.65
-0.02
-5.24
-7.99
-6.60
-1.86
3.57
6.58
5.51
1.07
-4.10
-6.88
-5.58
-0.79
4.80
8.08
7.21
2.75
-2.64
-5.79
-4.76
-0.15
5.39
8.53
7.32
2.36
-3.50
-6.80
-5.59
-0.48
5.46
8.71
7.23
1.85
-4.23
-7.37
-5.60
0.02
6.13
8.95
6.66
0.48
-6.02
-9.02
-6.83
-0.82
5.25
7.65
4.78
-1.74
-8.01
-10.29
-7.11
-0.34
6.13
8.51
5.47
-1.08
-7.23
-9.31
-6.21
0.18
6.00
7.81
4.60
-1.69
-7.32
-9.04
-5.92
0.10
5.52
7.22
4.35
-1.26
-6.27
-7.66
-4.63
1.17
6.50
8.45
6.06
0.79
-4.32
-6.47
-4.60
-0.01
4.53
6.34
4.40
-0.07
-4.36
-5.89
-3.73
0.86
5.15
6.51
4.04
-0.91
-5.49
-7.01
-4.54
0.50
5.14
6.60
3.95
-1.28
-6.02
-7.43
-4.61
0.79
5.61
6.97
4.05
-1.40
-6.11
-7.19
-3.93
1.79
6.55
7.39
3.61
-2.75
-8.02
-9.09
-5.16
1.65
7.53
9.10
5.37
-1.56
-7.79
-9.76
-6.36
0.47
6.83
9.08
5.99
-0.64
-6.94
-9.31
-6.45
-0.07
6.12
8.59
5.98
-0.08
-6.00
-8.31
-5.67
0.42
6.50
9.16
7.00
1.41
-4.26
-6.69
-4.44
1.14
6.79
9.19
6.86
1.03
-5.06
-8.06
-6.45
-1.28
4.37
7.27
5.84
1.05
-4.21
-6.86
-5.39
-0.74
4.34
6.91
5.51
1.03
-3.86
-6.34
-5.08
-1.00
3.28
5.10
3.31
-0.96
-4.97
-6.15
-3.63
1.09
5.04
5.55
2.01
-3.68
-8.13
-8.44
-4.03
3.00
8.89
10.41
6.68
-0.29
-6.66
-9.01
-6.11
0.29
6.65
9.53
7.52
2.04
-3.66
-6.34
-4.64
0.22
5.21
7.31
5.28
0.38
-4.45
-6.35
-4.26
0.40
4.67
5.77
2.82
-2.56
-7.19
-8.22
-4.83
1.24
6.56
8.07
4.79
-1.48
-7.20
-9.12
-6.15
-0.04
5.64
7.54
4.55
-1.52
-7.02
-8.57
-5.11
1.38
7.16
8.77
5.24
-1.38
-7.22
-8.82
-5.26
1.41
7.34
9.14
5.92
-0.32
-5.80
-7.31
-4.05
1.93
6.99
8.07
4.47
-1.72
-6.86
-8.02
-4.54
1.46
6.46
7.54
4.10
-1.75
-6.51
-7.33
-3.71
2.18
6.80
7.28
3.15
-3.29
-8.40
-9.21
-5.28
1.11
6.26
7.16
3.34
-2.91
-7.84
-8.46
-4.34
2.21
7.37
8.11
3.98
-2.70
-8.01
-8.86
-4.63
2.34
8.10
9.38
5.33
-1.82
-8.08
-9.97
-6.40
0.71
7.53
10.48
8.13
2.06
-4.22
-7.22
-5.49
-0.32
5.11
7.61
5.88
1.26
-3.23
-4.68
-2.20
2.62
6.54
6.74
2.59
-3.91
-9.15
-10.08
-5.99
1.04
7.32
9.64
7.01
1.21
-4.30
-6.53
-4.52
0.08
4.09
4.77
1.44
-4.02
-8.29
-8.59
-4.27
2.58
8.42
10.08
6.67
0.11
-6.02
-8.40
-5.82
0.16
6.25
9.19
7.67
2.92
-2.16
-4.69
-3.59
-0.05
3.25
3.86
1.13
-3.40
-6.86
-6.88
-3.13
2.37
6.41
6.39
1.98
-4.57
-9.62
-10.23
