1544027334.00
64.000000
-0.00
-0.00
-0.00
-0.00
-0.00
-0.00
-0.00
-0.00
-0.00
-0.00
0.00
0.01
0.01
-0.00
-0.03
-0.05
-0.05
0.00
0.13
0.36
0.66
1.01
1.37
1.72
2.06
2.40
2.79
3.24
3.80
4.43
5.08
5.71
6.28
6.82
7.38
8.04
8.86
9.93
11.18
12.48
13.74
14.89
15.98
17.17
18.68
20.66
23.32
26.47
29.84
33.15
36.23
39.16
42.26
45.99
50.66
56.68
63.70
71.21
78.63
85.59
92.15
98.81
106.29
115.19
126.10
138.56
151.78
164.87
177.24
188.92
200.56
213.55
226.69
242.35
261.16
283.19
307.18
330.14
347.67
355.16
349.33
329.48
298.15
259.27
217.07
174.62
133.21
92.89
53.46
15.26
-20.67
-52.76
-80.30
-103.54
-123.46
-141.15
-157.27
-171.78
-183.96
-193.00
-198.30
-200.37
-200.59
-200.83
-202.87
-207.46
-214.32
-222.24
-229.69
-235.51
-239.49
-242.60
-246.23
-251.62
-259.41
-269.35
-281.02
-294.13
-308.46
-323.51
-337.39
-347.00
-348.69
-339.95
-321.01
-294.77
-265.81
-238.13
-213.32
-190.51
-167.54
-143.20
-118.47
-96.08
-79.02
-68.00
-60.95
-53.88
-43.18
-27.96
-10.39
5.07
14.57
17.02
14.78
12.56
14.40
21.71
32.36
41.85
46.37
44.55
38.67
33.05
31.55
35.65
43.15
50.09
52.72
49.71
43.21
37.16
35.34
38.80
45.35
51.06
52.09
47.45
39.42
32.16
29.41
32.16
38.02
42.70
42.28
35.81
25.94
17.46
14.69
18.78
27.27
35.10
37.73
33.62
25.02
16.83
13.36
16.22
23.14
29.47
31.11
26.56
18.18
10.38
7.24
10.09
16.60
22.51
23.64
18.62
9.60
0.89
-3.37
-1.63
4.02
9.33
10.21
5.30
-3.27
-11.04
-13.86
-10.40
-2.87
4.16
6.47
2.50
-5.74
-13.85
-17.59
-15.32
-8.93
-2.64
-0.75
-5.05
-13.76
-22.62
-27.35
-26.09
-20.39
-14.37
-12.12
-15.24
-21.76
-27.43
-28.27
-22.97
-13.89
-5.64
-2.51
-5.68
-12.74
-19.06
-20.43
-15.73
-7.33
0.07
2.57
-0.81
-7.52
-12.92
-13.20
-7.39
1.75
9.74
12.78
10.01
4.05
-0.70
-0.48
5.31
14.06
21.37
23.55
19.97
13.27
8.05
7.85
13.33
21.79
28.65
30.27
25.85
18.28
12.16
11.35
16.70
25.47
33.07
35.46
31.85
24.90
19.28
18.90
24.53
33.51
40.96
43.00
38.81
31.21
24.97
23.94
28.89
36.87
43.13
43.86
38.47
29.91
22.88
21.10
25.00
31.53
36.05
34.98
28.00
18.17
10.33
8.08
11.86
18.69
23.89
23.75
17.65
8.59
1.25
-0.61
3.61
10.99
16.76
16.96
11.00
1.83
-5.66
-7.59
-3.32
4.23
10.15
10.71
5.45
-2.46
-8.18
-8.12
-1.92
7.03
13.86
14.92
9.97
2.24
-3.53
-3.84
1.49
9.26
14.87
14.93
9.20
0.76
-5.87
-7.28
-3.21
3.41
8.24
7.84
2.01
-6.21
-12.17
-12.32
-6.46
2.37
9.25
10.43
5.46
-2.54
-8.65
-9.25
-3.77
4.59
10.92
11.45
5.68
-3.17
-10.34
-12.00
-7.59
-0.23
5.50
5.96
0.94
-6.43
-11.39
-10.37
-3.38
6.23
13.51
14.76
9.74
1.65
-4.62
-5.58
-0.98
6.08
10.88
10.05
3.45
-5.50
-12.04
-12.76
-7.46
0.45
6.35
6.82
1.91
-5.12
-9.78
-8.89
-2.68
5.54
11.23
11.22
5.63
-2.46
-8.47
-9.22
-4.66
2.28
7.17
6.95
1.49
-5.98
-10.85
-9.94
-3.13
6.17
13.18
14.24
9.05
0.95
-5.35
-6.14
-1.10
6.54
12.05
11.73
5.51
-3.40
-9.97
-10.46
-4.68
4.15
10.97
12.11
7.20
-0.53
-6.16
-6.25
-0.49
7.77
13.66
13.59
7.24
-2.00
-9.37
-11.19
-7.10
-0.29
4.69
4.33
-1.33
-9.07
-14.22
-13.43
-6.89
2.03
8.51
9.19
4.14
-3.40
-8.65
-8.45
-2.83
4.92
10.11
9.65
3.58
-4.55
-10.01
-9.61
-3.47
4.79
10.45
10.15
4.20
-3.78
-8.98
-8.03
-1.26
7.75
14.02
14.08
7.93
-1.14
-8.25
-9.95
-5.91
0.85
5.88
5.86
0.58
-6.86
-11.99
-11.56
-5.61
2.57
8.22
8.01
2.00
-6.31
-11.99
-11.67
-5.38
3.27
9.41
9.67
4.23
-3.32
-8.19
-7.11
-0.47
8.18
14.04
13.96
8.31
0.59
-4.46
-3.95
1.77
9.17
13.70
12.53
6.02
-2.22
-7.74
-7.58
-2.04
5.46
10.48
9.84
3.66
-4.88
-11.25
-12.21
-7.65
-0.56
4.57
4.58
-0.56
-7.63
-12.11
-10.96
-4.42
3.92
9.35
8.77
2.67
-5.20
-10.11
-9.04
-2.62
5.42
10.40
9.47
3.31
-4.37
-8.94
-7.65
-1.17
6.81
11.69
10.63
4.11
-4.17
-9.62
-9.29
-3.59
3.90
8.53
7.23
0.47
-8.12
-13.81
-13.55
-7.78
-0.15
4.62
3.60
-2.55
-9.96
-13.86
-11.47
-3.61
5.66
11.48
11.00
5.03
-2.42
-6.54
-4.42
3.16
12.26
18.01
17.25
10.44
1.21
-5.59
-6.76
-2.46
4.00
8.04
6.59
-0.12
-8.63
-14.29
-14.01
-8.02
0.07
5.56
5.29
-0.34
-7.63
-11.81
-9.80
-2.25
6.93
12.73
12.04
5.47
-3.08
-8.61
-8.14
-2.18
5.48
10.18
9.09
2.91
-4.56
-8.83
-7.19
-0.51
7.41
12.01
10.57
3.93
-4.22
-9.28
-8.59
-2.79
4.58
9.03
7.90
1.65
-6.23
-11.47
-11.33
-6.13
0.79
5.30
4.61
-0.77
-7.44
-11.03
-8.77
-1.35
7.55
13.17
12.57
6.43
-1.33
-5.81
-4.13
3.00
11.58
16.67
15.31
8.22
-0.78
-6.88
-7.15
-1.98
5.08
9.52
8.35
1.80
-6.79
-12.94
-13.49
-8.49
-1.16
3.99
3.66
-2.03
-9.62
-14.35
-12.96
-5.76
3.48
9.62
9.30
2.95
-5.46
-10.81
-9.87
-3.09
5.58
11.25
10.78
4.72
-3.21
-8.36
-7.78
-1.98
5.49
10.13
9.07
2.81
-5.09
-10.07
-9.24
-3.10
4.75
9.63
8.51
1.93
-6.32
-11.36
-10.24
-3.46
5.12
10.55
9.81
3.49
-4.46
-9.30
-8.07
-1.44
6.69
11.59
10.26
3.40
-5.34
-11.17
-11.00
-5.29
2.53
7.76
7.50
2.06
-4.99
-9.00
-7.16
-0.02
8.62
14.01
13.15
6.64
-1.49
-6.45
-5.34
1.14
8.96
13.36
11.34
3.93
-4.83
-10.10
-8.96
-2.41
5.66
10.35
8.85
2.11
-6.00
-10.65
-9.24
-2.59
5.41
9.95
8.47
1.63
-6.62
-11.66
-10.81
-4.70
2.74
7.10
5.60
-1.04
-8.88
-13.38
-11.68
-4.60
3.88
9.01
7.64
0.53
-8.28
-13.80
-12.74
-5.72
3.53
9.96
10.12
4.34
-4.00
-10.07
-10.69
-5.94
1.08
5.91
5.78
0.93
-5.42
-8.98
-7.19
-0.46
7.61
12.57
11.63
5.22
-2.82
-7.76
-6.61
0.28
8.99
14.79
14.45
8.31
0.19
-5.27
-4.91
0.77
8.04
12.27
10.41
3.33
-5.16
-10.26
-9.01
-2.28
6.04
11.07
9.76
2.85
-5.91
-11.60
-11.23
-5.38
2.35
7.17
6.24
0.14
-7.38
-11.53
-9.58
-2.22
6.65
12.07
11.12
4.49
-3.81
-8.87
-7.81
-1.20
7.02
11.99
10.72
3.75
-5.09
-11.06
-11.08
-5.50
2.00
6.88
6.11
0.10
-7.56
-12.31
-11.23
-4.92
2.89
7.56
6.16
-0.54
-8.58
-13.11
-11.24
-3.84
5.11
10.66
9.77
3.26
-4.93
-9.92
-8.85
-2.47
5.48
10.22
8.94
2.35
-5.97
-11.39
-11.09
-5.46
2.17
7.40
7.54
2.89
-3.30
-6.82
-5.11
1.36
9.13
13.86
12.81
6.46
-1.52
-6.56
-5.78
0.47
8.53
13.81
13.27
7.24
-0.78
-6.43
-6.83
-2.36
3.55
6.74
4.59
-2.13
-9.84
-14.28
-12.81
-6.25
1.69
6.62
5.79
-0.11
-7.45
-11.75
-10.21
-3.53
4.73
10.03
9.43
3.45
-4.42
-9.58
-9.14
-3.47
4.15
9.21
8.84
3.42
-3.79
-8.38
-7.64
-1.84
5.65
10.43
9.80
4.09
-3.19
-7.59
-6.26
0.44
8.86
14.31
13.68
7.18
-1.56
-7.81
-8.37
-3.38
3.59
8.00
6.79
0.36
-7.68
-12.77
-11.95
-5.71
2.29
7.55
7.10
1.42
-6.02
-10.83
-10.11
-4.24
3.41
8.49
8.04
2.36
-5.24
-10.30
-9.80
-3.94
4.00
9.52
9.46
3.91
-3.86
-9.35
-9.43
-4.10
3.47
8.85
8.93
3.71
-3.75
-9.11
-9.30
-4.28
2.97
8.19
8.35
3.41
-3.56
-8.28
-7.76
-2.03
5.71
11.02
10.81
5.20
-2.50
-7.67
-7.18
-1.12
7.07
12.69
12.46
6.36
-2.18
-8.51
-9.32
-4.54
2.55
7.48
7.08
1.44
-6.20
-11.42
-11.16
-5.62
1.97
7.18
7.04
1.69
-5.56
-10.27
-9.43
-3.17
5.19
11.13
11.40
5.97
-1.94
-7.75
-8.15
-2.94
4.70
10.18
10.13
4.34
-3.85
-9.76
-9.91
-4.11
4.26
10.45
10.82
5.20
-3.15
-9.43
-10.06
-4.77
3.32
9.49
10.19
5.00
-3.09
-9.59
-10.95
-6.71
0.36
6.02
6.90
2.72
-3.77
-8.31
-7.82
-2.19
5.51
10.84
10.57
4.60
-3.84
-10.16
-10.88
-5.73
2.32
8.67
9.82
5.31
-2.11
-7.93
-8.74
-3.99
3.58
9.55
10.50
5.88
-1.50
-7.20
-7.78
-2.87
4.68
10.33
10.62
5.19
-3.01
-9.41
-10.65
-6.33
0.60
5.72
5.81
0.62
-6.78
-12.02
-11.84
-6.15
1.95
7.91
8.33
3.01
-4.95
-10.87
-11.28
-5.75
2.62
9.21
10.38
5.65
-1.94
-7.79
-8.27
-2.89
5.40
12.00
13.16
8.30
0.13
-6.85
-8.97
-5.35
1.46
7.31
8.62
4.60
-2.31
-8.02
-8.98
-4.57
2.75
8.78
9.93
5.53
-1.79
-7.60
-8.32
-3.32
4.66
11.04
12.04
7.00
-1.28
-8.18
-9.89
-5.70
1.74
7.79
8.71
3.83
-4.19
-10.77
-12.23
-7.82
-0.29
5.85
6.86
1.92
-6.19
-12.82
-14.02
-8.96
-0.26
7.39
9.99
6.45
-0.70
-6.97
-8.56
-4.51
2.68
8.65
9.67
5.03
-2.61
-8.82
-9.88
-5.07
2.97
9.72
11.43
7.27
-0.20
-6.40
-7.52
-2.65
5.56
12.55
14.23
9.52
0.95
-6.77
-9.43
-5.83
1.73
8.63
10.74
6.79
-0.97
-8.04
-10.50
-7.10
-0.12
6.09
7.75
3.80
-3.40
-9.55
-10.94
-6.64
0.92
7.35
8.97
4.84
-2.53
-8.65
-9.74
-4.85
3.41
10.52
12.49
8.23
0.29
-6.78
-8.94
-5.07
2.51
9.31
11.37
7.51
-0.08
-7.11
-9.80
-6.96
-0.77
4.72
5.84
1.59
-5.76
-11.99
-13.28
-8.62
-0.33
7.11
9.62
5.94
-1.66
-8.60
-10.69
-6.55
1.68
9.46
12.48
9.11
1.24
-6.72
-10.52
-8.31
-1.61
5.49
9.00
7.09
1.28
-4.50
-6.46
-2.89
4.40
11.19
13.42
9.34
1.01
-7.13
-10.70
-7.84
-0.57
6.76
9.77
6.62
-0.73
-8.06
-11.10
-8.19
-1.27
5.58
8.15
4.96
-2.11
-8.91
-11.31
-7.87
-0.46
6.75
9.59
6.62
-0.34
-6.99
-9.24
-5.73
1.79
8.93
11.61
8.22
0.55
-7.02
-10.39
-7.75
-0.78
6.27
9.35
6.59
-0.29
-7.05
-9.57
-5.93
2.02
10.01
13.62
10.74
3.08
-5.17
-9.51
-7.81
-1.58
5.22
8.27
5.52
-1.57
-9.03
-12.53
-10.11
-3.21
4.26
7.97
5.88
-0.63
-7.70
-11.07
-8.77
-2.09
5.11
8.62
6.53
0.20
-6.41
-9.16
-6.18
1.14
8.70
12.27
9.82
2.65
-5.18
-9.38
-7.79
-1.60
5.25
8.67
6.54
0.17
-6.45
-9.31
-6.42
0.68
7.91
11.10
8.22
0.94
-6.64
-10.18
-7.55
-0.30
7.61
11.77
9.87
3.13
-4.82
-9.60
-8.90
-3.64
2.86
6.46
5.00
-0.65
-7.05
-10.13
-7.88
-1.33
5.82
9.33
7.11
0.31
-7.07
-10.63
-8.09
-0.49
8.08
13.05
11.83
5.23
-2.88
-8.02
-7.48
-1.90
5.08
9.23
7.90
1.83
-5.36
-9.41
-7.80
-1.47
5.84
9.83
7.97
1.41
-6.01
-9.95
-8.02
-1.43
6.03
9.99
8.10
1.53
-6.03
-10.23
-8.80
-2.76
4.36
8.29
6.79
0.75
-6.32
-10.15
-8.46
-2.03
5.61
10.13
9.10
3.17
-4.04
-8.27
-7.08
-1.03
6.26
10.53
9.28
3.08
-4.51
-9.31
-8.70
-3.19
3.72
8.01
6.99
1.25
-5.84
-10.22
-9.17
-3.33
3.97
8.55
7.62
1.81
-5.51
-9.99
-8.82
-2.61
5.40
10.69
10.34
4.61
-3.42
-9.35
-10.23
-5.96
0.74
5.72
6.26
2.23
-3.60
-7.25
-6.04
0.02
7.83
13.14
12.94
7.16
-0.87
-6.64
-6.87
-1.39
6.45
12.04
11.95
6.01
-2.53
-9.13
-10.35
-6.03
0.72
5.49
4.99
-0.74
-8.56
-13.98
-13.75
-7.93
0.36
6.57
7.37
2.72
-4.34
-9.27
-8.88
-3.16
4.86
10.62
10.92
5.67
-2.08
-7.77
-8.23
-3.23
4.29
9.87
10.41
5.65
-1.42
-6.46
-6.46
-1.20
6.22
11.41
11.23
5.52
-2.52
-8.46
-9.03
-4.00
3.40
8.82
8.90
3.50
-4.31
-10.21
-10.88
-6.18
0.95
6.32
6.63
1.79
-5.35
-10.49
-10.37
-4.93
3.02
9.08
9.84
5.02
-2.63
-8.59
-9.51
-4.92
2.55
8.43
9.38
4.88
-2.37
-8.06
-8.98
-4.56
2.43
7.72
8.16
3.28
-4.07
-9.64
-10.14
-5.11
2.53
8.56
9.52
4.86
-2.62
-8.66
-9.67
-5.11
2.32
8.44
9.58
5.24
-1.96
-7.71
-8.54
-4.00
3.45
9.38
10.36
5.86
-1.65
-7.81
-9.32
-5.42
1.46
7.06
8.18
4.01
-2.92
-8.53
-9.42
-4.78
2.79
9.19
10.78
6.67
-0.72
-7.15
-8.88
-5.06
2.00
8.05
9.38
5.03
-2.57
-9.04
-10.69
-6.60
0.81
7.09
8.50
4.17
-3.30
-9.46
-10.61
-5.95
1.88
8.40
9.93
5.75
-1.57
-7.63
-8.75
-4.12
3.76
10.53
12.44
8.44
0.71
-6.43
-9.14
-6.17
0.52
6.80
8.88
5.39
-1.53
-7.63
-9.09
-4.72
3.16
10.11
12.06
7.86
-0.03
-7.08
-9.30
-5.57
1.79
8.32
10.12
6.06
-1.73
-9.02
-11.97
-9.20
-2.59
3.93
6.57
3.79
-2.74
-9.08
-11.35
-7.97
-0.68
6.46
9.38
6.43
-0.47
-7.08
-9.32
-5.73
1.60
8.34
10.49
6.78
-0.54
-7.16
-9.19
-5.50
1.76
8.42
10.68
7.36
0.38
-6.25
-8.82
-5.96
0.56
6.86
9.22
6.06
-0.91
-7.79
-10.70
-7.98
-1.30
5.50
8.37
5.67
-1.00
-7.64
-10.29
-7.36
-0.48
6.30
9.07
6.31
-0.14
-6.21
-8.05
-4.28
3.13
9.97
12.33
8.80
1.36
-5.78
-8.61
-5.62
1.35
8.24
11.03
8.09
1.12
-5.92
-9.10
-6.79
-0.64
5.41
7.40
3.79
-3.62
-10.62
-13.03
-9.18
-0.84
7.60
11.80
9.77
3.03
-4.23
-7.87
-5.85
0.40
6.98
9.86
7.10
0.28
-6.76
-9.88
-7.17
-0.25
6.98
10.16
7.46
0.45
-6.70
-9.62
-6.50
1.07
8.80
12.29
9.62
2.30
-5.41
-9.34
-7.56
-1.53
4.67
7.08
3.82
-3.40
-10.53
-13.51
-10.46
-3.13
4.45
7.98
5.55
-1.20
-8.20
-11.09
-8.07
-0.75
6.74
9.98
7.16
-0.20
-7.75
-11.08
-8.23
-0.63
7.35
11.34
9.13
2.19
-5.24
-8.82
-6.33
0.74
8.27
11.87
9.27
1.95
-6.13
-10.50
-8.93
-2.67
4.57
8.47
6.95
1.09
-5.42
-8.44
-6.05
0.64
7.80
11.33
9.12
2.33
-5.19
-9.27
-7.66
-1.46
5.52
9.15
7.11
0.59
-6.66
-10.36
-8.29
-1.64
5.82
9.76
7.97
1.63
-5.44
-8.94
-6.72
0.12
7.70
11.72
9.89
3.21
-4.50
-8.98
-7.86
-2.04
4.80
8.46
6.54
0.09
-7.19
-10.99
-9.00
-2.28
5.37
9.52
7.84
1.41
-5.91
-9.72
-7.74
-1.01
6.62
10.79
9.15
2.71
-4.79
-9.06
-7.76
-1.79
5.24
9.11
7.46
1.06
-6.51
-11.06
-10.07
-4.22
3.05
7.54
6.56
0.77
-6.39
-10.60
-9.18
-2.76
5.20
10.14
9.34
3.36
-4.25
-8.97
-8.10
-2.18
5.15
9.57
8.45
2.45
-4.83
-9.16
-8.06
-2.27
4.72
8.76
7.42
1.49
-5.62
-9.78
-8.60
-2.74
4.44
8.87
8.10
2.59
-4.40
-8.86
-8.23
-2.91
3.99
8.49
7.83
2.41
-4.74
-9.53
-9.21
-4.02
3.01
7.67
7.26
1.98
-5.07
-9.62
-8.97
-3.31
4.22
9.49
9.76
5.26
-0.85
-4.63
-3.43
2.33
9.49
13.90
12.85
6.70
-1.34
-6.91
-7.00
-1.74
5.69
10.81
10.37
4.26
-4.37
-10.85
-11.80
-6.97
0.59
6.22
6.55
1.49
-5.67
-10.27
-9.06
-2.15
6.86
13.17
13.43
7.78
-0.28
-5.97
-6.05
-0.63
6.98
12.18
11.77
5.84
-2.36
-8.32
-8.83
-3.87
3.32
8.18
7.40
0.89
-8.11
-14.85
-15.85
-10.89
-3.11
2.83
3.47
-1.32
-8.27
-12.76
-11.52
-4.58
4.68
11.48
12.43
7.50
-0.14
-5.88
-6.46
-1.75
5.14
9.79
8.96
2.46
-6.51
-13.38
-14.70
-10.09
-2.55
3.38
4.13
-0.64
-7.95
-13.20
-12.82
-6.59
2.39
9.35
10.72
6.10
-1.44
-7.19
-7.71
-2.69
4.82
10.21
10.03
3.99
-4.71
-11.47
-12.70
-7.99
-0.43
5.40
5.93
0.89
-6.70
-12.16
-11.99
-6.04
2.63
9.34
10.61
6.08
-1.24
-6.75
-7.03
-1.57
6.76
13.44
14.87
10.29
2.31
-4.81
-7.37
-4.42
1.68
7.02
8.11
4.34
-1.82
-6.22
-5.52
0.62
9.49
16.53
18.12
13.73
6.00
-0.50
-2.22
1.58
8.28
13.41
13.47
7.65
-1.29
-8.89
-11.52
-8.26
-1.73
3.96
5.23
1.47
-4.79
-9.54
-9.51
-4.41
3.17
9.05
9.95
5.38
-2.28
-8.85
-10.92
-7.70
-1.18
4.62
6.36
2.98
-3.38
-8.66
-9.34
-4.11
4.71
12.77
15.95
12.54
4.56
-3.83
-8.35
-7.22
-2.18
3.06
4.60
1.15
-5.35
-11.05
-12.28
-8.15
-0.86
5.40
6.84
2.67
-4.78
-11.10
-12.49
-8.16
-0.51
5.94
7.50
3.32
-4.08
-10.12
-11.19
-6.43
1.55
8.13
9.61
5.14
-2.57
-8.90
-10.00
-4.78
4.03
11.77
14.32
10.22
1.89
-6.18
-9.74
-7.29
-0.90
5.34
7.32
3.84
-3.00
-9.09
-10.48
-6.17
1.60
8.55
10.74
7.22
0.24
-5.70
-6.73
-1.93
6.41
13.64
15.71
11.45
3.10
-4.72
-8.04
-5.51
0.75
6.32
7.52
3.15
-4.39
-10.67
-11.98
-7.29
0.89
7.99
10.07
5.94
-1.91
-8.98
-11.25
-7.38
0.23
7.18
9.42
5.57
-2.12
-9.31
-11.93
-8.66
-1.64
4.96
7.14
3.71
-3.16
-9.30
-10.82
-6.66
0.93
7.67
9.66
5.84
-1.49
-7.84
-9.26
-4.64
3.78
11.45
14.21
10.67
2.87
-4.77
-8.21
-5.86
0.44
6.52
8.54
5.04
-2.08
-8.68
-10.96
-7.62
-0.66
5.77
7.88
4.47
-2.27
-8.10
-9.29
-4.76
3.15
10.01
12.01
8.04
0.48
-6.18
-8.05
-4.02
3.58
10.32
12.24
8.13
0.27
-6.93
-9.54
-6.26
0.78
7.34
9.58
6.14
-1.03
-7.92
-10.86
-8.55
-2.80
2.66
4.37
1.14
-5.13
-10.69
-12.10
-8.22
-0.96
5.82
8.46
5.68
-0.67
-6.65
-8.49
-4.83
2.45
9.34
11.90
8.65
1.47
-5.52
-8.29
-5.26
1.89
9.03
12.03
9.09
1.67
-6.26
-10.53
-9.14
-3.35
3.16
6.45
4.61
-1.05
-6.87
-9.09
-6.09
0.58
7.06
9.52
6.47
-0.36
-6.91
-9.31
-6.12
0.80
7.36
9.68
6.28
-0.90
-7.71
-10.22
-6.92
0.33
7.40
10.26
7.26
0.15
-7.05
-10.29
-7.86
-1.35
5.42
8.48
6.12
-0.16
-6.66
-9.51
-7.09
-0.78
5.76
8.75
6.63
0.81
-4.99
-7.02
-3.79
3.20
10.05
12.82
9.90
2.83
-4.35
-7.65
-5.39
0.91
7.21
9.62
6.47
-0.61
-7.58
-10.59
-7.99
-1.47
4.96
7.50
4.48
-2.35
-8.98
-11.55
-8.30
-0.96
6.48
9.90
7.35
0.44
-6.88
-10.31
-7.80
-0.82
6.81
10.69
8.69
2.13
-5.21
-8.99
-7.18
-1.03
5.69
8.75
6.31
-0.20
-6.78
-9.23
-5.85
1.84
9.54
12.90
10.02
2.41
-5.58
-9.64
-7.72
-1.25
5.60
8.67
5.92
-1.10
-8.35
-11.75
-9.32
-2.57
4.46
7.74
5.29
-1.30
-8.08
-11.00
-8.08
-0.97
6.50
10.08
7.77
1.11
-6.11
-9.56
-7.32
-0.75
6.40
9.80
7.58
1.03
-5.95
-9.14
-6.66
0.27
7.62
11.16
8.81
1.81
-5.77
-9.67
-7.81
-1.29
5.81
9.42
7.36
0.94
-5.86
-9.00
-6.37
0.49
7.62
10.85
7.96
0.57
-7.45
-11.74
-10.14
-4.12
2.57
5.51
2.61
-4.90
-13.15
-17.66
-16.26
-9.93
-2.47
1.65
0.06
-6.45
-14.18
-18.81
-17.97
-12.18
-5.04
-0.55
-1.20
-6.57
-13.43
-18.12
-18.14
-13.70
-7.42
-2.29
-0.53
-1.98
-4.89
-7.28
-8.41
-9.84
-14.38
-24.65
-41.11
-61.08
-79.62
-91.56
-94.31
-89.32
-81.66
-77.80
-82.24
-95.43
-113.60
-130.54
-140.75
-141.06
-131.47
-113.54
-88.59
-56.98
-18.74
24.50
68.07
104.44
125.10
124.76
103.68
68.68
31.30
3.65
-5.43
6.18
33.72
67.67
97.49
115.94
121.06
116.12
107.00
98.72
93.33
89.22
83.19
73.05
59.34
45.13
33.80
27.10
23.53
19.46
11.64
-0.61
-14.54
-25.69
-30.38
-28.08
-22.27
-18.03
-19.74
-28.27
-40.59
-51.79
-57.87
-58.54
-57.20
-59.35
-69.42
-87.74
-110.49
-130.86
-142.57
-143.10
-134.52
-122.50
-113.05
-109.10
-108.71
-105.94
-94.25
-70.06
-35.10
4.29
40.65
68.90
89.11
105.59
124.54
150.87
185.58
226.27
268.50
308.25
343.18
372.66
396.62
414.06
423.03
420.93
406.02
378.62
341.28
298.24
254.05
212.13
173.84
138.72
105.21
71.85
38.18
5.02
-26.00
-53.24
-75.50
-93.64
-109.73
-125.99
-143.60
-162.16
-179.75
-193.87
-202.40
-204.59
-201.47
-194.93
-186.72
-177.21
-165.11
-147.44
-122.13
-89.38
-52.17
-15.73
14.27
33.80
41.50
38.47
26.47
6.87
-18.98
-48.44
-76.51
-96.65
-103.46
-96.07
-79.60
-63.03
-54.17
-54.84
-59.67
-59.38
-47.08
-23.10
5.04
27.98
39.92
43.02
45.99
57.64
79.88
104.95
119.60
113.05
84.04
42.31
3.77
-17.88
-17.98
-1.21
20.92
37.03
41.71
36.99
29.45
25.41
27.36
33.52
39.91
43.30
43.30
42.38
44.08
50.96
63.31
79.00
94.73
107.51
115.88
120.48
123.46
127.28
133.44
141.85
151.07
159.07
164.25
165.98
164.78
161.88
158.49
155.12
151.40
146.27
138.52
127.23
111.95
92.74
69.85
43.45
13.39
-20.79
-59.61
-103.33
-151.87
-204.64
-260.63
-318.44
-376.42
-432.70
-485.32
-532.42
-572.02
-602.28
-621.72
-629.46
-625.34
-610.01
-584.83
-551.73
-512.90
-470.47
-426.35
-382.05
-338.67
-296.96
-257.42
-220.45
-186.36
-155.31
-127.24
-101.84
-78.57
-56.81
-36.12
-16.33
2.37
19.56
34.79
47.94
59.29
69.51
79.46
89.81
100.77
112.03
122.93
132.79
141.26
148.49
155.09
162.00
170.37
181.46
196.29
215.15
236.93
258.85
276.84
286.79
286.01
274.36
254.31
229.89
205.10
182.62
163.36
146.94
132.68
120.19
109.50
100.70
93.51
87.18
80.82
73.82
66.16
58.36
51.24
45.47
41.25
38.28
35.92
33.52
30.68
27.42
24.08
21.15
18.96
17.62
16.98
16.73
16.63
16.55
16.53
16.64
16.96
17.46
18.10
18.86
19.84
21.26
23.33
26.15
29.60
33.32
36.91
40.08
42.89
45.73
49.19
53.80
59.73
66.70
74.17
81.47
88.16
94.19
99.86
105.75
112.72
121.89
134.48
151.23
171.65
193.39
212.41
224.05
224.71
213.32
191.82
164.37
135.67
109.29
86.79
67.84
51.13
35.36
19.80
4.29
-11.03
-26.04
-40.69
-54.98
-68.93
-82.57
-96.04
-109.85
-124.99
-142.74
-164.03
-188.48
-213.85
-236.20
-250.97
-254.67
-246.21
-227.43
-202.27
-175.36
-150.35
-129.13
-111.82
-97.56
-85.29
-74.28
-64.13
-54.58
-45.25
-35.73
-25.74
-15.39
-5.22
3.90
11.27
16.68
20.85
25.37
32.22
42.87
57.32
73.44
87.36
94.58
91.88
79.03
59.27
38.46
23.14
18.25
25.46
42.89
65.84
88.42
105.15
112.13
107.80
93.13
71.51
47.86
27.36
13.69
7.86
8.02
10.32
10.68
6.39
-3.24
-17.24
-34.03
-52.39
-71.82
-92.18
-113.03
-133.27
-151.54
-167.16
-180.68
-194.00
-209.62
-229.60
-254.53
-283.40
-314.03
-344.19
-372.59
-399.44
-426.37
-455.67
-489.61
-529.74
-576.56
-629.27
-685.78
-742.75
-796.12
-842.20
-879.13
-907.88
-932.26
-957.62
-988.58
-1026.76
-1069.93
-1112.31
-1146.23
-1163.88
-1158.53
-1124.81
-1058.36
-955.60
-813.97
-632.68
-413.38
-160.55
118.75
415.72
720.90
1024.95
1318.97
1594.60
1843.76
2058.99
2233.73
2362.92
2443.54
2474.99
2459.15
2399.99
2302.94
2174.02
2019.60
1845.96
1659.01
1464.31
1267.11
1072.25
884.00
705.81
539.79
387.31
248.88
124.26
12.76
-86.58
-174.75
-252.67
-319.29
-375.67
-423.18
-463.04
-496.19
-523.21
-544.31
-559.48
-568.53
-571.40
-568.44
-559.96
-546.41
-528.43
-506.81
-482.31
-455.56
-427.04
-397.17
-366.60
-335.81
-305.36
-275.87
-247.87
-221.66
-197.20
-174.13
-152.09
-131.00
-111.06
-92.87
-77.37
-65.47
-57.75
-54.18
-53.32
-53.74
-54.39
-54.87
-55.67
-57.89
-62.80
-71.11
-82.61
-96.22
-110.31
-123.35
-134.31
-143.16
-150.97
-160.15
-174.09
-196.23
-228.46
-269.29
-312.92
-350.23
-371.84
-371.90
-350.81
-315.16
-275.02
-239.49
-213.25
-195.33
-180.60
-162.79
-137.07
-101.46
-56.92
-6.75
44.20
90.21
126.14
149.08
159.53
161.40
160.30
160.75
163.85
166.41
162.71
147.55
119.28
81.54
42.60
12.90
1.69
13.97
48.39
97.47
149.46
191.67
213.82
210.56
182.30
134.38
75.30
14.55
-39.16
-79.22
-102.13
-107.95
-99.65
-82.02
-59.77
-35.97
-11.56
14.12
41.90
71.38
100.35
125.12
141.33
144.85
132.47
102.41
55.35
-4.53
-68.54
-124.24
-158.15
-160.55
-129.99
-75.47
-14.24
34.19
55.27
44.78
9.47
-36.67
-78.66
-105.92
-114.84
-108.19
-91.92
-72.32
-53.84
-38.53
-26.57
-17.45
-10.89
-7.45
-8.83
-17.30
-34.50
-60.27
-91.73
-123.42
-148.85
-162.28
-160.30
-142.30
-109.59
-64.31
-8.66
54.40
119.90
180.32
226.57
251.00
250.60
228.79
194.39
158.25
129.13
110.81
102.02
98.27
94.64
87.95
77.54
64.76
51.87
40.87
32.79
27.42
23.35
18.24
9.59
-4.83
-26.12
-53.33
-83.09
-109.71
-126.51
-127.59
-110.01
-75.06
-28.40
21.38
65.13
95.80
110.31
109.97
99.63
85.79
74.58
70.34
75.02
88.57
109.52
135.80
165.19
195.39
224.13
249.37
269.66
284.62
294.83
301.35
305.29
307.18
306.67
302.86
294.65
281.31
262.71
239.44
212.47
182.82
151.20
117.97
83.23
47.05
9.74
-28.01
-65.16
-100.55
-133.17
-162.41
-188.49
-212.20
-234.54
-255.97
-275.82
-292.39
-303.64
-308.08
-305.55
-297.19
-284.78
-269.93
-253.47
-235.65
-216.66
-197.07
-177.73
-159.37
-142.29
-126.44
-111.92
-99.31
-89.52
-83.12
-79.48
-76.81
-72.80
-65.81
-55.58
-43.31
-30.90
-19.71
-10.23
-2.13
4.96
10.79
14.49
15.09
12.34
7.34
2.55
1.05
5.66
17.86
37.17
61.05
85.19
104.45
113.94
110.41
93.09
64.37
29.48
-4.47
-30.69
-45.01
-47.54
-43.09
-39.08
-42.35
-55.84
-77.30
-100.26
-116.84
-121.23
-112.18
-93.63
-73.36
-60.38
-61.79
-80.37
-113.55
-154.19
-193.19
-222.74
-239.11
-243.43
-240.11
-234.02
-227.83
-221.33
-212.57
-200.05
-184.36
-168.11
-154.13
-143.77
-135.57
-125.30
-107.90
-79.37
-39.05
9.73
60.41
105.34
138.35
156.37
159.65
150.44
131.91
107.40
80.92
56.92
39.48
30.17
26.48
22.28
10.68
-11.77
-42.26
-72.20
-91.16
-92.16
-75.21
-46.97
-17.11
6.39
20.46
26.93
30.29
34.74
42.07
51.77
62.19
72.02
81.26
90.78
101.39
112.73
123.08
130.09
132.11
129.42
124.78
122.44
126.78
140.68
164.45
195.87
231.06
265.80
296.85
322.52
342.59
357.62
368.15
374.11
374.71
368.85
355.85
335.88
310.22
280.93
250.34
220.29
191.79
164.81
138.57
111.98
84.18
54.91
24.60
-5.81
-35.19
-62.70
-88.01
-111.61
-134.91
-160.01
-189.01
-222.85
-260.36
-297.76
-329.48
-349.93
-355.64
-346.76
-327.12
-302.90
-280.20
-263.12
-252.58
-246.49
-240.90
-231.80
-216.76
-195.65
-170.80
-146.49
-128.04
-120.36
-126.24
-144.82
-170.91
-195.84
-209.64
-204.33
-176.73
-129.75
-71.54
-12.62
37.32
72.08
89.75
92.06
82.84
66.62
47.87
30.55
17.87
11.57
11.90
17.44
25.57
33.26
37.85
37.94
33.60
26.30
18.45
12.75
11.31
15.14
23.65
34.95
46.67
57.05
65.77
74.10
84.11
97.41
114.02
132.06
148.61
161.13
168.65
172.21
174.09
176.52
180.75
186.85
194.48
203.36
213.35
223.46
230.86
230.87
217.96
187.80
139.17
74.92
1.60
-72.10
-137.35
-187.08
-217.53
-228.87
-225.05
-212.50
-197.95
-186.36
-179.52
-175.95
-172.09
-163.89
-147.91
-122.40
-87.96
-48.51
-11.67
12.59
15.35
-7.43
-52.15
-108.27
-162.34
-203.36
-226.88
-235.36
-234.98
-231.31
-226.12
-217.13
-200.24
-172.42
-132.90
-83.00
-25.02
38.38
103.71
165.93
218.60
255.42
272.32
269.39
251.19
224.67
196.86
172.51
153.22
138.40
126.68
116.88
108.55
101.35
94.60
87.26
78.22
66.88
53.66
40.02
28.14
20.20
17.49
19.64
24.50
28.38
27.62
20.13
6.23
-11.49
-29.84
-46.48
-60.46
-71.59
-79.48
-83.19
-81.79
-75.72
-67.26
-59.72
-56.14
-57.43
-61.98
-66.57
-67.91
-64.10
-55.12
-42.37
-27.93
-13.85
-1.78
7.28
13.43
18.00
23.20
31.03
42.06
54.40
63.87
65.47
55.65
34.36
5.81
-23.03
-44.67
-54.17
-51.11
-39.55
-26.26
-17.91
-18.74
-29.01
-45.48
-62.65
-74.59
-76.72
-66.83
-45.74
-17.14
13.32
39.38
55.72
59.15
48.98
27.28
-1.46
-31.16
-55.30
-68.75
-69.19
-58.03
-39.82
-20.41
-4.75
5.08
9.80
11.87
13.80
16.77
20.39
23.51
25.21
25.15
23.60
20.99
17.70
14.21
11.22
9.47
9.35
10.48
11.62
11.04
7.26
-0.06
-9.78
-19.60
-26.99
-30.24
-28.99
-24.14
-17.17
-9.37
-1.25
7.18
16.13
25.47
34.93
44.37
54.24
65.66
79.94
97.92
119.34
142.73
165.61
185.21
198.93
204.74
201.30
187.76
164.01
131.17
92.13
51.48
14.46
-14.73
-34.67
-47.05
-55.63
-64.05
-73.94
-84.26
-92.46
-96.37
-95.74
-92.33
-88.66
-86.43
-85.61
-84.74
-82.04
-76.67
-69.08
-60.80
-53.51
-48.26
-45.13
-43.33
-41.81
-39.78
-36.98
-33.63
-30.21
-27.09
-24.30
-21.67
-19.01
-16.25
-13.72
-12.00
-11.60
-12.77
-15.27
-18.59
-22.12
-25.41
-28.30
-30.83
-33.18
-35.38
-37.41
-39.28
-41.09
-42.99
-45.19
-47.77
-50.74
-54.03
-57.47
-60.80
-63.63
-65.56
-66.20
-65.23
-62.44
-57.56
-50.15
-39.63
-25.47
-7.50
13.83
37.55
62.44
86.88
108.64
124.83
132.46
129.82
117.94
101.39
87.35
82.99
92.54
115.54
147.21
180.66
209.47
229.36
238.55
237.14
226.36
208.44
186.45
163.90
143.59
126.49
110.56
92.73
70.94
45.66
19.88
-2.56
-19.19
-30.17
-37.87
-46.43
-58.94
-76.74
-99.78
-127.71
-161.20
-201.93
-251.76
-305.04
-355.83
-397.80
-425.84
-437.44
-432.82
-414.97
-388.13
-356.22
-322.00
-287.97
-255.74
-226.56
-201.61
-181.27
-165.86
-155.29
-148.42
-142.96
-136.38
-125.50
-106.90
-80.65
-43.79
6.47
72.09
153.95
251.66
362.75
483.36
608.41
731.95
848.48
952.08
1037.20
1099.25
1134.90
1142.19
1120.65
1071.18
993.90
892.66
772.98
641.48
505.02
369.94
241.46
123.28
17.57
-74.88
-153.85
-220.37
-276.41
-324.37
-366.77
-405.82
-443.65
-482.15
-522.98
-566.98
-615.06
-668.08
-726.78
-791.66
-862.45
-938.50
-1018.62
-1101.01
-1182.85
-1260.81
-1331.07
-1389.59
-1434.54
-1463.17
-1473.17
-1463.24
-1433.67
-1386.11
-1323.58
-1250.24
-1170.77
-1089.88
-1011.39
-938.25
-872.06
-813.12
-759.78
-708.65
-654.91
-592.72
-515.82
-418.01
-294.21
-141.04
42.06
253.43
489.27
743.22
1007.09
1271.39
1526.30
1762.26
1970.62
2143.35
2274.48
2360.45
2399.80
2392.89
2341.59
2248.95
2118.93
1961.24
1782.64
1588.66
1383.82
1172.49
959.13
748.65
546.43
358.31
190.08
46.22
-69.19
-152.94
-202.83
-218.31
-200.71
-153.14
-80.13
12.59
117.93
228.97
339.45
444.26
539.34
621.69
687.50
734.40
761.02
766.49
750.83
713.55
655.75
579.60
487.97
384.34
272.68
156.76
39.64
-76.21
-188.95
-297.24
-400.48
-498.73
-592.48
-682.24
-768.56
-852.09
-933.26
-1012.10
-1088.01
-1159.85
-1225.94
-1284.85
-1334.15
-1371.12
-1393.20
-1398.40
-1385.61
-1354.70
-1306.49
-1242.29
-1163.63
-1071.56
-966.74
-849.41
-720.11
-579.83
-430.56
-275.69
-120.06
30.54
169.96
292.22
392.06
465.46
509.72
523.66
507.90
465.23
400.71
321.54
236.21
153.34
80.06
20.78
-23.45
-54.45
-75.88
-91.39
-103.20
-111.56
-115.45
-113.78
-106.71
-96.62
-87.50
-83.41
-87.00
-98.17
-114.18
-130.42
-141.89
-144.89
-137.64
-121.57
-101.95
-88.12
-91.56
-122.18
-183.75
-270.90
-369.47
-460.46
-526.88
-560.24
-563.23
-548.06
-530.83
-525.37
-538.57
-569.38
-611.95
-659.10
-704.95
-746.39
-781.91
-810.08
-828.14
-832.14
-817.99
-782.55
-724.33
-642.86
-537.01
-404.48
-241.84
-46.03
183.82
444.58
728.47
1023.93
1317.46
1595.95
1848.25
2065.98
2243.56
2377.20
2464.27
2502.87
2492.34
2433.50
2329.00
2184.25
2006.69
1804.78
1587.30
1362.38
1136.87
916.23
704.46
504.77
319.74
151.37
1.08
-130.26
-242.48
-335.94
-411.49
-470.43
-513.99
-543.39
-560.09
-565.75
-562.36
-552.43
-538.71
-523.05
-508.56
-498.08
-493.55
-495.71
-503.80
-515.77
-528.36
-537.68
-539.83
-531.75
-511.43
-478.48
-434.33
-381.97
-325.45
-269.19
-217.19
-172.45
-136.72
-109.96
-90.74
-76.60
-64.57
-51.89
-36.46
-17.01
6.61
33.53
62.32
91.02
117.74
140.96
159.74
173.61
182.70
187.50
188.81
187.41
183.90
178.67
171.88
164.22
155.97
147.58
139.49
132.14
125.94
121.27
118.58
118.49
121.86
129.07
140.50
156.34
176.14
198.60
221.53
242.17
257.52
265.08
262.38
248.00
221.52
183.29
133.96
74.35
5.48
-71.01
-152.59
-237.13
-321.98
-404.64
-483.41
-557.84
-628.80
-697.91
-767.13
-830.01
-881.86
-918.45
-935.52
-928.42
-892.18
-822.69
-719.01
-585.34
-431.17
-270.85
-118.37
16.23
128.45
218.40
289.03
343.73
384.92
414.44
433.11
442.69
445.43
443.27
437.08
426.54
410.61
388.12
358.65
322.16
279.45
231.57
179.06
121.55
57.78
-13.67
-94.00
-183.53
-281.57
-385.91
-493.15
-599.02
-698.76
-788.69
-864.38
-921.41
-955.84
-964.87
-947.23
-903.58
-836.61
-750.78
-651.68
-545.15
-436.78
-331.31
-232.27
-141.93
-61.37
9.19
70.15
122.23
166.43
203.70
234.87
260.68
281.64
298.18
310.69
319.56
325.16
327.98
328.41
326.78
323.33
318.28
311.78
304.02
295.15
285.36
274.86
263.84
252.47
240.87
229.10
217.28
205.47
193.76
182.20
170.88
159.85
149.18
138.91
129.04
119.61
110.61
102.06
93.97
86.33
79.18
72.52
66.36
60.70
55.53
50.82
46.54
42.66
39.15
35.96
33.07
30.44
28.05
25.88
23.91
22.09
20.42
18.86
17.41
16.07
14.86
13.78
12.86
12.08
11.41
10.80
10.20
9.61
9.03
8.48
8.00
7.62
7.31
7.04
6.74
6.40
5.99
5.56
5.20
4.97
4.93
5.03
5.18
5.24
5.11
4.75
4.29
3.91
3.85
4.22
4.97
5.86
6.56
6.80
6.54
5.98
5.58
5.76
6.79
8.55
10.59
12.31
13.21
13.21
12.67
12.29
12.82
14.65
17.60
21.04
24.10
26.11
26.85
26.67
26.30
26.71
28.94
34.05
42.86
55.42
70.47
85.20
95.73
98.38
91.14
74.60
51.83
27.08
4.13
-14.93
-29.76
-40.84
-48.36
-51.72
-50.04
-43.28
-32.95
-21.92
-13.26
-8.86
-8.74
-11.28
-14.33
-16.27
-16.70
-16.24
-15.90
-16.50
-18.30
-20.97
-23.74
-25.60
-25.61
-23.27
-19.00
-14.12
-10.55
-9.92
-12.63
-17.47
-22.12
-24.20
-22.46
-17.13
-9.56
-1.32
6.52
13.54
19.55
24.11
26.43
25.80
22.19
16.60
10.66
5.87
2.74
0.70
-1.14
-3.07
-4.08
-2.36
3.55
13.39
24.66
33.36
35.66
29.73
16.73
0.26
-15.19
-26.16
-31.33
-31.51
-28.60
-24.41
-19.72
-14.29
-7.49
0.89
10.08
18.34
23.49
23.82
18.84
9.63
-1.52
-11.93
-19.57
-23.83
-25.34
-25.28
-24.16
-21.31
-15.13
-4.39
10.38
26.39
39.25
44.92
41.48
30.15
14.56
-0.96
-13.23
-21.04
-24.76
-25.22
-22.80
-17.33
-8.93
1.20
10.54
16.19
16.17
10.79
2.70
-4.37
-7.19
-4.72
1.73
8.98
13.49
12.55
4.93
-8.76
-25.89
-41.81
-50.41
-46.11
-26.54
5.18
40.47
68.18
79.30
70.68
45.93
12.82
-20.63
-49.12
-70.77
-85.37
-92.04
-88.15
-70.25
-36.63
10.24
63.10
111.35
143.83
152.12
132.68
88.10
26.46
-40.55
-100.15
-141.49
-157.53
-146.21
-110.40
-57.06
3.85
60.79
102.39
119.64
108.42
71.47
18.71
-34.90
-74.06
-88.56
-76.92
-46.49
-9.62
21.75
40.39
45.05
38.76
25.92
10.36
-4.85
-16.74
-22.25
-19.01
-6.90
11.14
29.86
43.76
49.12
45.42
34.99
21.55
8.63
-1.46
-7.86
-10.65
-10.38
-7.78
-3.72
0.65
4.01
5.30
4.24
1.83
0.13
1.53
7.61
18.18
31.11
43.11
50.88
52.26
46.65
34.83
18.23
-1.63
-23.31
-45.12
-64.77
-79.39
-86.10
-83.11
-70.87
-52.35
-32.51
-16.60
-8.32
-8.64
-15.91
-27.18
-39.70
-51.61
-61.56
-67.52
-66.33
-54.58
-30.84
2.34
38.32
68.54
86.11
88.73
79.17
63.39
47.15
33.57
22.67
12.98
3.55
-4.87
-10.39
-11.60
-8.90
-4.65
-1.93
-2.79
-7.07
-12.64
-16.50
-16.40
-11.81
-4.02
4.66
11.99
16.75
18.84
18.94
17.90
16.22
13.96
11.01
7.48
3.95
1.52
1.19
3.42
7.63
12.25
15.27
15.20
11.70
5.76
-0.80
-6.21
-9.44
-10.58
-10.70
-11.47
-14.62
-21.12
-30.38
-39.73
-44.96
-41.82
-28.27
-6.12
18.99
39.67
49.90
47.77
36.21
21.21
8.90
2.75
2.50
5.08
6.61
4.28
-2.84
-13.63
-25.51
-34.77
-37.28
-29.61
-10.46
18.23
50.81
79.24
95.53
94.37
75.06
41.74
1.99
-35.45
-63.03
-76.16
-73.94
-58.80
-35.52
-9.80
12.98
28.72
35.19
31.95
20.12
1.96
-19.82
-42.52
-63.58
-80.49
-90.46
-90.49
-78.39
-54.06
-20.69
15.39
46.43
66.24
72.50
67.44
56.23
44.01
33.59
24.89
16.32
6.86
-2.73
-10.34
-14.02
-13.51
-10.47
-7.47
-6.44
-7.56
-9.33
-9.54
-6.76
-1.07
5.88
11.72
14.40
12.96
7.83
0.57
-6.71
-12.14
-14.75
-14.64
-12.78
-10.30
-7.93
-5.68
-3.07
0.34
4.48
8.64
11.73
12.87
11.75
8.76
4.80
0.77
-2.74
-5.55
-7.72
-9.26
-9.93
-9.25
-6.87
-2.85
2.06
6.61
9.59
10.33
9.14
7.18
5.83
6.04
7.66
9.56
10.13
8.20
3.83
-1.60
-5.99
-7.68
-6.35
-3.21
-0.32
0.66
-0.61
-3.01
-4.80
-4.72
-2.86
-0.50
0.74
0.01
-2.22
-4.43
-5.06
-3.50
-0.43
2.55
3.89
2.93
0.32
-2.46
-3.85
-3.08
-0.57
2.35
4.15
4.01
2.17
-0.15
-1.49
-0.90
1.53
4.73
7.26
7.98
6.58
3.55
-0.13
-3.55
-6.19
-7.94
-8.88
-9.00
-8.17
-6.28
-3.50
-0.54
1.59
1.89
-0.03
-3.75
-8.08
-11.56
-13.13
-12.52
-10.36
-7.79
-5.77
-4.74
-4.40
-4.07
-3.15
-1.45
0.76
3.06
5.23
7.45
10.16
13.68
17.78
21.65
24.09
24.08
21.29
16.26
10.23
4.70
0.80
-1.04
-1.16
-0.42
0.31
0.49
0.13
-0.27
-0.21
0.52
1.55
2.09
1.36
-0.93
-4.28
-7.52
-9.47
-9.49
-7.87
-5.71
-4.32
-4.56
-6.39
-9.00
-11.26
-12.36
-12.09
-10.78
-8.97
-7.10
-5.30
-3.54
-1.86
-0.44
0.41
0.38
-0.62
-2.43
-4.65
-6.85
-8.63
-9.72
-10.01
-9.54
-8.50
-7.12
-5.64
-4.22
-3.00
-2.12
-1.80
-2.31
-3.68
-5.50
-6.73
-6.00
-2.20
4.79
13.73
22.33
28.12
29.59
26.97
22.03
17.21
14.29
13.53
13.69
12.96
10.19
5.71
1.18
-1.48
-1.17
1.69
5.50
8.50
9.78
9.56
8.87
8.64
9.06
9.63
9.57
8.57
6.95
5.38
4.31
3.53
2.15
-0.78
-5.60
-11.64
-17.33
-20.87
-21.06
-17.82
-12.23
-5.85
0.07
5.20
10.10
15.56
21.62
26.92
28.96
25.01
13.54
-4.66
-26.29
-46.36
-59.82
-63.33
-56.50
-42.17
-25.40
-11.86
-5.76
-8.43
-17.78
-29.23
-37.14
-36.79
-25.75
-4.42
24.06
53.99
77.95
88.13
78.73
48.91
4.79
-40.88
-72.57
-78.10
-54.69
-11.07
35.66
67.58
73.96
55.56
22.98
-9.44
-30.68
-37.14
-31.88
-20.86
-8.73
2.97
14.59
25.96
34.88
37.54
30.97
15.44
-4.94
-23.67
-34.45
-34.10
-23.59
-7.55
7.83
17.28
18.40
12.13
1.86
-8.26
-15.17
-17.85
-17.13
-14.67
-11.70
-8.41
-4.24
1.24
7.55
13.07
15.69
13.87
7.67
-1.00
-8.90
-12.73
-10.60
-2.79
8.25
18.86
25.70
26.91
22.67
14.83
5.91
-1.91
-7.34
-10.08
-10.33
-8.55
-5.32
-1.45
1.90
3.51
2.39
-1.79
-8.43
-16.24
-23.56
-28.75
-30.82
-29.70
-26.24
-21.74
-17.18
-12.72
-7.67
-1.14
7.06
16.04
24.12
29.77
32.42
32.65
31.34
28.78
24.17
16.36
5.17
-7.36
-17.16
-19.72
-12.35
4.07
25.01
43.78
54.09
52.24
38.57
16.99
-6.48
-25.90
-37.34
-39.76
-34.79
-25.57
-15.28
-6.20
0.65
5.16
7.53
7.94
6.62
4.05
1.20
-0.71
-0.76
1.19
4.44
7.90
10.69
12.62
14.32
17.06
22.26
30.90
42.84
56.39
68.50
75.33
73.57
61.61
40.19
12.12
-18.79
-49.13
-76.53
-99.55
-117.13
-128.10
-131.39
-126.93
-116.33
-102.79
-89.75
-79.15
-70.04
-58.64
-40.10
-11.37
26.21
66.39
99.87
118.24
117.70
100.80
75.12
49.53
30.31
18.83
12.40
6.95
0.02
-7.90
-14.18
-16.20
-13.24
-6.97
-0.33
4.27
6.02
5.75
5.05
5.08
5.91
6.64
6.09
3.61
-0.42
-4.69
-7.60
-7.96
-5.57
-1.39
2.98
5.89
6.39
4.57
1.57
-0.94
-1.37
1.08
5.97
11.61
15.56
15.41
9.85
-0.69
-13.95
-26.46
-34.69
-36.39
-31.29
-21.13
-8.82
2.69
11.46
17.02
20.15
22.33
24.83
28.13
31.65
34.12
34.28
31.66
27.18
23.05
21.88
25.57
34.09
45.17
54.81
58.62
53.27
37.35
11.81
-20.37
-54.67
-85.81
-108.74
-119.79
-117.71
-104.16
-83.24
-60.05
-38.80
-21.47
-7.50
5.20
18.69
33.60
48.63
61.12
68.36
68.95
63.58
54.95
46.82
42.66
44.36
51.73
62.60
73.61
81.22
82.66
76.56
63.14
44.05
22.00
0.06
-19.03
-33.50
-42.85
-48.04
-51.04
-54.32
-60.13
-69.60
-82.03
-94.57
-102.94
-102.98
-92.59
-72.87
-47.72
-22.06
0.35
18.07
31.60
41.88
48.90
51.49
48.20
38.75
24.54
8.18
-7.76
-21.69
-33.08
-41.93
-48.07
-51.21
-51.59
-50.44
-49.55
-50.02
-51.03
-49.86
-43.23
-29.52
-10.32
10.00
26.39
35.83
38.72
38.12
37.53
38.59
40.29
40.35
37.50
33.01
30.48
33.67
44.02
59.30
74.24
82.73
80.35
65.81
40.85
9.10
-25.11
-57.42
-83.83
-100.80
-106.23
-100.41
-86.68
-70.53
-57.24
-48.95
-42.90
-32.63
-11.96
20.22
57.67
89.10
104.21
99.77
81.74
61.83
50.40
50.21
54.94
53.14
35.51
0.38
-45.30
-89.62
-121.18
-133.06
-123.85
-96.18
-54.83
-6.02
42.77
83.26
107.56
110.51
91.42
54.80
9.20
-35.64
-71.95
-96.09
-108.85
-113.84
-114.92
-114.00
-110.28
-101.25
-84.39
-58.85
-25.97
10.99
47.79
79.72
102.01
110.47
102.42
78.00
40.90
-2.14
-43.44
-76.68
-98.65
-109.75
-112.72
-111.10
-107.95
-105.24
-104.12
-105.42
-109.75
-117.44
-128.38
-141.95
-157.48
-175.03
-195.60
-220.86
-252.07
-288.78
-328.43
-367.11
-401.37
-430.34
-456.73
-485.81
-522.95
-571.11
-629.22
-693.17
-758.23
-821.42
-882.68
-944.16
-1007.88
-1074.31
-1142.35
-1210.65
-1278.94
-1347.16
-1413.31
-1471.77
-1513.47
-1528.50
-1509.55
-1453.65
-1361.29
-1234.00
-1070.38
-865.26
-611.82
-305.47
53.25
457.96
898.34
1362.08
1835.00
2301.78
2745.59
3147.58
3487.99
3748.37
3913.86
3975.75
3938.94
3813.68
3614.24
3356.52
3056.16
2727.38
2383.01
2034.56
1692.73
1366.83
1063.33
786.61
538.95
320.79
131.27
-31.06
-169.61
-286.62
-383.83
-463.51
-527.93
-579.36
-619.97
-651.72
-676.07
-694.17
-706.51
-713.46
-715.82
-714.28
-709.35
-701.38
-690.57
-677.21
-661.90
-645.32
-628.39
-612.17
-597.25
-583.55
-570.38
-556.87
-542.52
-527.64
-513.20
-500.66
-491.36
-485.80
-483.38
-482.75
-482.24
-480.77
-478.13
-474.99
-472.67
-472.98
-478.03
-489.79
-509.09
-534.32
-560.67
-580.67
-586.43
-572.71
-539.29
-491.26
-437.10
-385.28
-341.34
-306.88
-280.51
-259.84
-243.16
-229.81
-219.51
-211.43
-203.84
-194.57
-182.07
-166.05
-147.57
-128.60
-111.04
-95.95
-83.25
-71.85
-60.25
-47.27
-32.53
-16.62
-0.78
13.68
25.87
35.73
44.01
52.00
61.01
71.89
84.69
98.66
112.57
125.22
135.85
144.52
152.06
159.72
168.67
179.47
191.78
204.60
216.84
227.68
236.92
245.02
252.70
260.66
269.50
280.10
293.81
311.96
334.14
356.98
374.39
379.54
367.23
336.26
289.44
231.85
168.21
101.94
35.95
-25.80
-77.47
-112.68
-127.17
-121.32
-100.67
-73.86
-49.44
-32.77
-24.99
-23.66
-24.43
-22.70
-15.04
0.27
22.84
49.99
77.08
98.46
109.27
107.43
94.92
77.04
61.03
54.15
61.41
84.81
123.47
175.36
238.18
309.91
387.92
468.58
547.66
621.02
686.05
742.37
791.60
836.06
877.34
915.03
945.87
965.27
968.03
949.58
906.73
838.45
746.00
632.81
503.61
363.51
217.56
70.29
-74.09
-212.11
-341.43
-461.24
-571.68
-672.21
-760.15
-829.96
-874.91
-889.75
-873.97
-833.04
-776.89
-716.37
-659.55
-609.72
-565.86
-525.03
-484.72
-444.23
-404.40
-366.64
-332.23
-302.55
-279.41
-264.87
-260.57
-266.13
-278.51
-292.46
-302.53
-305.24
-300.36
-290.65
-280.02
-271.54
-266.25
-263.60
-262.80
-264.06
-268.85
-279.20
-296.46
-320.41
-349.26
-380.44
-411.63
-441.41
-469.51
-496.72
-524.64
-555.71
-592.69
-637.89
-691.94
-752.98
-816.53
-876.06
-924.09
-953.50
-958.29
-933.82
-876.95
-785.98
-660.98
-504.39
-321.34
-118.98
94.21
309.50
518.48
713.40
887.22
1034.00
1149.06
1229.11
1272.76
1281.03
1257.50
1207.97
1139.66
1060.02
975.84
892.58
814.22
743.50
681.98
630.88
590.90
561.57
541.28
527.27
516.25
505.10
491.35
473.02
448.08
413.84
367.15
306.09
231.50
147.84
61.71
-20.79
-96.75
-167.30
-236.03
-306.24
-378.73
-451.36
-520.49
-582.42
-633.91
-671.22
-689.09
-680.91
-640.71
-566.57
-463.05
-341.22
-215.87
-101.04
-5.82
67.42
122.10
164.07
197.72
223.70
239.13
239.81
223.34
191.73
151.01
109.41
73.97
47.87
29.53
13.89
-4.86
-30.14
-61.13
-92.90
-118.15
-130.31
-126.16
-106.73
-76.55
-41.66
-7.37
23.26
49.78
74.08
99.29
128.56
163.91
205.07
248.95
289.91
321.02
335.61
328.84
298.43
244.14
167.45
71.37
-39.20
-156.95
-272.18
-373.85
-451.43
-497.42
-509.63
-491.78
-452.58
-402.73
-351.39
-303.44
-258.31
-211.18
-155.55
-85.95
0.04
101.29
213.64
330.91
445.83
550.81
638.44
702.21
737.13
740.15
710.32
648.49
556.95
438.74
297.20
135.83
-41.27
-228.35
-417.60
-599.45
-764.14
-904.15
-1016.11
-1101.16
-1163.48
-1207.71
-1236.46
-1248.90
-1240.65
-1205.48
-1137.10
-1031.15
-887.49
-712.26
-518.60
-325.46
-153.51
-19.50
68.74
114.20
128.61
126.74
120.24
114.62
109.57
102.37
91.60
79.20
69.53
67.26
75.14
93.24
119.97
153.88
194.58
242.38
296.60
353.98
408.51
453.26
483.56
499.06
503.49
502.27
499.60
496.30
490.19
478.28
459.35
434.87
407.96
380.79
352.81
321.05
282.17
235.30
183.52
132.81
89.43
57.20
36.18
23.18
13.85
4.44
-6.99
-20.59
-35.19
-48.65
-58.23
-60.82
-53.56
-34.74
-4.79
33.23
74.09
111.83
141.79
162.15
173.90
179.32
179.94
175.23
163.33
143.18
116.56
88.33
64.52
49.19
42.29
40.03
37.22
30.16
18.21
3.19
-12.52
-27.70
-42.48
-57.59
-72.91
-86.85
-97.01
-101.24
-98.77
-90.31
-77.40
-61.44
-42.85
-21.01
4.90
34.68
66.11
94.92
115.86
124.72
119.81
102.50
76.12
44.31
9.64
-26.73
-64.47
-103.26
-142.15
-179.56
-213.49
-241.60
-261.42
-270.53
-266.95
-249.92
-220.31
-180.24
-132.50
-79.73
-24.44
30.43
81.05
122.93
152.18
167.23
169.79
164.19
155.50
147.24
140.12
132.78
123.67
112.88
102.34
94.41
89.67
85.67
77.54
60.01
29.94
-12.54
-64.18
-119.63
-172.49
-216.03
-243.72
-250.20
-232.82
-192.97
-136.19
-70.54
-4.04
57.57
111.19
155.17
187.57
205.56
206.70
190.93
161.96
126.65
92.64
65.35
46.51
34.29
24.90
14.58
0.83
-17.26
-39.31
-64.01
-89.29
-112.38
-130.26
-140.39
-141.48
-133.89
-119.43
-100.56
-79.47
-57.34
-34.35
-10.16
15.19
40.74
64.47
83.81
96.75
102.69
102.74
99.21
94.63
90.71
87.83
85.15
81.10
74.09
62.74
46.00
23.19
-5.64
-39.20
-74.69
-108.22
-135.87
-155.00
-164.98
-166.84
-162.09
-151.31
-133.74
-108.08
-73.97
-33.36
9.41
48.75
79.90
100.72
112.12
117.21
119.65
121.94
124.58
126.13
124.11
116.15
101.12
79.50
53.29
25.42
-1.23
-24.46
-43.18
-57.38
-67.79
-75.38
-80.83
-84.06
-84.18
-80.03
-70.92
-57.39
-41.36
-25.66
-12.98
-4.91
-1.48
-1.71
-4.50
-9.26
-15.83
-23.66
-31.04
-35.10
-32.91
-23.14
-7.49
9.27
20.77
21.39
8.41
-16.77
-49.20
-82.10
-108.97
-125.36
-129.63
-122.82
-107.66
-87.43
-64.77
-41.06
-16.36
10.15
39.38
71.74
106.71
142.84
177.77
208.24
230.42
240.64
236.65
218.94
191.10
158.81
127.51
99.84
74.32
45.95
8.94
-39.79
-97.99
-157.60
-206.86
-234.27
-232.70
-202.22
-150.14
-88.49
-30.00
15.91
45.22
59.11
61.65
57.34
49.61
40.92
33.51
29.81
32.01
40.83
54.91
70.95
85.06
94.17
96.84
92.88
82.40
64.97
39.73
6.43
-33.18
-74.46
-110.55
-134.41
-141.38
-130.84
-106.19
-73.23
-37.81
-3.98
26.41
52.82
74.87
91.89
103.56
110.96
116.96
125.33
138.48
155.56
171.85
180.24
174.24
150.36
109.19
54.41
-8.97
-75.70
-140.29
-196.02
-234.83
-248.90
-233.89
-191.71
-131.22
-65.72
-8.33
32.36
54.52
61.97
61.05
57.41
54.44
53.74
56.42
63.91
77.27
95.66
115.07
128.81
129.57
112.40
76.87
27.27
-29.47
-87.05
-142.27
-195.22
-247.18
-297.71
-342.84
-375.66
-389.04
-378.88
-346.01
-295.92
-236.44
-175.02
-116.78
-64.01
-17.01
24.95
63.17
99.51
136.39
175.74
217.41
257.65
289.23
303.29
292.35
253.57
190.64
113.33
34.77
-32.07
-77.89
-98.94
-97.21
-79.07
-53.03
-27.42
-8.33
1.65
3.87
3.05
5.81
18.98
47.80
94.08
154.96
222.68
285.83
332.24
352.54
342.98
306.42
250.99
186.90
122.88
64.14
11.98
-34.94
-78.90
-121.93
-164.97
-207.48
-247.01
-278.96
-297.35
-296.57
-273.55
-229.31
-168.92
-99.49
-27.49
43.09
110.51
173.32
228.22
269.33
290.03
285.85
257.08
209.23
150.88
90.23
32.22
-22.29
-74.53
-124.95
-171.09
-207.77
-229.60
-234.31
-224.67
-207.68
-191.38
-180.82
-175.62
-170.17
-156.77
-129.50
-86.86
-32.16
28.17
86.73
136.82
172.90
190.60
187.17
162.19
117.97
59.33
-7.67
-77.11
-143.98
-204.12
-253.84
-289.81
-309.81
-313.35
-302.03
-278.96
-247.68
-211.12
-171.46
-130.46
-89.59
-50.03
-12.00
25.73
65.65
110.35
160.59
213.67
263.03
299.55
314.06
300.50
258.51
194.19
118.92
46.04
-12.91
-51.29
-68.31
-68.16
-57.43
-42.67
-28.79
-18.53
-13.16
-13.12
-18.31
-27.74
-38.82
-47.00
-46.66
-33.02
-4.42
36.02
80.62
119.06
141.57
142.16
120.51
81.71
34.19
-13.32
-54.22
-84.83
-103.76
-110.46
-104.49
-85.87
-56.28
-19.94
16.86
47.52
67.51
75.77
74.64
68.58
62.61
61.20
67.99
85.44
114.19
151.94
192.86
228.39
249.53
249.85
227.69
186.28
131.69
70.21
6.48
-56.28
-114.79
-164.43
-199.42
-215.02
-210.20
-188.93
-159.30
-130.44
-109.12
-97.65
-94.37
-95.63
-98.15
-100.08
-100.65
-99.17
-94.19
-83.78
-66.42
-42.18
-13.22
16.18
40.51
54.51
54.71
40.76
15.68
-14.88
-44.46
-67.74
-82.01
-87.41
-86.09
-80.81
-73.65
-65.37
-55.73
-44.29
-31.15
-17.10
-3.02
11.32
28.16
51.40
84.78
129.13
180.21
228.70
262.97
273.07
254.35
208.86
144.33
71.51
1.40
-56.70
-96.33
-114.41
-111.52
-91.72
-61.69
-28.94
-0.08
20.37
30.43
30.26
21.85
8.77
-3.98
-10.47
-4.96
16.50
54.44
105.04
160.32
209.58
241.95
249.55
229.86
186.41
127.62
63.64
2.83
-50.70
-97.52
-141.58
-187.79
-239.64
-297.40
-357.27
-411.84
-451.78
-468.95
-459.29
-424.67
-372.17
-311.29
-250.29
-193.64
-141.84
-93.13
-45.70
1.23
47.41
91.84
132.45
165.55
185.88
188.65
172.75
143.22
110.51
86.82
80.60
92.71
116.45
141.42
158.64
164.11
158.98
147.04
131.70
114.58
96.34
78.71
65.62
62.61
74.21
100.77
136.71
171.31
191.95
188.61
157.61
102.88
34.52
-34.92
-94.53
-137.73
-162.95
-172.23
-169.08
-156.80
-137.99
-114.76
-89.30
-63.98
-41.06
-21.96
-6.83
5.46
16.79
28.97
43.35
60.89
82.48
108.98
140.44
174.89
207.60
231.44
238.81
224.31
186.92
130.93
65.13
0.44
-52.94
-88.20
-103.50
-101.85
-89.55
-73.77
-60.04
-50.85
-45.83
-43.30
-42.14
-42.82
-46.94
-55.61
-68.19
-82.09
-93.81
-100.33
-99.77
-91.22
-74.59
-50.78
-22.53
4.89
24.11
27.59
10.41
-27.39
-80.33
-139.13
-193.89
-237.21
-265.76
-279.67
-280.82
-270.85
-250.51
-220.18
-181.18
-136.50
-90.39
-46.88
-7.84
28.28
66.00
110.45
164.06
223.92
281.28
323.70
339.33
321.73
272.99
203.84
130.23
67.85
26.79
9.01
9.24
18.69
29.47
37.35
42.05
45.34
48.50
50.97
50.61
45.16
33.92
18.60
2.53
-10.92
-19.55
-22.61
-20.11
-12.26
0.49
16.39
31.38
39.19
33.34
10.27
-28.17
-74.58
-118.66
-151.13
-166.98
-166.27
-152.53
-130.15
-102.56
-71.95
-40.31
-10.40
14.47
31.54
39.95
41.33
39.12
37.13
38.18
43.54
53.23
66.55
82.43
99.22
114.40
124.65
126.61
118.04
99.03
72.28
42.52
14.98
-6.22
-19.10
-23.93
-22.64
-17.78
-11.62
-5.82
-1.31
1.52
2.48
1.44
-1.62
-6.51
-12.62
-18.91
-24.21
-27.66
-28.85
-27.75
-24.40
-18.94
-11.94
-4.73
0.61
1.87
-2.21
-11.25
-23.28
-35.61
-46.08
-53.75
-58.77
-61.65
-62.54
-61.06
-56.98
-50.80
-43.81
-37.50
-32.31
-27.04
-19.30
-6.65
12.56
38.53
70.55
107.06
145.54
181.97
210.60
224.67
218.28
188.83
138.83
76.01
11.34
-44.16
-82.56
-100.78
-100.58
-87.02
-66.44
-44.68
-26.03
-12.88
-5.93
-4.62
-7.68
-13.46
-20.11
-26.05
-30.12
-31.87
-31.56
-29.92
-27.80
-26.14
-25.58
-26.37
-28.28
-30.66
-32.69
-33.85
-34.29
-34.95
-37.06
-41.43
-47.89
-55.14
-61.34
-65.03
-65.62
-63.54
-59.49
-53.92
-46.56
-36.76
-24.22
-9.51
6.06
20.95
34.23
46.16
58.19
72.30
89.80
110.03
129.63
143.04
144.19
128.99
97.50
54.71
9.13
-29.91
-55.44
-64.73
-59.46
-43.98
-23.43
-1.93
17.67
33.45
43.81
47.34
43.57
33.94
22.52
15.43
18.89
36.70
68.64
110.52
156.00
198.83
234.50
260.17
273.72
272.89
255.56
221.16
172.23
114.55
55.45
1.29
-44.93
-83.96
-119.08
-154.06
-191.90
-234.05
-280.43
-329.06
-375.78
-414.42
-437.92
-440.49
-419.86
-378.57
-323.05
-261.22
-199.45
-140.39
-83.09
-25.22
33.28
89.02
134.16
159.85
160.38
136.58
96.34
51.96
15.47
-5.77
-11.06
-5.32
4.53
12.90
17.44
18.55
17.70
16.10
14.57
14.65
19.22
32.12
56.31
91.62
133.58
174.40
205.91
222.92
225.09
216.09
200.94
182.98
162.48
137.40
105.48
66.09
20.46
-29.29
-81.50
-135.06
-188.61
-239.14
-281.61
-309.85
-318.41
-304.64
-269.92
-219.51
-161.60
-105.60
-59.99
-29.99
-15.73
-11.90
-9.21
2.28
29.22
72.02
124.20
174.45
210.37
222.26
205.98
163.95
104.45
39.59
-17.99
-58.26
-76.15
-72.16
-51.09
-19.78
15.27
49.02
77.90
99.22
110.73
111.10
100.68
82.12
60.09
39.64
24.57
16.25
13.77
14.95
17.31
18.44
15.85
6.87
-10.84
-38.14
-73.43
-112.56
-150.02
-180.90
-202.56
-214.96
-219.86
-219.48
-215.42
-208.37
-198.42
-185.39
-168.95
-148.35
-122.51
-90.47
-52.12
-8.60
38.01
85.74
133.84
182.98
234.17
286.82
337.28
378.85
403.63
405.46
382.27
336.81
275.63
206.86
138.25
76.18
25.57
-10.02
-28.85
-31.89
-23.18
-9.17
3.35
9.60
8.38
1.92
-5.65
-10.30
-9.82
-4.52
3.17
9.70
11.75
7.56
-2.37
-15.27
-26.89
-32.84
-30.23
-18.90
-1.99
14.63
23.95
20.02
0.13
-33.91
-76.22
-118.93
-155.10
-180.83
-195.98
-202.96
-204.84
-203.74
-200.59
-195.86
-190.17
-184.50
-179.23
-173.14
-163.17
-145.19
-115.29
-71.20
-13.24
55.21
127.36
193.36
241.79
262.52
250.46
208.42
147.29
83.00
31.11
1.58
-3.89
9.09
31.39
54.64
73.94
88.15
98.32
105.59
110.14
111.31
108.40
101.57
92.33
82.95
75.72
72.48
74.44
82.23
95.57
112.72
130.03
142.19
143.70
130.79
103.16
64.06
18.80
-27.68
-72.99
-117.77
-164.60
-215.70
-270.76
-326.02
-374.97
-410.40
-426.85
-422.35
-398.65
-360.53
-313.73
-262.91
-210.82
-158.22
-104.73
-49.70
6.92
63.94
118.07
163.67
193.50
201.15
184.38
147.43
100.79
57.55
28.32
17.24
21.24
33.01
45.35
54.44
60.07
63.29
64.25
61.60
54.26
43.86
35.44
35.48
48.69
75.21
110.52
147.74
180.40
204.27
217.29
218.36
206.54
181.33
143.60
96.06
42.61
-13.11
-68.53
-121.81
-170.44
-210.35
-236.58
-245.16
-235.18
-209.37
-173.03
-131.88
-90.42
-51.64
-17.29
11.60
34.78
53.28
69.65
87.03
107.44
129.84
149.46
159.19
152.46
126.61
84.90
36.07
-8.68
-39.89
-53.27
-50.96
-39.79
-27.69
-20.24
-18.91
-21.73
-25.46
-27.96
-29.04
-29.91
-31.78
-34.56
-36.77
-36.39
-32.24
-24.73
-15.49
-6.18
2.48
10.96
19.85
28.64
35.20
36.54
30.49
17.04
-1.49
-21.55
-39.98
-55.01
-66.30
-73.90
-77.44
-76.01
-69.10
-57.48
-43.62
-31.04
-22.74
-19.78
-20.45
-20.46
-14.18
3.70
35.97
81.21
133.29
182.25
216.83
227.82
211.07
169.07
110.52
47.84
-6.62
-44.00
-61.14
-60.46
-48.05
-30.85
-14.23
-0.84
8.91
15.60
19.84
22.04
22.48
22.02
22.10
24.07
28.42
34.74
42.40
51.43
62.65
76.69
92.35
105.81
111.27
103.14
78.48
38.28
-12.90
-68.64
-122.58
-169.54
-205.78
-229.01
-238.40
-234.81
-220.79
-200.02
-176.30
-152.53
-130.40
-110.86
-94.51
-81.49
-71.03
-60.85
-47.17
-25.74
6.37
48.82
96.77
141.38
172.31
181.39
166.17
131.46
87.89
47.96
21.36
11.73
16.39
28.78
42.05
51.80
56.91
58.51
58.22
56.98
54.89
51.95
48.43
45.18
43.39
43.91
47.01
52.37
59.51
68.16
78.11
88.53
97.37
101.28
96.35
79.57
49.93
8.90
-40.10
-92.64
-144.10
-190.20
-227.23
-252.54
-265.01
-265.38
-255.89
-239.03
-216.31
-187.83
-153.22
-113.47
-72.17
-34.90
-6.91
9.96
18.91
26.68
39.56
59.06
80.06
92.99
89.11
65.85
29.04
-9.54
-37.82
-49.10
-44.71
-32.13
-20.34
-15.22
-17.43
-23.69
-29.85
-33.66
-35.37
-36.56
-38.43
-40.59
-41.32
-38.75
-31.99
-21.50
-8.21
7.55
26.46
49.24
74.84
99.06
115.01
115.58
96.91
60.88
14.96
-30.72
-67.36
-90.65
-101.23
-103.01
-100.22
-95.53
-89.75
-83.15
-76.47
-70.93
-67.08
-63.70
-57.70
-45.51
-25.16
2.42
33.81
64.67
91.48
112.27
126.04
131.86
128.51
115.29
93.35
66.31
39.57
18.25
5.11
-0.34
-1.01
-0.20
0.10
-0.24
-0.09
1.79
5.96
12.39
20.89
31.20
42.94
55.46
68.14
81.12
95.60
113.40
135.74
161.68
187.57
207.85
216.89
211.02
189.56
154.47
109.34
58.25
5.37
-45.09
-88.87
-122.41
-143.61
-152.66
-151.96
-145.18
-136.12
-127.64
-121.33
-117.54
-115.89
-115.76
-116.51
-117.54
-117.97
-116.37
-110.98
-100.46
-84.95
-67.10
-51.65
-44.21
-49.14
-67.48
-96.29
-129.62
-160.64
-183.98
-197.18
-200.80
-197.20
-189.11
-178.40
-165.68
-150.35
-131.60
-108.68
-81.67
-51.57
-19.64
13.36
47.67
84.35
124.20
166.29
207.21
241.36
262.65
266.64
252.13
221.49
179.65
132.59
85.88
43.89
9.46
-15.88
-31.69
-38.69
-38.50
-33.49
-26.11
-18.13
-9.91
-0.26
13.23
33.32
61.39
96.59
135.24
171.51
198.95
212.52
209.97
192.34
163.51
128.88
94.18
64.31
42.59
30.45
27.49
31.90
41.09
52.46
63.91
74.09
82.29
88.39
92.67
95.71
98.30
101.22
105.02
110.07
116.69
125.34
136.48
149.86
163.66
174.39
177.48
168.95
147.00
112.67
69.19
20.72
-28.69
-75.48
-116.36
-148.38
-169.41
-178.96
-178.63
-171.61
-161.43
-150.71
-140.64
-131.30
-122.65
-115.17
-109.79
-107.26
-107.52
-109.46
-111.39
-111.76
-109.67
-105.01
-98.25
-90.07
-81.07
-71.64
-62.06
-52.85
-44.90
-39.40
-37.39
-39.25
-44.24
-50.63
-56.31
-59.73
-60.66
-60.17
-60.22
-62.50
-67.73
-75.27
-83.64
-91.16
-96.43
-98.35
-96.05
-88.78
-76.41
-60.01
-42.09
-26.28
-16.07
-13.54
-18.54
-28.92
-41.67
-54.09
-64.75
-73.54
-81.24
-88.81
-96.76
-104.76
-111.36
-114.12
-110.11
-96.78
-72.81
-38.69
3.30
49.61
96.15
139.03
175.02
201.83
218.22
224.11
220.50
209.20
192.44
172.33
150.60
128.55
107.11
87.05
69.14
54.13
42.64
34.91
30.63
28.76
27.64
25.53
21.19
14.37
5.90
-2.67
-9.82
-14.67
-17.27
-18.35
-18.90
-19.57
-20.51
-21.44
-22.01
-22.08
-21.80
-21.53
-21.60
-22.25
-23.78
-26.52
-30.62
-35.51
-39.43
-39.37
-31.68
-13.50
15.88
54.14
96.18
135.65
166.77
186.03
192.91
189.42
178.91
164.58
148.44
130.92
111.29
88.43
61.81
32.11
1.47
-27.03
-50.14
-65.36
-71.61
-69.45
-60.70
-47.76
-32.98
-18.18
-4.52
7.26
16.50
22.36
24.01
20.94
13.60
3.72
-6.07
-12.96
-15.15
-12.93
-8.85
-6.93
-10.97
-22.81
-41.21
-62.19
-80.74
-92.81
-96.89
-94.15
-87.28
-78.91
-70.28
-61.11
-50.56
-38.48
-26.04
-15.62
-9.57
-9.11
-13.79
-21.57
-29.38
-33.70
-30.96
-18.19
6.01
40.28
80.02
117.84
145.28
155.27
144.09
111.85
61.61
-2.00
-73.62
-146.74
-213.10
-263.08
-287.67
-281.35
-244.56
-183.98
-110.52
-35.80
31.29
86.11
128.13
159.03
180.62
193.65
197.76
192.46
178.72
159.73
140.66
127.13
122.73
126.83
134.20
136.77
126.79
99.80
56.33
1.39
-57.29
-111.48
-154.18
-180.91
-190.16
-183.57
-165.55
-142.09
-119.16
-100.83
-88.24
-79.79
-72.36
-62.71
-48.75
-29.82
-6.60
19.36
46.08
71.45
93.54
110.77
122.06
126.75
124.53
115.42
99.92
79.10
54.58
28.29
2.10
-22.43
-44.17
-62.26
-75.79
-83.88
-86.14
-83.00
-75.82
-66.50
-56.59
-46.42
-34.86
-19.94
-0.11
24.66
52.71
81.37
108.10
131.14
149.41
161.83
166.77
162.49
148.14
125.06
96.78
67.96
42.54
22.32
6.82
-5.73
-17.02
-27.70
-37.42
-45.45
-51.24
-54.56
-55.40
-53.89
-50.27
-45.18
-39.71
-35.18
-32.76
-33.18
-36.50
-42.19
-49.23
-56.24
-61.70
-64.31
-63.29
-58.81
-51.90
-44.09
-36.87
-31.03
-26.45
-22.34
-17.75
-12.20
-5.93
0.24
5.46
9.18
11.41
12.43
12.48
11.55
9.55
6.64
3.33
0.29
-2.15
-4.38
-7.29
-11.65
-17.36
-23.17
-27.25
-28.16
-25.69
-21.09
-16.28
-12.91
-11.54
-11.64
-12.16
-12.15
-11.20
-9.30
-6.55
-2.90
1.82
7.58
14.00
20.30
25.69
29.70
32.35
33.93
34.67
34.40
32.61
28.69
22.40
14.23
5.34
-2.79
-8.84
-12.11
-12.71
-11.37
-9.03
-6.50
-4.22
-2.31
-0.68
0.71
1.75
2.03
0.86
-2.70
-9.67
-20.76
-35.93
-53.98
-72.58
-88.90
-100.57
-106.61
-107.86
-106.54
-105.26
-105.93
-109.10
-114.03
-119.09
-122.38
-122.16
-117.16
-106.94
-92.32
-75.62
-60.24
-49.43
-44.70
-44.81
-46.07
-43.97
-35.52
-20.68
-2.23
16.04
31.60
44.31
56.14
69.37
84.82
101.16
115.64
125.73
130.55
131.10
129.49
127.52
125.79
123.61
119.68
113.13
104.10
93.57
82.88
72.87
63.57
54.26
43.98
32.18
19.25
6.36
-4.91
-13.17
-17.72
-18.61
-16.61
-12.87
-8.76
-5.55
-4.10
-4.48
-5.72
-6.06
-3.64
2.60
12.32
23.70
34.30
41.97
45.84
46.49
45.48
44.58
45.03
47.24
51.04
56.03
61.96
68.79
76.63
85.40
94.72
104.00
112.57
119.93
126.01
131.19
136.14
141.55
147.83
154.94
162.36
169.06
173.59
174.14
168.76
155.61
133.63
102.87
64.88
22.43
-21.25
-63.57
-103.48
-141.57
-179.03
-216.23
-251.76
-282.56
-305.11
-316.77
-316.35
-303.73
-278.94
-241.78
-192.61
-133.95
-71.37
-12.74
34.47
66.22
83.34
90.19
91.65
89.78
82.74
66.31
36.67
-7.01
-61.49
-120.62
-176.99
-223.51
-254.45
-265.68
-254.91
-222.30
-170.67
-104.86
-30.81
45.76
120.49
190.37
253.47
309.00
356.89
398.00
434.99
471.96
512.67
558.40
605.75
646.38
669.41
664.86
627.28
558.19
465.34
360.37
256.02
163.55
91.67
45.90
27.75
34.24
57.93
87.79
111.68
119.13
102.50
57.63
-16.28
-117.40
-241.14
-380.30
-525.86
-667.92
-796.82
-904.90
-987.46
-1043.10
-1074.03
-1085.25
-1082.94
-1072.46
-1056.01
-1031.58
-994.30
-938.51
-860.48
-759.80
-639.13
-502.92
-355.62
-200.81
-41.53
118.68
275.01
421.14
549.94
655.41
734.23
786.89
817.42
831.86
835.87
832.35
819.70
793.37
748.15
681.03
593.27
490.60
381.36
273.65
172.94
80.91
-3.55
-82.64
-157.50
-226.25
-283.90
-323.33
-337.55
-322.62
-279.80
-216.00
-142.59
-72.10
-14.45
25.44
48.05
57.68
59.53
57.20
51.60
41.06
22.83
-4.71
-40.87
-82.14
-122.72
-156.14
-177.18
-182.80
-172.43
-146.96
-107.65
-56.04
5.58
72.99
139.52
196.99
237.89
257.73
256.69
239.45
213.20
185.27
161.17
143.89
134.28
132.00
135.78
143.34
151.25
154.98
150.17
133.92
105.62
66.94
21.01
-28.86
-79.68
-128.63
-173.00
-210.17
-238.30
-257.26
-268.53
-274.15
-275.08
-270.10
-256.08
-229.57
-188.71
-134.08
-69.04
1.05
69.66
129.57
173.30
194.41
189.17
158.24
107.12
44.26
-21.69
-85.01
-144.26
-200.80
-255.41
-305.58
-344.63
-364.28
-358.81
-328.15
-278.68
-220.84
-164.68
-116.34
-76.85
-43.53
-12.81
17.43
47.65
77.79
108.07
139.30
171.32
201.29
223.30
230.33
217.03
182.65
131.55
71.09
8.77
-50.13
-102.99
-148.41
-184.74
-209.50
-220.16
-215.43
-196.35
-165.89
-127.84
-85.56
-41.47
2.12
42.73
78.26
107.67
131.34
150.29
164.68
172.50
169.79
152.69
119.63
72.90
17.52
-40.90
-98.01
-151.06
-197.31
-232.31
-249.69
-243.42
-211.09
-156.02
-86.57
-13.09
55.81
115.27
164.08
203.04
232.90
253.72
265.41
268.89
266.48
260.51
251.80
238.63
217.33
184.32
139.05
85.73
32.48
-11.62
-40.99
-55.87
-61.84
-66.52
-75.24
-88.30
-101.69
-110.33
-111.91
-108.80
-106.28
-108.75
-116.13
-123.01
-120.95
-102.67
-65.45
-11.60
53.05
122.12
190.77
255.54
312.89
357.80
383.88
385.42
360.29
311.58
247.21
177.42
111.10
53.08
3.10
-42.99
-89.79
-139.05
-187.49
-227.25
-248.57
-243.94
-210.81
-152.34
-75.80
9.85
95.76
173.66
235.65
274.56
285.11
266.37
223.07
164.60
102.09
44.30
-5.06
-47.56
-87.35
-127.76
-168.02
-202.71
-223.94
-224.39
-200.23
-152.14
-84.76
-5.51
76.54
151.30
208.29
238.11
234.95
199.24
138.61
66.02
-4.34
-61.93
-102.63
-128.64
-146.03
-161.73
-181.42
-208.68
-244.75
-288.20
-334.53
-376.54
-405.88
-415.62
-402.50
-368.17
-318.30
-260.18
-200.23
-142.11
-86.60
-33.11
18.06
64.20
100.28
121.15
124.68
114.08
97.80
86.63
89.29
108.64
141.23
179.67
216.70
248.15
272.99
291.06
300.53
297.23
276.35
235.70
177.62
108.59
36.51
-32.55
-96.72
-158.43
-222.00
-290.04
-360.58
-426.43
-477.12
-502.87
-498.41
-465.12
-410.51
-344.99
-277.96
-214.83
-156.49
-100.70
-44.96
10.93
64.03
108.78
139.32
152.05
147.35
129.49
104.86
79.43
56.57
37.05
20.54
7.94
2.56
9.38
32.62
73.39
128.36
190.43
250.86
301.31
335.19
348.03
337.80
305.08
253.48
189.53
121.71
58.68
7.17
-29.10
-49.55
-55.70
-50.01
-35.04
-13.52
11.31
35.65
55.60
68.32
72.99
70.91
64.58
56.23
46.74
35.56
21.70
4.91
-13.53
-30.99
-44.63
-52.59
-54.79
-52.81
-49.03
-45.54
-43.40
-42.32
-41.07
-38.15
-32.50
-24.00
-13.55
-2.65
7.08
14.49
19.33
22.14
23.94
25.61
27.42
28.99
29.54
28.51
25.80
21.82
17.15
12.15
6.80
0.93
-5.45
-11.81
-17.18
-20.54
-21.28
-19.61
-16.49
-13.27
-11.13
-10.63
-11.55
-13.00
-13.90
-13.52
-11.85
-9.66
-8.07
-7.98
-9.52
-11.88
-13.75
-14.01
-12.41
-9.77
-7.65
-7.46
-9.89
-14.50
-19.93
-24.50
-26.95
-26.85
-24.75
-21.95
-19.94
-19.82
-21.74
-24.86
-27.63
-28.45
-26.53
-22.32
-17.33
-13.49
-12.58
-15.63
-22.79
-33.12
-44.17
-51.83
-50.65
-35.55
-4.17
40.97
92.30
139.33
172.63
187.60
185.80
173.38
157.39
142.15
127.91
112.02
91.85
67.25
41.09
17.63
0.23
-10.49
-16.73
-21.90
-28.62
-37.47
-46.94
-54.57
-58.54
-58.66
-56.35
-53.81
-52.83
-53.91
-56.12
-57.67
-56.88
-53.09
-47.06
-40.60
-35.87
-34.31
-36.18
-40.41
-45.22
-48.85
-50.30
-49.59
-47.51
-45.17
-43.38
-42.28
-41.30
-39.50
-36.03
-30.63
-23.75
-16.30
-9.22
-2.97
2.59
7.97
13.58
19.38
24.81
29.04
31.45
31.86
30.62
28.35
25.72
23.21
21.12
19.65
18.90
18.83
19.06
18.79
16.93
12.38
4.63
-5.97
-18.12
-29.89
-39.43
-45.69
-48.74
-49.69
-49.96
-50.33
-50.21
-47.77
-40.71
-27.49
-8.45
13.89
35.49
52.12
60.89
61.18
54.84
45.59
37.84
35.48
40.68
53.28
70.62
87.99
99.57
99.73
84.50
52.83
7.27
-46.10
-98.77
-141.89
-168.76
-176.77
-168.04
-148.01
-122.90
-97.02
-71.40
-44.46
-14.27
19.35
53.99
85.54
110.23
126.55
135.72
140.64
143.98
146.40
146.02
139.19
121.82
90.71
44.50
-15.76
-86.11
-159.41
-225.99
-275.41
-299.09
-292.71
-257.38
-199.01
-126.42
-49.04
24.75
88.43
137.81
171.36
190.65
200.21
206.38
215.06
229.21
247.46
264.42
273.16
267.78
245.40
206.83
155.31
94.77
28.16
-42.90
-116.86
-190.23
-256.34
-306.25
-331.60
-328.07
-297.67
-247.93
-188.44
-126.56
-64.78
-1.41
66.04
137.13
206.84
267.02
309.86
331.18
331.68
315.54
287.94
252.73
211.73
165.17
113.03
55.68
-6.08
-71.01
-137.06
-200.41
-255.01
-293.26
-308.15
-296.03
-258.28
-201.17
-133.52
-63.80
2.09
61.12
111.95
153.52
184.63
204.48
213.57
213.89
207.76
196.58
179.87
155.75
122.38
79.08
26.87
-32.20
-95.68
-160.72
-223.16
-276.81
-314.13
-328.36
-316.28
-279.78
-225.41
-161.48
-94.52
-27.14
41.57
113.40
187.92
260.76
324.50
371.20
395.52
396.50
377.29
343.49
300.86
253.72
204.26
153.11
100.30
45.99
-9.10
-63.44
-114.65
-159.63
-195.01
-218.12
-228.14
-226.53
-216.62
-202.15
-185.22
-165.17
-139.20
-104.35
-59.65
-7.09
49.08
103.80
152.59
191.96
218.96
230.84
225.43
202.37
164.03
115.60
63.65
13.85
-30.87
-70.72
-107.51
-142.24
-173.17
-195.46
-202.63
-189.08
-152.19
-93.13
-16.10
73.03
167.81
261.11
344.90
410.54
450.50
460.95
443.72
406.36
359.72
314.23
276.74
249.38
230.59
217.40
207.32
199.07
192.12
185.80
178.79
169.40
156.27
138.99
118.42
96.42
75.00
55.56
38.32
22.33
5.98
-12.09
-32.21
-53.27
-73.09
-89.30
-100.36
-106.35
-108.99
-111.05
-115.12
-122.58
-133.06
-144.68
-155.02
-162.23
-165.87
-167.21
-168.83
-174.00
-185.74
-205.60
-232.38
-261.33
-284.26
-291.07
-272.70
-224.50
-148.89
-55.81
39.65
121.66
178.45
205.49
205.88
187.93
161.49
134.57
111.71
94.17
81.40
72.35
66.22
62.19
58.81
53.67
44.06
28.00
5.21
-22.63
-52.58
-81.75
-108.71
-134.09
-159.89
-187.84
-217.66
-246.50
-269.94
-284.42
-289.20
-287.21
-283.93
-284.96
-293.91
-311.68
-337.41
-369.67
-406.72
-445.46
-480.16
-502.38
-503.17
-476.68
-423.20
-349.67
-267.02
-186.00
-113.43
-50.87
3.88
54.18
102.43
149.76
196.67
243.72
290.92
336.52
376.26
404.18
414.93
406.31
380.75
344.69
306.17
272.09
246.12
228.47
216.75
207.31
196.22
179.84
154.89
118.70
70.18
11.15
-52.70
-112.26
-157.07
-179.17
-176.40
-153.88
-122.42
-94.34
-79.03
-80.19
-96.00
-121.63
-152.34
-185.36
-220.03
-256.79
-295.95
-336.92
-377.74
-414.87
-443.12
-456.46
-449.75
-420.79
-371.62
-308.23
-238.67
-170.32
-108.11
-53.98
-7.90
30.87
63.19
90.46
115.65
143.30
177.95
221.38
270.53
317.42
351.93
365.88
356.77
328.86
291.11
253.03
220.75
195.29
173.56
151.26
125.29
94.50
58.82
17.76
-29.65
-83.49
-140.92
-194.86
-234.95
-250.94
-237.00
-193.99
-129.29
-54.24
19.13
80.52
122.82
142.79
140.21
117.34
79.27
33.00
-14.15
-56.72
-93.14
-125.34
-156.43
-189.47
-225.69
-262.69
-294.86
-315.24
-318.18
-302.38
-270.94
-229.36
-184.51
-142.52
-106.26
-74.88
-45.22
-10.21
33.73
78.21
114.18
137.06
144.59
138.84
125.74
112.65
105.16
104.18
106.77
109.28
108.52
102.77
92.16
76.90
55.40
23.98
-21.44
-81.55
-150.15
-215.25
-262.75
-281.07
-265.49
-219.44
-152.63
-77.49
-5.41
55.53
99.83
123.53
124.78
104.58
67.66
21.86
-24.31
-64.82
-98.07
-126.98
-156.19
-188.11
-220.16
-244.96
-253.40
-239.04
-201.42
-146.52
-84.42
-25.49
23.39
60.13
86.45
105.64
120.79
134.41
149.03
167.23
190.82
219.47
250.01
277.34
296.92
306.98
309.56
309.29
310.81
316.31
324.64
332.28
335.31
330.93
318.06
296.68
267.07
229.56
184.81
134.26
80.01
24.33
-30.68
-83.21
-131.21
-171.80
-201.58
-217.77
-220.16
-212.03
-199.69
-190.27
-188.95
-197.27
-213.44
-234.50
-258.47
-284.94
-313.57
-341.77
-363.48
-370.56
-356.44
-319.92
-266.68
-207.69
-154.88
-116.59
-95.27
-87.74
-87.95
-90.02
-90.11
-86.35
-77.46
-61.67
-36.99
-2.85
38.41
80.95
117.14
140.62
149.23
145.86
136.83
128.06
121.50
114.19
100.62
77.17
45.70
13.75
-9.03
-16.08
-7.55
9.71
26.32
35.20
35.07
30.51
28.40
34.02
48.72
70.57
96.55
124.33
152.16
177.49
196.10
202.70
193.50
168.59
132.93
94.67
61.83
38.88
24.99
14.94
2.04
-18.18
-45.42
-74.52
-97.70
-108.13
-103.09
-85.02
-60.57
-37.67
-22.17
-16.14
-17.75
-22.53
-25.17
-20.87
-6.49
18.54
51.58
87.05
117.89
138.10
145.30
141.53
131.89
121.96
115.13
111.48
108.71
103.87
94.74
80.11
58.93
30.03
-6.97
-49.89
-93.10
-128.25
-147.12
-144.80
-121.15
-80.65
-29.63
26.41
83.57
138.38
185.83
218.72
229.33
213.92
174.79
120.65
63.75
14.93
-20.18
-42.08
-55.79
-68.03
-83.20
-103.57
-128.95
-156.99
-183.71
-204.20
-213.77
-209.70
-193.20
-167.43
-138.21
-111.12
-89.36
-72.77
-58.31
-41.92
-16.46
13.42
45.97
77.01
102.60
120.68
132.01
139.54
146.73
155.48
164.60
171.99
174.22
168.96
155.77
135.92
111.05
81.86
47.29
4.71
-46.53
-104.55
-163.03
-212.02
-240.97
-242.55
-215.46
-164.66
-99.53
-29.78
35.96
91.01
130.16
149.37
146.41
122.46
83.05
36.87
-6.43
-40.21
-62.89
-78.06
-92.00
-110.27
-134.47
-161.10
-183.23
-193.61
-188.47
-169.62
-143.87
-120.44
-106.91
-106.64
-118.28
-137.33
-158.36
-176.50
-187.61
-188.26
-176.15
-151.28
-116.54
-77.26
-39.20
-5.97
21.83
45.75
67.08
84.60
94.79
94.07
82.06
63.35
45.92
37.39
41.01
54.17
69.86
80.67
82.02
74.09
61.33
49.41
42.72
43.54
52.57
69.85
94.87
125.33
156.53
182.14
195.53
191.88
170.91
137.10
97.60
59.38
25.99
-2.87
-29.65
-57.62
-88.91
-122.54
-154.48
-179.18
-191.72
-190.77
-178.78
-160.31
-141.23
-126.46
-117.40
-111.73
-104.94
-89.56
-62.01
-29.82
-1.13
20.64
35.02
45.99
60.34
84.20
119.84
163.52
207.45
244.11
268.37
278.50
276.29
264.75
245.92
220.03
185.68
141.46
88.01
27.37
-36.99
-100.10
-155.76
-197.50
-219.81
-219.96
-198.53
-159.19
-108.57
-55.29
-8.31
24.58
37.92
29.43
-0.12
-47.31
-106.28
-169.52
-228.32
-273.50
-296.75
-292.81
-261.56
-209.06
-145.85
-83.59
-31.21
7.51
33.79
51.72
65.74
79.20
94.28
112.49
134.50
159.34
183.68
202.35
210.36
205.29
189.03
167.45
148.18
137.56
138.29
148.87
164.74
180.06
189.40
188.46
174.03
143.95
97.66
37.38
-31.10
-98.54
-154.23
-189.14
-199.04
-185.98
-157.00
-120.72
-83.47
-47.45
-11.83
24.09
57.81
83.09
92.25
80.01
46.16
-4.25
-63.12
-122.13
-174.48
-214.99
-239.40
-244.10
-227.07
-189.66
-137.76
-81.02
-30.29
5.18
20.12
13.82
-10.74
-47.86
-90.22
-129.65
-158.11
-169.48
-161.45
-136.56
-101.01
-61.83
-23.34
15.06
58.50
113.53
183.81
267.03
354.32
432.37
487.30
508.63
492.35
441.82
366.65
279.76
193.77
117.56
54.47
2.51
-42.87
-85.49
-126.46
-163.65
-192.92
-209.80
-211.15
-196.18
-166.84
-127.80
-84.90
-44.17
-9.69
17.61
40.00
61.17
83.87
108.41
132.10
151.27
161.77
160.46
145.61
117.31
77.59
30.52
-18.55
-64.80
-104.39
-136.66
-162.86
-184.45
-201.00
-209.56
-206.28
-186.29
-154.18
-114.42
-73.12
-34.45
1.22
36.89
76.25
120.73
168.19
212.98
249.84
274.98
287.29
287.05
274.34
248.22
207.83
154.58
93.27
32.39
-19.02
-53.60
-67.51
-60.76
-36.82
-2.02
35.09
64.49
77.41
68.38
37.71
-8.46
-60.22
-107.71
-144.81
-170.79
-189.39
-205.53
-222.28
-238.77
-250.36
-250.78
-235.21
-202.70
-157.11
-106.03
-58.16
-20.52
2.77
10.49
3.27
-17.27
-48.28
-85.05
-120.36
-145.10
-150.83
-133.38
-95.17
-45.01
5.50
47.40
77.78
100.15
122.00
150.09
186.43
227.16
263.89
287.58
292.28
275.76
238.93
185.41
120.83
52.02
-13.92
-71.82
-119.25
-155.87
-183.52
-204.73
-220.50
-229.53
-229.07
-214.26
-183.59
-144.53
-106.17
-74.86
-54.70
-45.58
-43.72
-44.06
-43.32
-42.71
-46.78
-59.50
-81.33
-107.11
-126.98
-130.72
-112.93
-75.97
-29.55
14.08
45.83
62.62
67.45
66.59
66.01
68.90
75.83
86.00
98.96
115.01
133.56
151.66
164.47
167.16
157.04
135.11
105.48
73.37
42.74
14.56
-12.68
-40.70
-69.00
-94.03
-110.45
-114.06
-104.24
-84.72
-62.25
-43.80
-33.85
-32.94
-38.48
-46.78
-55.05
-62.35
-68.90
-74.49
-76.91
-71.56
-52.75
-16.72
35.54
96.76
154.54
195.33
209.33
193.94
154.25
100.29
42.98
-8.79
-49.23
-74.95
-84.02
-75.98
-53.02
-20.67
13.04
40.17
56.34
62.69
65.32
71.99
88.00
113.28
142.61
168.48
184.96
190.15
186.12
176.70
164.79
150.78
133.47
112.30
89.19
68.59
55.54
52.89
59.64
71.35
82.18
87.61
85.97
78.29
66.90
53.80
39.26
21.65
-1.46
-31.70
-68.34
-107.99
-145.40
-175.27
-193.67
-198.73
-190.24
-169.05
-136.84
-96.44
-52.34
-10.47
22.83
42.60
46.69
36.24
14.92
-12.57
-41.91
-69.78
-93.69
-111.32
-120.33
-118.63
-105.20
-81.13
-50.07
-17.74
9.94
29.01
39.06
43.05
45.26
48.68
53.54
57.86
59.70
59.28
59.17
62.47
69.91
78.37
81.76
74.29
53.79
23.11
-11.50
-44.01
-71.95
-96.93
-122.32
-149.45
-175.05
-191.65
-190.79
-167.53
-123.39
-66.32
-7.51
42.94
79.19
100.35
108.70
107.45
99.37
87.01
73.58
63.35
60.41
66.59
79.82
94.09
101.46
95.26
72.72
35.93
-9.34
-56.13
-98.78
-134.13
-161.50
-181.23
-193.07
-195.28
-185.18
-160.93
-123.65
-78.32
-32.57
5.99
32.86
48.28
56.53
63.51
74.03
90.36
112.29
138.19
165.58
191.09
210.23
217.82
209.57
184.14
144.39
97.01
50.40
11.95
-14.12
-27.59
-31.78
-32.36
-35.53
-45.87
-64.70
-88.97
-112.08
-126.20
-125.38
-107.68
-75.42
-33.77
11.10
53.49
88.64
112.87
124.15
122.91
112.39
97.82
84.13
73.47
64.16
51.91
32.67
5.74
-25.39
-54.41
-75.16
-84.67
-84.52
-80.27
-78.81
-85.32
-100.59
-120.02
-135.30
-137.67
-121.48
-86.35
-37.23
17.43
68.24
107.16
129.06
132.71
121.20
101.19
81.01
67.45
62.96
64.40
64.79
57.09
38.20
10.79
-18.48
-42.37
-56.61
-61.39
-60.47
-59.00
-61.46
-70.33
-85.51
-104.31
-121.88
-132.41
-130.92
-115.02
-85.92
-48.14
-8.08
28.01
55.74
73.45
82.44
86.38
90.13
97.94
111.54
128.74
143.60
148.56
137.60
109.11
66.52
16.82
-32.69
-77.41
-116.45
-151.40
-183.61
-211.85
-231.75
-237.52
-224.82
-193.36
-147.65
-95.58
-45.59
-3.98
26.54
46.42
57.58
62.04
61.64
58.81
57.38
61.97
75.92
98.84
125.48
147.20
155.65
146.77
122.83
91.61
62.92
44.45
38.97
44.05
53.81
61.44
61.51
51.41
31.68
5.51
-22.24
-46.19
-61.71
-66.00
-58.61
-41.61
-18.97
4.53
24.66
38.91
47.02
50.48
51.33
50.88
48.86
43.57
33.07
16.43
-5.53
-30.50
-55.91
-80.22
-103.63
-127.66
-153.76
-181.43
-207.06
-224.37
-226.57
-209.31
-173.17
-123.84
-70.22
-21.04
18.13
46.12
65.39
79.94
93.32
107.55
123.04
138.73
152.41
160.78
160.14
147.52
122.19
86.51
45.62
6.35
-24.88
-43.72
-48.76
-41.78
-27.23
-11.53
-1.60
-2.79
-16.65
-39.64
-63.86
-79.72
-79.77
-61.54
-28.22
12.96
53.74
87.43
110.28
121.58
122.91
117.09
107.40
96.57
86.10
75.70
63.58
47.50
26.24
0.54
-27.28
-54.44
-79.33
-102.38
-125.42
-149.88
-174.92
-196.54
-208.52
-204.84
-182.78
-144.76
-98.03
-52.17
-15.47
7.61
17.23
16.87
11.06
3.78
-1.88
-3.05
3.36
19.78
46.27
78.96
110.34
131.42
135.41
120.81
92.12
57.90
26.70
3.29
-13.08
-27.29
-44.74
-67.32
-91.63
-110.06
-114.58
-100.53
-68.69
-24.62
24.05
70.38
109.90
140.09
159.28
165.86
158.79
138.93
110.00
78.11
49.81
29.59
18.36
13.48
10.31
4.13
-8.23
-28.00
-54.98
-88.16
-125.80
-164.90
-200.45
-225.42
-232.22
-215.60
-175.64
-119.07
-57.76
-4.57
31.69
49.24
53.19
52.09
53.63
61.49
75.13
91.91
109.51
127.07
144.33
160.03
170.66
171.19
157.30
127.85
86.13
38.80
-6.83
-45.86
-77.22
-102.78
-124.51
-141.76
-150.84
-147.07
-128.42
-97.95
-63.37
-33.21
-12.23
1.22
13.73
32.06
58.08
86.76
108.55
114.70
102.18
75.42
43.91
17.72
3.40
2.43
11.93
26.75
41.33
50.67
50.73
38.69
13.67
-22.67
-65.96
-109.77
-146.85
-170.54
-176.33
-162.81
-132.27
-90.24
-44.34
-2.36
29.62
48.50
54.59
50.29
38.74
22.57
3.53
-17.01
-36.94
-52.74
-59.73
-53.75
-33.40
-1.65
34.26
65.02
82.61
83.05
67.18
39.16
4.23
-32.93
-68.19
-97.15
-114.79
-116.63
-100.92
-70.54
-32.91
2.43
27.33
37.77
34.34
20.77
1.52
-20.07
-42.25
-64.33
-85.31
-102.93
-113.13
-111.01
-92.52
-57.02
-8.83
43.08
87.43
114.30
118.11
99.11
62.87
18.42
-24.27
-56.43
-72.36
-70.57
-54.16
-29.83
-5.78
11.14
17.66
14.70
6.41
-1.75
-4.87
0.85
17.21
43.21
74.53
104.19
125.36
134.80
135.00
132.75
135.16
145.10
159.05
169.34
168.91
155.94
135.02
114.31
100.76
96.38
97.99
99.86
97.19
88.05
73.10
53.90
31.66
7.17
-18.22
-41.91
-60.23
-69.61
-68.14
-56.39
-37.07
-13.77
10.49
33.90
55.47
74.12
88.07
95.02
93.17
82.43
64.82
43.94
23.59
6.47
-6.49
-15.69
-21.82
-25.06
-24.86
-20.75
-13.10
-3.95
3.55
6.23
2.02
-9.40
-26.88
-48.40
-71.45
-93.42
-111.93
-125.40
-133.71
-138.26
-141.05
-143.00
-142.64
-136.08
-118.99
-89.11
-48.50
-3.60
36.83
64.56
74.57
66.00
41.56
5.86
-35.93
-78.66
-117.44
-147.62
-164.88
-166.39
-151.22
-120.73
-78.39
-29.24
20.37
63.46
93.53
105.88
99.07
75.79
42.48
7.77
-19.98
-34.98
-35.40
-23.23
-3.29
18.41
35.76
43.36
37.36
16.16
-19.04
-64.18
-113.06
-158.48
-193.55
-212.66
-212.76
-194.09
-159.87
-116.02
-69.50
-26.60
8.39
33.97
50.85
60.81
65.56
66.32
63.94
59.52
54.73
51.56
51.86
56.66
66.12
79.77
96.87
116.48
137.03
156.07
170.18
175.59
169.16
149.29
116.07
71.26
17.94
-39.23
-93.57
-136.84
-160.66
-159.31
-132.27
-85.33
-28.85
25.72
69.56
98.95
114.92
121.23
121.91
119.79
116.00
110.41
102.19
90.21
74.00
54.50
34.72
19.13
11.50
12.50
18.52
22.71
18.19
1.57
-25.10
-55.59
-82.96
-103.39
-118.06
-131.70
-149.37
-173.57
-202.82
-232.11
-254.68
-263.53
-254.61
-228.03
-188.83
-146.57
-112.83
-97.46
-105.22
-133.29
-171.89
-207.98
-230.09
-232.29
-215.64
-186.51
-152.99
-121.62
-95.29
-73.20
-52.44
-30.13
-4.62
24.04
54.92
87.58
121.86
157.06
191.28
221.24
243.04
253.84
252.58
241.26
223.66
203.37
181.69
157.30
127.81
93.32
58.66
33.12
26.82
45.07
83.94
130.04
165.41
175.35
155.30
113.01
64.70
27.59
12.66
21.68
49.29
87.75
130.89
175.14
217.47
252.75
273.01
269.96
239.41
184.64
116.19
47.73
-9.65
-51.01
-77.60
-93.49
-101.91
-103.35
-96.65
-81.83
-62.51
-45.50
-37.35
-40.51
-50.97
-59.98
-59.28
-46.00
-25.27
-8.27
-6.73
-27.09
-67.33
-117.57
-164.99
-199.90
-219.65
-228.56
-234.22
-242.85
-256.31
-272.03
-285.41
-293.15
-295.10
-293.68
-291.65
-289.61
-284.89
-272.87
-249.45
-213.35
-167.15
-116.75
-68.63
-27.75
4.22
29.24
51.32
74.32
100.36
129.39
159.67
188.61
212.71
227.55
228.52
212.28
178.73
132.05
79.75
29.99
-11.41
-42.71
-65.34
-81.49
-91.97
-95.79
-91.66
-80.24
-65.15
-52.01
-45.93
-49.17
-60.32
-75.54
-90.54
-102.52
-110.73
-116.10
-119.93
-123.15
-125.90
-127.46
-126.86
-123.52
-117.35
-108.98
-99.42
-89.66
-80.37
-71.68
-63.07
-53.73
-42.85
-30.01
-15.28
0.74
17.14
32.96
47.57
60.86
73.27
85.67
98.97
113.85
130.49
148.63
167.58
186.50
204.56
221.15
236.23
250.72
266.77
287.38
315.04
349.67
387.26
419.83
437.44
431.40
397.62
338.32
262.07
181.68
111.08
62.29
43.23
56.71
100.22
166.31
243.54
318.35
377.56
411.39
415.80
393.21
351.33
300.62
250.91
208.88
177.03
154.38
138.11
125.40
114.11
103.05
91.56
79.28
66.05
51.97
37.28
22.29
7.32
-7.52
-22.21
-36.74
-51.08
-65.17
-78.90
-92.04
-104.24
-115.07
-124.33
-132.28
-139.88
-148.46
-158.95
-171.00
-182.46
-190.03
-190.56
-182.68
-167.50
-148.12
-128.00
-109.52
-93.27
-78.53
-64.57
-51.53
-40.32
-31.35
-23.33
-13.08
2.91
26.10
54.09
80.77
98.62
101.98
89.54
64.77
34.11
4.04
-21.30
-41.01
-56.72
-70.88
-85.69
-102.59
-122.20
-144.26
-167.51
-189.50
-206.94
-216.53
-215.90
-204.58
-184.34
-158.71
-131.90
-107.64
-88.33
-74.77
-66.58
-62.77
-62.30
-64.24
-67.69
-71.59
-74.68
-75.48
-72.64
-65.36
-53.80
-39.30
-24.10
-11.28
-3.85
-3.44
-9.12
-16.94
-20.51
-12.76
11.50
53.25
108.15
167.10
218.60
252.16
261.59
246.59
212.30
167.10
119.57
76.20
40.37
12.90
-6.78
-19.61
-26.41
-27.95
-25.38
-20.33
-14.76
-10.51
-8.94
-10.60
-14.84
-20.06
-24.01
-24.52
-20.36
-11.88
-1.00
9.40
16.40
17.84
12.68
0.81
-17.19
-40.04
-65.15
-88.06
-102.47
-101.93
-82.59
-45.69
1.68
48.52
83.91
101.10
99.55
84.16
62.21
39.93
20.55
4.55
-8.70
-19.31
-26.23
-27.88
-23.22
-12.39
3.16
21.32
39.94
57.00
70.84
79.63
81.07
71.97
49.08
10.59
-42.01
-102.79
-162.11
-209.23
-236.22
-240.80
-227.08
-203.50
-179.12
-160.24
-148.87
-143.44
-140.96
-138.89
-135.94
-131.59
-124.91
-113.72
-94.80
-65.35
-24.61
24.83
76.85
123.45
157.07
172.59
168.43
146.10
109.51
63.85
15.17
-29.84
-64.74
-84.44
-86.87
-73.67
-49.78
-21.66
4.95
26.61
42.46
53.45
60.87
65.43
66.68
63.33
53.95
37.78
15.55
-10.11
-34.48
-51.45
-54.50
-38.54
-2.25
50.19
108.83
160.08
191.09
194.46
171.13
129.96
84.02
45.41
21.18
11.94
13.33
19.13
24.05
24.84
19.75
7.52
-13.14
-42.84
-80.14
-120.46
-156.42
-179.78
-184.52
-169.35
-138.44
-99.78
-61.90
-30.72
-8.17
6.83
16.23
21.30
22.70
21.97
23.06
32.11
54.81
92.92
141.73
190.73
227.29
241.70
230.77
198.24
152.28
101.21
50.49
2.29
-42.55
-82.15
-112.67
-129.39
-129.29
-113.16
-85.98
-55.01
-26.95
-5.63
8.66
18.18
25.74
33.14
40.58
47.20
52.11
55.09
56.61
57.38
57.69
57.21
54.99
49.80
40.82
27.93
11.68
-7.03
-27.42
-49.46
-74.04
-102.51
-135.70
-172.14
-206.86
-231.59
-236.79
-215.22
-165.95
-96.39
-20.80
44.38
86.49
100.95
91.95
69.63
45.18
26.66
17.30
16.21
20.67
27.92
35.51
40.78
40.19
29.59
5.90
-30.65
-75.25
-119.24
-152.66
-167.92
-162.61
-140.35
-109.24
-78.46
-54.87
-41.09
-36.00
-36.38
-39.28
-43.23
-48.14
-54.40
-61.75
-69.06
-74.80
-78.09
-79.36
-80.26
-82.67
-87.29
-92.80
-96.04
-93.54
-83.53
-67.33
-49.15
-34.29
-26.70
-26.60
-30.47
-32.67
-28.03
-13.97
8.79
37.39
68.51
99.57
128.87
154.80
175.23
187.67
190.35
183.42
169.51
153.01
138.58
129.52
126.76
128.98
133.36
136.45
135.06
126.82
110.51
86.44
56.63
24.64
-5.08
-28.08
-41.50
-44.71
-39.86
-31.29
-24.31
-23.42
-30.80
-45.49
-63.60
-79.71
-88.77
-88.07
-78.41
-63.82
-50.08
-42.58
-44.35
-55.21
-72.35
-91.64
-109.29
-122.75
-130.81
-133.19
-129.98
-121.34
-107.55
-89.26
-67.56
-44.03
-20.79
-0.30
14.86
23.11
25.06
24.30
26.52
37.22
58.62
87.91
118.15
141.29
151.90
149.39
137.42
121.04
103.80
86.40
67.79
47.62
28.16
14.28
11.46
22.86
47.47
80.10
113.35
140.34
157.01
162.88
160.48
153.53
144.99
136.15
126.79
116.18
104.04
91.06
78.26
66.38
55.21
43.50
29.72
12.90
-7.12
-29.91
-54.83
-81.39
-108.93
-136.23
-161.15
-180.95
-193.20
-196.54
-190.89
-176.88
-155.23
-126.60
-92.38
-55.72
-21.59
4.31
17.86
18.67
10.51
-0.41
-8.42
-10.85
-8.82
-5.74
-4.92
-7.67
-13.03
-18.94
-23.86
-27.58
-30.97
-35.11
-40.34
-46.12
-51.40
-55.30
-57.42
-57.79
-56.46
-53.22
-47.71
-39.90
-30.46
-20.84
-12.97
-8.38
-7.25
-8.04
-7.58
-2.30
10.33
30.36
54.81
78.51
95.81
102.53
97.28
81.72
59.56
35.24
12.54
-6.02
-19.38
-27.53
-31.21
-31.55
-29.70
-26.56
-22.70
-18.49
-14.26
-10.51
-8.00
-7.43
-8.91
-11.59
-13.73
-13.40
-9.42
-2.19
6.34
13.44
16.69
15.19
9.63
1.69
-6.63
-13.38
-16.52
-13.89
-3.96
12.76
32.78
49.91
57.50
51.78
34.19
11.27
-8.20
-17.51
-15.13
-5.17
5.25
9.91
6.52
-2.68
-12.93
-19.82
-21.59
-19.44
-16.26
-14.84
-16.18
-19.21
-21.74
-21.91
-19.25
-14.95
-11.08
-9.40
-10.41
-13.11
-15.73
-16.83
-16.06
-14.25
-12.64
-12.00
-12.20
-12.47
-12.29
-11.97
-12.59
-15.26
-20.20
-26.61
-33.21
-39.17
-44.67
-50.70
-58.09
-66.69
-75.23
-82.04
-86.08
-87.72
-88.55
-90.64
-95.50
-103.58
-114.20
-126.11
-137.88
-148.27
-156.23
-160.64
-160.17
-153.45
-139.44
-117.88
-89.83
-57.31
-23.17
9.70
38.97
63.13
81.82
95.58
105.70
114.16
123.44
135.91
152.98
174.16
196.56
215.35
225.21
222.12
204.93
175.96
140.13
103.33
70.55
44.52
25.47
11.99
2.04
-6.09
-13.26
-19.86
-26.30
-33.07
-40.94
-50.36
-60.99
-71.68
-81.06
-88.29
-93.16
-95.77
-95.94
-92.84
-85.32
-72.71
-55.41
-34.97
-13.66
6.27
22.89
34.71
40.70
40.61
35.53
28.11
22.09
20.92
26.31
37.33
50.84
62.78
69.60
69.29
61.88
49.60
36.66
28.73
31.53
48.61
79.53
119.19
159.50
192.50
213.60
222.98
224.34
222.18
219.09
214.87
207.62
195.63
178.73
158.18
135.69
112.49
89.40
67.31
47.67
32.27
22.30
17.39
15.68
14.68
12.62
9.27
5.84
3.82
3.89
5.40
6.73
6.18
2.72
-3.62
-11.83
-20.28
-27.34
-31.90
-33.78
-33.54
-32.05
-29.82
-26.57
-21.39
-13.47
-3.17
7.38
14.78
15.98
9.92
-1.77
-15.80
-29.27
-41.53
-54.59
-71.74
-95.06
-123.79
-154.16
-180.92
-199.39
-206.96
-203.47
-190.58
-171.05
-148.09
-125.05
-105.00
-90.11
-81.17
-77.52
-77.36
-78.59
-79.43
-78.68
-75.66
-69.94
-61.33
-50.21
-37.99
-27.12
-20.58
-20.55
-27.33
-38.93
-51.61
-61.38
-65.77
-64.90
-61.38
-58.96
-60.48
-66.54
-75.33
-83.82
-89.51
-91.70
-91.33
-89.66
-86.71
-80.43
-67.61
-45.75
-15.04
20.99
56.41
85.24
103.59
110.87
109.14
101.64
91.39
80.47
70.04
60.83
53.57
48.76
46.71
47.35
50.38
55.33
61.37
67.37
72.20
75.45
77.63
79.59
80.91
79.12
70.36
51.86
24.86
-4.30
-26.38
-33.77
-25.06
-6.58
10.79
17.79
11.91
-1.16
-11.27
-9.86
5.33
29.72
55.27
75.09
86.71
91.64
93.00
92.74
90.47
84.48
73.64
58.78
42.64
28.66
19.28
15.41
16.41
20.86
27.23
34.14
40.57
45.94
49.80
51.67
51.01
47.26
40.21
30.71
20.61
12.35
7.66
6.48
6.60
4.39
-3.58
-18.78
-39.68
-62.25
-81.26
-92.36
-93.70
-86.54
-74.58
-62.57
-54.36
-51.34
-52.07
-53.24
-51.84
-46.97
-40.52
-36.21
-37.56
-46.03
-60.35
-77.22
-92.77
-103.49
-106.84
-101.13
-85.77
-61.87
-32.93
-4.54
17.22
28.12
27.75
19.69
9.80
3.36
2.97
8.05
15.92
23.66
29.53
33.26
35.37
36.37
36.20
34.43
30.75
25.40
19.20
13.15
7.81
2.90
-2.46
-9.18
-17.60
-27.08
-36.31
-43.83
-48.71
-50.98
-51.49
-51.49
-52.02
-53.56
-55.85
-58.12
-59.43
-58.95
-56.22
-51.18
-44.15
-35.91
-27.54
-20.14
-14.31
-9.72
-5.26
0.43
8.00
16.86
25.29
31.43
34.45
35.14
35.58
37.84
42.83
49.73
56.46
60.90
61.89
59.60
55.21
50.22
45.86
42.74
40.99
40.31
40.16
39.87
38.79
36.46
32.68
27.41
20.73
12.79
3.92
-5.22
-13.66
-20.40
-24.89
-27.28
-28.40
-29.35
-30.94
-33.44
-36.68
-40.45
-44.78
-49.88
-55.80
-61.99
-67.46
-71.24
-73.35
-75.11
-78.71
-86.17
-98.38
-114.73
-133.38
-151.90
-167.78
-178.79
-183.24
-180.68
-172.70
-162.69
-154.99
-152.80
-155.93
-160.24
-159.24
-147.79
-125.25
-96.52
-69.96
-53.67
-52.24
-65.59
-90.41
-122.59
-158.84
-196.41
-231.69
-258.83
-269.92
-257.11
-214.53
-140.44
-37.81
86.50
223.59
363.98
498.65
619.61
720.16
795.92
844.51
865.77
861.37
834.76
790.79
735.08
673.34
610.04
548.92
492.19
440.46
393.00
348.40
305.11
261.88
221.17
182.25
144.22
106.42
68.55
30.71
-6.65
-42.79
-76.73
-107.55
-134.91
-158.13
-176.71
-190.30
-198.73
-202.09
-200.54
-194.37
-184.11
-170.72
-154.95
-137.49
-119.14
-100.65
-83.16
-67.77
-54.72
-44.51
-37.79
-34.84
-35.64
-40.07
-47.78
-58.90
-73.37
-90.93
-111.39
-134.43
-159.35
-185.26
-211.29
-236.62
-261.54
-286.39
-311.64
-338.17
-366.79
-397.99
-431.81
-468.02
-506.03
-546.02
-587.79
-630.74
-674.41
-717.72
-758.85
-794.77
-821.79
-828.84
-806.39
-747.28
-648.91
-515.39
-356.51
-185.64
-16.28
139.55
272.10
373.70
440.42
476.24
487.96
484.42
474.84
467.05
464.47
465.83
465.45
457.71
439.37
410.49
374.76
333.79
291.60
251.73
216.73
187.74
165.61
150.26
140.85
135.91
133.78
133.64
135.01
138.41
144.95
156.15
172.64
193.22
214.38
230.78
237.56
231.57
212.96
185.15
153.57
123.40
97.59
76.86
59.99
45.79
33.44
22.90
14.36
7.74
2.40
-2.51
-7.61
-13.15
-18.34
-22.44
-25.01
-26.18
-26.54
-26.87
-27.80
-29.49
-31.79
-34.14
-36.13
-37.48
-38.18
-38.36
-38.22
-37.87
-37.38
-36.80
-36.08
-35.22
-34.16
-32.83
-31.16
-29.18
-27.00
-24.86
-22.95
-21.39
-20.19
-19.22
-18.30
-17.36
-16.39
-15.52
-14.90
-14.61
-14.57
-14.65
-14.60
-14.27
-13.59
-12.66
-11.65
-10.80
-10.28
-10.18
-10.48
-11.03
-11.66
-12.17
-12.42
-12.33
-11.95
-11.33
-10.59
-9.76
-8.82
-7.75
-6.59
-5.42
-4.41
-3.74
-3.46
-3.57
-3.91
-4.34
-4.72
-5.04
-5.26
-5.41
-5.42
-5.17
-4.61
-3.76
-2.73
-1.78
-1.12
-0.84
-0.92
-1.18
-1.36
-1.30
-0.98
-0.60
-0.45
-0.77
-1.63
-2.88
-4.21
-5.21
-5.68
-5.59
-5.12
-4.57
-4.14
-3.93
-3.89
-3.92
-3.93
-3.96
-4.05
-4.26
-4.56
-4.85
-5.01
-4.94
-4.61
-4.03
-3.31
-2.52
-1.71
-0.89
0.01
0.94
1.85
2.56
2.92
2.85
2.39
1.70
0.99
0.40
-0.03
-0.33
-0.57
-0.77
-0.89
-0.87
-0.67
-0.31
0.11
0.42
0.50
0.31
-0.11
-0.54
-0.77
-0.63
-0.11
0.58
1.14
1.28
0.92
0.16
-0.68
-1.30
-1.52
-1.34
-0.91
-0.43
-0.02
0.28
0.52
0.72
0.83
0.79
0.54
0.14
-0.26
-0.49
-0.41
-0.04
0.47
0.88
0.96
0.59
-0.17
-1.13
-2.00
-2.59
-2.75
-2.54
-2.10
-1.65
-1.28
-1.01
-0.76
-0.47
-0.14
0.11
0.15
-0.07
-0.49
-0.92
-1.12
-0.95
-0.45
0.21
0.78
1.14
1.28
1.30
1.36
1.51
1.70
1.77
1.62
1.21
0.66
0.17
-0.10
-0.08
0.14
0.42
0.62
0.70
0.70
0.72
0.83
1.01
1.20
1.30
1.21
0.91
0.47
-0.03
-0.52
-0.98
-1.39
-1.80
-2.20
-2.56
-2.81
-2.85
-2.65
-2.24
-1.74
-1.23
-0.81
-0.46
-0.12
0.30
0.84
1.45
2.03
2.43
2.56
2.35
1.83
1.08
0.19
-0.73
-1.55
-2.18
-2.55
-2.62
-2.46
-2.13
-1.67
-1.17
-0.65
-0.20
0.13
0.28
0.24
0.09
-0.05
-0.07
0.08
0.36
0.65
0.85
0.91
0.87
0.84
0.89
1.01
1.09
1.04
0.79
0.42
0.11
0.00
0.12
0.34
0.37
0.02
-0.77
-1.84
-2.87
-3.58
-3.83
-3.71
-3.46
-3.35
-3.52
-3.95
-4.44
-4.72
-4.59
-4.00
-3.15
-2.30
-1.73
-1.60
-1.84
-2.33
-2.95
-3.69
-4.64
-5.87
-7.28
-8.53
-9.17
-8.80
-7.39
-5.21
-2.87
-0.94
0.27
0.87
1.26
1.81
2.66
3.60
4.24
4.19
3.37
2.01
0.56
-0.55
-1.14
-1.25
-1.08
-0.82
-0.53
-0.11
0.58
1.65
3.03
4.52
5.90
6.94
7.56
7.83
7.95
8.10
8.41
8.92
9.53
10.15
10.68
11.10
11.41
11.61
11.62
11.31
10.61
9.45
7.94
6.20
4.39
2.63
1.00
-0.46
-1.73
-2.76
-3.50
-3.83
-3.67
-2.98
-1.78
-0.25
1.32
2.57
3.24
3.21
2.66
1.93
1.34
1.03
0.91
0.70
0.18
-0.70
-1.75
-2.62
-3.05
-2.93
-2.40
-1.73
-1.08
-0.51
0.09
0.80
1.63
2.48
3.24
3.83
4.28
4.71
5.24
5.85
6.40
6.69
6.47
5.67
4.36
2.76
1.17
-0.15
-1.05
-1.60
-2.00
-2.48
-3.14
-3.91
-4.51
-4.68
-4.25
-3.34
-2.25
-1.37
-0.98
-1.23
-2.10
-3.53
-5.44
-7.87
-10.85
-14.36
-18.25
-22.23
-25.82
-28.57
-30.11
-30.28
-29.17
-27.09
-24.38
-21.40
-18.38
-15.38
-12.46
-9.69
-7.16
-5.01
-3.25
-1.77
-0.34
1.28
3.29
5.72
8.43
11.19
13.75
15.88
17.40
18.23
18.34
17.72
16.39
14.40
11.87
8.99
6.05
3.36
1.20
-0.23
-0.90
-0.93
-0.47
0.33
1.41
2.76
4.37
6.14
7.90
9.42
10.44
10.87
10.75
10.23
9.47
8.58
7.61
6.52
5.28
3.94
2.63
1.54
0.81
0.53
0.62
0.92
1.27
1.57
1.86
2.18
2.61
3.07
3.43
3.50
3.17
2.54
1.85
1.39
1.33
1.62
2.03
2.30
2.24
1.88
1.41
1.08
1.08
1.45
2.06
2.70
3.16
3.29
3.04
2.49
1.73
0.88
0.04
-0.72
-1.32
-1.70
-1.77
-1.53
-0.98
-0.27
0.45
1.06
1.50
1.81
2.10
2.36
2.51
2.42
1.97
1.15
0.13
-0.86
-1.56
-1.86
-1.77
-1.45
-1.09
-0.79
-0.60
-0.47
-0.34
-0.20
-0.04
0.09
0.13
0.09
-0.04
-0.20
-0.29
-0.23
0.01
0.43
0.93
1.42
1.77
1.93
1.92
1.80
1.68
1.56
1.45
1.31
1.17
1.11
1.18
1.38
1.65
1.82
1.74
1.33
0.62
-0.22
-1.00
-1.51
-1.68
-1.53
-1.16
-0.72
-0.33
-0.08
0.07
0.20
0.42
0.78
1.23
1.63
1.79
1.66
1.29
0.85
0.53
0.42
0.49
0.59
0.61
0.50
0.37
0.36
0.58
1.01
1.50
1.83
1.87
1.56
1.00
0.37
-0.17
-0.54
-0.75
-0.83
-0.86
-0.86
-0.88
-0.89
-0.90
-0.90
-0.90
-0.90
-0.92
-0.95
-0.95
-0.89
-0.73
-0.54
-0.38
-0.35
-0.44
-0.63
-0.79
-0.81
-0.60
-0.23
0.18
0.46
0.49
0.32
0.08
-0.10
-0.10
0.07
0.28
0.39
0.28
-0.06
-0.48
-0.82
-0.95
-0.83
-0.56
-0.24
0.05
0.30
0.54
0.80
1.07
1.27
1.31
1.18
0.93
0.68
0.54
0.56
0.68
0.78
0.71
0.43
0.02
-0.34
-0.47
-0.25
0.26
0.81
1.15
1.08
0.55
-0.23
-0.99
-1.43
-1.41
-0.97
-0.28
0.49
1.21
1.86
2.45
2.94
3.22
3.15
2.60
1.69
0.65
-0.24
-0.80
-1.05
-1.17
-1.34
-1.64
-2.01
-2.26
-2.20
-1.81
-1.19
-0.56
-0.10
0.08
-0.02
-0.29
-0.65
-0.95
-1.11
-1.09
-0.91
-0.67
-0.51
-0.48
-0.59
-0.74
-0.77
-0.53
-0.05
0.54
1.05
1.27
1.13
0.75
0.33
0.07
0.06
0.20
0.28
0.13
-0.27
-0.75
-1.04
-0.92
-0.39
0.36
0.99
1.18
0.86
0.17
-0.53
-0.90
-0.77
-0.22
0.48
1.05
1.30
1.28
1.16
1.17
1.41
1.75
1.97
1.88
1.44
0.74
0.02
-0.56
-0.94
-1.18
-1.35
-1.48
-1.52
-1.40
-1.05
-0.51
0.09
0.58
0.83
0.77
0.43
-0.04
-0.48
-0.77
-0.84
-0.74
-0.54
-0.35
-0.18
0.03
0.37
0.88
1.49
2.04
2.32
2.16
1.56
0.68
-0.22
-0.86
-1.15
-1.08
-0.84
-0.62
-0.54
-0.63
-0.80
-0.97
-1.09
-1.13
-1.15
-1.14
-1.10
-0.98
-0.76
-0.49
-0.25
-0.17
-0.32
-0.66
-1.03
-1.20
-1.00
-0.41
0.39
1.08
1.34
1.02
0.23
-0.67
-1.30
-1.40
-0.96
-0.24
0.43
0.78
0.79
0.57
0.41
0.48
0.76
1.08
1.19
0.98
0.47
-0.13
-0.59
-0.76
-0.69
-0.52
-0.47
-0.67
-1.04
-1.38
-1.46
-1.17
-0.58
0.03
0.38
0.28
-0.17
-0.69
-0.93
-0.70
-0.09
0.61
1.09
1.17
0.93
0.60
0.43
0.47
0.59
0.55
0.18
-0.52
-1.35
-2.05
-2.37
-2.28
-1.89
-1.40
-0.98
-0.67
-0.43
-0.16
0.21
0.59
0.84
0.81
0.47
0.01
-0.35
-0.38
0.00
0.65
1.33
1.79
1.84
1.49
0.84
0.11
-0.47
-0.75
-0.64
-0.20
0.44
1.06
1.48
1.60
1.49
1.27
1.10
1.04
1.08
1.17
1.28
1.39
1.53
1.64
1.65
1.45
0.96
0.18
-0.76
-1.66
-2.31
-2.61
-2.56
-2.29
-1.93
-1.59
-1.34
-1.17
-1.11
-1.11
-1.15
-1.19
-1.17
-1.03
-0.76
-0.39
0.04
0.38
0.58
0.58
0.45
0.25
0.12
0.13
0.30
0.55
0.72
0.71
0.47
0.07
-0.33
-0.56
-0.50
-0.18
0.30
0.75
1.04
1.11
0.99
0.80
0.68
0.74
0.98
1.33
1.63
1.74
1.58
1.18
0.71
0.32
0.15
0.18
0.33
0.46
0.46
0.31
0.08
-0.16
-0.36
-0.50
-0.60
-0.62
-0.53
-0.31
0.02
0.39
0.70
0.84
0.78
0.53
0.21
-0.08
-0.23
-0.21
-0.05
0.16
0.31
0.36
0.32
0.24
0.19
0.16
0.07
-0.12
-0.45
-0.80
-1.02
-1.03
-0.83
-0.56
-0.40
-0.48
-0.80
-1.22
-1.52
-1.56
-1.30
-0.84
-0.36
-0.04
0.04
-0.09
-0.29
-0.42
-0.44
-0.34
-0.22
-0.15
-0.17
-0.21
-0.19
-0.07
0.14
0.31
0.36
0.23
-0.06
-0.41
-0.69
-0.81
-0.73
-0.53
-0.34
-0.32
-0.53
-0.90
-1.18
-1.07
-0.37
0.84
2.20
3.22
3.53
3.06
2.08
1.05
0.28
-0.14
-0.41
-0.85
-1.61
-2.66
-3.74
-4.59
-5.06
-5.14
-4.98
-4.72
-4.41
-3.98
-3.33
-2.45
-1.39
-0.31
0.59
1.18
1.48
1.60
1.74
2.05
2.56
3.15
3.60
3.69
3.39
2.79
2.14
1.66
1.41
1.37
1.39
1.34
1.12
0.79
0.43
0.19
0.17
0.38
0.73
1.05
1.15
0.93
0.48
-0.01
-0.27
-0.13
0.35
1.03
1.68
2.14
2.40
2.53
2.66
2.85
3.16
3.54
3.96
4.40
4.93
5.60
6.39
7.29
8.22
9.12
9.96
10.80
11.66
12.56
13.39
13.99
14.31
14.44
14.67
15.33
16.78
19.17
22.38
25.99
29.45
32.57
35.35
38.16
41.48
45.87
51.59
58.31
65.15
70.87
74.71
76.31
76.36
76.23
77.77
82.88
92.61
107.17
125.81
147.99
172.81
199.25
225.45
249.03
267.69
280.13
286.62
284.32
271.73
247.03
208.22
153.31
82.26
-1.68
-92.19
-181.50
-263.06
-332.65
-389.50
-434.81
-471.02
-500.14
-523.56
-542.50
-557.82
-570.19
-579.31
-587.09
-591.49
-589.47
-577.72
-553.85
-517.06
-468.32
-410.21
-346.00
-279.34
-213.11
-150.01
-91.86
-40.01
4.63
41.47
70.22
91.26
105.61
115.19
120.32
121.84
120.57
117.19
112.15
105.52
97.39
87.96
77.79
67.33
57.40
48.86
42.48
38.93
38.63
41.68
47.71
55.95
65.00
73.21
78.72
79.88
75.51
65.11
48.84
27.44
2.12
-25.54
-53.66
-80.31
-103.60
-121.67
-132.83
-135.99
-130.83
-118.12
-99.31
-76.24
-50.87
-24.63
1.74
28.16
54.82
81.85
108.85
134.98
159.36
181.42
201.30
219.91
238.72
259.27
282.65
309.11
337.95
367.36
394.33
414.88
424.77
420.82
402.47
372.55
336.42
299.93
267.11
238.73
212.60
185.42
154.88
120.97
85.65
51.52
20.62
-6.38
-29.50
-48.62
-62.94
-71.21
-72.49
-66.74
-55.22
-40.35
-25.27
-13.41
-7.87
-10.86
-23.28
-44.53
-72.92
-106.02
-141.08
-175.33
-206.19
-231.41
-249.45
-259.43
-261.15
-254.79
-240.79
-219.92
-193.78
-165.50
-139.82
-122.22
-116.68
-123.61
-138.63
-153.71
-160.25
-152.69
-131.08
-100.84
-70.25
-46.80
-34.42
-32.92
-39.57
-51.38
-66.22
-82.54
-98.20
-110.03
-114.91
-111.52
-101.48
-88.93
-78.22
-71.22
-66.17
-58.82
-45.18
-24.49
-0.28
21.04
33.17
33.04
22.18
5.90
-9.23
-18.07
-18.59
-11.90
-0.74
12.15
25.27
38.48
51.69
63.93
73.07
76.38
71.95
59.84
42.28
23.23
6.97
-3.37
-6.49
-2.89
5.76
17.64
31.64
47.61
66.26
88.40
114.33
143.68
175.56
208.70
241.41
271.42
295.70
311.00
314.91
306.94
289.06
265.14
239.33
214.65
192.15
171.35
151.41
132.18
114.46
99.29
86.96
76.48
65.89
53.40
38.19
20.96
3.60
-11.65
-23.13
-30.20
-33.36
-34.02
-34.17
-36.04
-41.60
-51.86
-66.45
-83.42
-99.87
-112.92
-120.99
-124.37
-125.02
-125.46
-127.28
-130.03
-131.18
-126.89
-113.76
-90.48
-58.71
-23.04
10.21
34.81
46.36
43.38
27.69
3.86
-21.80
-42.59
-52.69
-48.06
-27.09
9.14
56.70
109.33
159.38
199.48
224.33
232.15
224.90
207.52
185.98
165.24
147.91
133.94
121.54
108.73
94.51
79.26
64.35
51.18
40.35
31.55
23.77
15.95
7.60
-1.13
-9.70
-17.46
-24.02
-29.36
-33.74
-37.69
-41.94
-47.33
-54.67
-64.44
-76.37
-89.30
-101.37
-110.50
-115.19
-115.04
-110.87
-104.28
-97.05
-90.43
-84.90
-80.24
-75.78
-70.82
-64.85
-57.44
-48.32
-37.29
-24.35
-9.89
5.51
21.38
37.63
54.75
73.48
94.14
116.07
137.35
155.24
167.02
170.94
166.83
156.10
141.09
124.19
107.07
90.42
74.30
58.62
43.69
30.28
19.35
11.48
6.44
3.19
0.25
-3.62
-8.77
-14.47
-19.16
-21.05
-18.89
-12.33
-1.88
11.41
26.40
42.13
57.83
72.81
86.44
98.20
107.92
115.94
123.02
130.02
137.39
144.66
150.24
151.73
146.48
132.52
109.37
78.37
42.41
5.23
-29.55
-59.19
-82.04
-97.59
-106.07
-108.00
-104.03
-94.84
-81.54
-66.15
-51.94
-43.13
-43.91
-56.77
-81.04
-112.43
-143.99
-168.37
-180.46
-179.09
-167.26
-150.39
-133.94
-121.33
-113.18
-107.92
-103.40
-98.16
-92.03
-85.69
-79.89
-74.73
-69.64
-64.01
-57.84
-52.01
-47.96
-46.72
-48.23
-51.15
-53.36
-52.83
-48.42
-40.18
-29.27
-17.51
-6.75
1.64
7.18
10.37
12.46
14.89
18.62
23.71
29.36
34.47
38.34
41.21
44.08
48.17
54.18
61.74
69.56
75.90
79.21
78.43
72.98
62.58
47.39
28.32
7.42
-12.44
-28.45
-39.39
-46.85
-55.23
-70.20
-96.14
-133.75
-179.01
-224.27
-260.84
-281.87
-284.11
-268.02
-236.53
-193.55
-143.12
-89.26
-36.14
11.95
51.34
80.06
98.39
108.62
114.02
117.38
120.10
122.05
122.10
119.06
112.41
102.73
91.61
81.43
74.63
73.05
77.31
86.38
97.54
107.12
111.47
108.01
95.98
76.42
51.65
24.43
-2.56
-26.84
-45.92
-57.27
-58.81
-49.87
-32.33
-10.97
7.52
16.76
13.05
-3.21
-27.96
-55.41
-80.43
-100.05
-113.52
-120.96
-122.11
-115.78
-100.73
-77.30
-48.41
-19.29
4.20
17.76
20.47
15.11
7.13
2.73
6.84
21.54
45.53
74.39
101.70
120.87
127.01
118.44
97.22
68.36
38.03
11.51
-8.23
-20.79
-27.50
-30.27
-30.77
-30.10
-29.12
-28.64
-29.21
-30.81
-32.76
-34.04
-34.27
-34.39
-36.58
-43.28
-55.81
-73.34
-92.79
-109.73
-119.79
-119.82
-108.63
-86.98
-57.42
-23.67
9.98
39.50
61.98
76.12
82.35
82.27
77.83
70.63
61.76
52.02
42.22
33.41
26.57
22.37
20.95
22.03
25.13
29.81
35.72
42.52
49.65
56.32
61.69
65.24
67.06
67.93
68.99
71.33
75.42
80.78
86.02
89.03
87.53
79.77
65.08
44.32
19.78
-5.32
-27.68
-44.85
-55.85
-61.20
-62.52
-61.73
-60.25
-58.53
-56.07
-51.87
-45.05
-35.38
-23.48
-10.65
1.55
11.76
19.02
22.90
23.37
20.71
15.36
8.08
-0.18
-8.33
-15.36
-20.46
-23.17
-23.33
-21.00
-16.38
-9.83
-1.87
6.87
15.78
24.36
32.30
39.48
45.78
50.99
54.84
57.07
57.65
56.85
55.23
53.38
51.78
50.64
49.88
49.22
48.02
45.23
39.58
29.92
15.91
-1.54
-20.32
-37.79
-51.76
-61.24
-66.60
-69.13
-70.29
-71.16
-72.36
-74.27
-77.22
-81.38
-86.50
-91.72
-95.80
-97.85
-97.87
-96.90
-96.54
-97.99
-101.34
-105.30
-107.51
-105.41
-97.09
-81.90
-60.70
-35.95
-11.53
7.87
17.93
16.19
3.30
-16.76
-37.87
-53.84
-60.59
-57.26
-45.89
-29.99
-12.88
3.35
17.78
30.09
40.00
47.11
51.33
53.32
54.46
56.39
60.20
66.03
72.91
79.29
83.70
85.41
84.73
82.74
80.75
79.58
79.12
78.30
75.71
70.18
61.51
50.63
39.24
29.14
21.56
16.72
14.03
12.55
11.55
10.79
10.45
10.70
11.31
11.59
10.49
7.09
0.97
-7.60
-17.74
-28.24
-38.03
-46.25
-52.48
-56.64
-58.85
-59.30
-58.27
-55.92
-52.37
-47.67
-41.86
-35.11
-27.83
-20.70
-14.49
-9.83
-6.83
-5.02
-3.42
-1.00
2.83
7.96
13.69
19.15
23.66
27.07
29.58
31.46
32.79
33.42
33.15
32.01
30.29
28.43
26.72
25.04
22.82
19.22
13.47
5.25
-5.07
-16.47
-27.50
-36.68
-43.07
-46.49
-47.50
-47.10
-46.24
-45.57
-45.38
-45.72
-46.64
-48.24
-50.59
-53.44
-56.27
-58.38
-59.15
-58.18
-55.36
-50.65
-44.11
-35.84
-26.13
-15.58
-5.09
4.37
12.07
17.86
22.21
25.86
29.55
33.59
37.67
41.15
43.26
43.54
41.97
38.99
35.28
31.53
28.18
25.40
23.12
21.14
19.23
17.19
14.93
12.43
9.81
7.22
4.78
2.63
0.84
-0.52
-1.38
-1.62
-1.14
0.18
2.34
5.22
8.51
11.69
14.08
15.08
14.37
12.00
8.44
4.41
0.55
-2.80
-5.67
-8.36
-11.11
-13.94
-16.51
-18.39
-19.16
-18.68
-17.15
-15.00
-12.80
-11.01
-9.96
-9.78
-10.42
-11.76
-13.67
-16.02
-18.62
-21.17
-23.26
-24.43
-24.34
-22.86
-20.15
-16.58
-12.62
-8.70
-5.17
-2.28
-0.17
1.10
1.63
1.58
1.16
0.56
-0.14
-0.97
-1.93
-3.04
-4.24
-5.48
-6.71
-7.86
-8.74
-9.09
-8.65
-7.32
-5.27
-3.02
-1.19
-0.29
-0.45
-1.38
-2.51
-3.32
-3.51
-3.04
-2.01
-0.42
1.88
5.12
9.29
14.06
18.71
22.50
24.87
25.80
25.61
24.87
24.05
23.36
22.75
22.03
20.99
19.60
17.91
16.09
14.28
12.60
11.10
9.79
8.55
7.23
5.70
3.93
1.99
0.02
-1.86
-3.57
-5.05
-6.27
-7.22
-7.87
-8.20
-8.28
-8.18
-8.04
-8.00
-8.10
-8.33
-8.59
-8.78
-8.79
-8.66
-8.42
-8.19
-8.04
-7.97
-7.93
-7.90
-7.82
-7.72
-7.58
-7.34
-6.92
-6.30
-5.46
-4.53
-3.68
-2.99
-2.52
-2.25
-2.15
-2.16
-2.27
-2.43
-2.55
-2.56
-2.40
-2.07
-1.65
-1.25
-0.93
-0.74
-0.65
-0.66
-0.71
-0.78
-0.83
-0.79
-0.59
-0.18
0.45
1.24
2.13
3.07
4.04
4.98
5.81
6.45
6.75
6.67
6.25
5.64
5.03
4.53
4.17
3.82
3.37
2.69
1.81
0.85
0.02
-0.46
-0.47
0.07
1.07
2.40
3.85
5.25
6.47
7.47
8.26
8.83
9.18
9.33
9.34
9.31
9.34
9.41
9.44
9.26
8.73
7.79
6.49
4.92
3.18
1.37
-0.44
-2.18
-3.73
-5.00
-5.93
-6.52
-6.85
-6.95
-6.90
-6.73
-6.53
-6.35
-6.31
-6.41
-6.58
-6.71
-6.67
-6.39
-5.92
-5.42
-5.03
-4.93
-5.16
-5.71
-6.45
-7.22
-7.88
-8.30
-8.45
-8.37
-8.12
-7.75
-7.34
-6.89
-6.48
-6.18
-6.05
-6.09
-6.20
-6.27
-6.11
-5.66
-4.95
-4.09
-3.24
-2.47
-1.76
-1.00
-0.14
0.85
1.85
2.71
3.33
3.78
4.24
4.93
5.98
7.28
8.62
9.72
10.42
10.75
10.87
10.91
10.95
10.92
10.70
10.25
9.65
9.07
8.69
8.54
8.49
8.30
7.76
6.79
5.51
4.17
3.02
2.25
1.88
1.81
1.93
2.11
2.26
2.32
2.19
1.79
1.06
0.03
-1.21
-2.49
-3.68
-4.73
-5.67
-6.61
-7.62
-8.66
-9.60
-10.28
-10.57
-10.50
-10.21
-9.92
-9.83
-10.03
-10.44
-10.92
-11.34
-11.63
-11.89
-12.30
-13.00
-14.07
-15.45
-16.99
-18.57
-20.18
-21.91
-23.87
-26.10
-28.50
-30.82
-32.74
-34.02
-34.64
-34.76
-34.70
-34.72
-34.98
-35.36
-35.67
-35.69
-35.36
-34.71
-33.68
-31.88
-28.68
-23.46
-16.09
-7.24
1.84
9.94
16.53
21.99
27.33
33.37
40.12
46.81
52.40
56.28
58.70
60.41
62.06
63.65
64.56
64.11
62.13
59.19
56.08
53.21
50.07
45.35
37.64
26.15
11.32
-5.34
-21.64
-35.44
-45.09
-49.68
-49.03
-43.55
-34.13
-22.04
-8.86
3.62
13.54
19.50
20.77
17.69
11.56
4.21
-2.61
-7.83
-11.28
-13.52
-15.31
-17.20
-19.29
-21.32
-22.95
-23.96
-24.34
-24.21
-23.72
-23.05
-22.45
-22.19
-22.51
-23.53
-25.09
-26.80
-28.14
-28.59
-27.84
-25.75
-22.42
-18.04
-12.93
-7.53
-2.29
2.34
6.10
8.98
11.20
13.05
14.77
16.45
18.13
19.87
21.76
23.89
26.25
28.64
30.71
32.12
32.67
32.33
31.30
29.83
28.21
26.67
25.42
24.51
23.90
23.37
22.64
21.49
19.81
17.67
15.28
12.92
10.89
9.52
9.06
9.52
10.68
11.98
12.77
12.51
10.97
8.35
5.18
2.09
-0.38
-1.89
-2.38
-2.07
-1.29
-0.49
-0.01
-0.02
-0.49
-1.26
-2.10
-2.94
-3.85
-5.00
-6.51
-8.36
-10.33
-12.15
-13.64
-14.71
-15.48
-16.08
-16.59
-17.03
-17.31
-17.37
-17.18
-16.79
-16.22
-15.49
-14.64
-13.67
-12.69
-11.77
-11.00
-10.39
-9.85
-9.27
-8.55
-7.68
-6.74
-5.88
-5.26
-4.96
-4.98
-5.19
-5.38
-5.30
-4.74
-3.55
-1.76
0.45
2.83
5.04
6.85
8.16
9.06
9.74
10.48
11.44
12.65
14.01
15.33
16.45
17.23
17.62
17.64
17.35
16.86
16.31
15.84
15.52
15.26
14.85
14.07
12.83
11.29
9.79
8.72
8.35
8.70
9.56
10.57
11.40
11.79
11.62
10.87
9.64
8.08
6.45
5.02
4.05
3.61
3.58
3.72
3.69
3.25
2.31
0.99
-0.45
-1.77
-2.85
-3.80
-4.82
-6.14
-7.85
-9.84
-11.86
-13.62
-14.94
-15.75
-16.11
-16.08
-15.75
-15.18
-14.49
-13.83
-13.33
-13.06
-12.98
-13.03
-13.10
-13.22
-13.41
-13.69
-14.05
-14.42
-14.72
-14.88
-14.91
-14.83
-14.66
-14.35
-13.81
-13.01
-12.02
-10.97
-10.04
-9.34
-8.85
-8.38
-7.66
-6.45
-4.60
-2.18
0.53
3.10
5.07
6.10
6.15
5.49
4.59
4.04
4.28
5.50
7.67
10.51
13.66
16.77
19.53
21.73
23.25
24.06
24.18
23.76
23.01
22.24
21.77
21.85
22.50
23.46
24.31
24.59
24.06
22.78
21.11
19.55
18.47
18.01
17.93
17.74
16.88
14.96
11.98
8.41
5.14
3.09
2.87
4.53
7.41
10.43
12.30
11.93
8.65
2.36
-6.48
-16.88
-27.56
-37.37
-45.60
-52.27
-57.91
-63.07
-67.64
-70.56
-70.19
-65.22
-55.67
-43.20
-30.69
-20.92
-15.40
-13.81
-14.45
-15.34
-15.33
-14.49
-13.76
-14.11
-15.82
-18.49
-21.50
-24.49
-27.44
-30.25
-32.32
-32.74
-31.31
-29.48
-30.26
-36.70
-49.69
-66.56
-81.73
-89.36
-86.45
-74.61
-59.14
-46.22
-39.85
-40.32
-45.20
-51.52
-57.81
-64.47
-72.92
-83.97
-97.08
-110.63
-123.10
-134.00
-144.15
-155.06
-167.83
-182.16
-195.92
-205.43
-206.58
-196.24
-173.44
-139.81
-99.04
-55.70
-13.96
23.29
54.77
80.29
100.22
115.14
125.78
133.20
139.03
145.24
153.89
166.74
184.97
208.81
237.01
266.45
292.30
309.10
312.52
301.07
276.81
244.47
209.85
177.81
151.19
130.99
117.26
109.84
108.42
111.97
118.35
124.58
127.94
126.94
121.97
115.19
109.60
107.92
111.34
118.47
125.29
125.60
113.09
84.26
41.24
-7.44
-49.18
-71.88
-69.36
-43.94
-5.33
33.64
62.29
75.36
72.99
58.18
34.19
2.81
-34.98
-77.85
-123.51
-169.40
-213.89
-257.11
-300.05
-342.33
-380.93
-409.99
-422.57
-413.65
-382.55
-333.56
-274.53
-214.33
-160.01
-115.32
-80.51
-53.41
-31.34
-12.48
4.28
20.17
37.44
58.99
87.14
121.70
159.07
192.60
215.32
222.95
215.77
198.45
177.92
160.62
150.56
148.91
154.89
166.77
182.14
197.54
208.48
210.39
200.01
176.68
142.75
102.88
62.56
26.47
-2.54
-23.61
-36.98
-43.69
-44.94
-42.12
-36.82
-30.96
-26.35
-24.24
-24.99
-27.89
-31.73
-35.34
-38.00
-39.61
-40.57
-41.22
-41.59
-41.43
-40.19
-37.66
-34.07
-30.21
-27.13
-25.88
-27.02
-30.35
-35.02
-39.77
-43.61
-46.14
-47.71
-49.18
-51.41
-54.74
-58.74
-62.44
-64.84
-65.46
-64.59
-63.05
-61.69
-60.95
-60.68
-60.29
-59.14
-56.87
-53.51
-49.30
-44.47
-39.08
-32.96
-25.92
-18.06
-9.75
-1.52
6.11
12.90
18.99
24.61
30.01
35.15
39.71
43.24
45.40
46.23
46.09
45.54
45.04
44.72
44.39
43.62
42.01
39.40
35.93
31.93
27.83
24.03
20.84
18.50
17.15
16.82
17.50
19.06
21.28
23.73
25.77
26.68
25.94
23.54
20.15
16.89
14.67
13.75
13.58
13.14
11.70
9.32
6.87
5.49
5.79
7.47
9.51
10.79
10.76
9.55
7.78
5.99
4.28
2.37
-0.06
-2.99
-5.96
-8.27
-9.35
-9.07
-7.85
-6.37
-5.32
-5.05
-5.53
-6.48
-7.50
-8.28
-8.69
-8.72
-8.40
-7.80
-7.02
-6.13
-5.25
-4.53
-4.09
-4.03
-4.47
-5.51
-7.21
-9.51
-12.24
-15.12
-17.90
-20.42
-22.66
-24.63
-26.28
-27.53
-28.17
-28.05
-27.16
-25.65
-23.82
-21.98
-20.38
-19.20
-18.40
-17.83
-17.30
-16.64
-15.85
-15.13
-14.82
-15.23
-16.52
-18.52
-20.78
-22.77
-24.07
-24.56
-24.39
-23.92
-23.49
-23.30
-23.34
-23.45
-23.48
-23.33
-23.00
-22.60
-22.18
-21.78
-21.35
-20.84
-20.24
-19.56
-18.77
-17.79
-16.45
-14.67
-12.49
-10.13
-7.94
-6.14
-4.69
-3.20
-1.11
2.02
6.30
11.38
16.66
21.49
25.56
28.86
31.59
33.89
35.64
36.50
36.16
34.49
31.73
28.44
25.22
22.58
20.69
19.46
18.66
18.04
17.47
16.86
16.23
15.55
14.80
14.01
13.24
12.60
12.18
12.01
12.05
12.24
12.57
13.05
13.72
14.55
15.46
16.37
17.21
18.02
18.88
19.86
20.93
21.94
22.68
22.98
22.81
22.18
21.24
20.04
18.56
16.70
14.38
11.60
8.52
5.44
2.63
0.22
-1.90
-4.09
-6.74
-10.06
-13.98
-18.11
-21.93
-25.05
-27.34
-28.95
-30.20
-31.35
-32.51
-33.62
-34.55
-35.21
-35.62
-35.88
-36.07
-36.16
-35.92
-35.10
-33.48
-31.11
-28.28
-25.51
-23.30
-21.92
-21.32
-21.15
-20.98
-20.51
-19.75
-18.93
-18.36
-18.21
-18.50
-19.09
-19.86
-20.83
-22.11
-23.79
-25.78
-27.78
-29.40
-30.28
-30.24
-29.29
-27.45
-24.66
-20.67
-15.19
-7.95
1.11
11.83
23.75
36.11
47.92
58.04
65.55
69.88
71.12
69.93
67.32
64.24
61.34
58.74
56.27
53.64
50.63
47.20
43.43
39.35
34.96
30.24
25.29
20.31
15.68
11.76
8.81
6.87
5.77
5.20
4.85
4.57
4.36
4.35
4.69
5.44
6.56
7.85
9.14
10.25
11.06
11.50
11.53
11.08
10.14
8.72
6.86
4.62
2.08
-0.71
-3.76
-7.11
-10.75
-14.57
-18.34
-21.80
-24.70
-26.98
-28.81
-30.58
-32.69
-35.31
-38.27
-41.07
-43.08
-43.81
-43.10
-41.14
-38.34
-35.09
-31.69
-28.23
-24.79
-21.48
-18.48
-16.05
-14.36
-13.41
-13.02
-12.87
-12.61
-12.04
-11.15
-10.14
-9.37
-9.12
-9.52
-10.41
-11.49
-12.46
-13.22
-13.92
-14.88
-16.39
-18.48
-20.89
-23.22
-25.04
-26.20
-26.85
-27.32
-27.91
-28.70
-29.46
-29.79
-29.26
-27.64
-24.95
-21.38
-17.17
-12.45
-7.22
-1.38
5.03
11.71
18.12
23.67
27.90
30.74
32.49
33.61
34.51
35.36
36.14
36.80
37.33
37.88
38.55
39.29
39.86
39.87
39.07
37.43
35.24
32.96
31.12
30.11
30.19
31.39
33.58
36.45
39.64
42.87
46.04
49.25
52.67
56.36
60.10
63.48
66.03
67.40
67.62
67.02
66.11
65.28
64.62
63.87
62.57
60.20
56.39
50.92
43.75
35.00
24.80
13.47
1.53
-10.39
-21.65
-31.91
-41.17
-49.82
-58.26
-66.56
-74.31
-80.71
-84.95
-86.62
-86.01
-83.91
-81.28
-78.86
-76.99
-75.70
-74.85
-74.51
-74.72
-75.55
-76.75
-77.74
-77.59
-75.44
-70.76
-63.59
-54.73
-45.32
-36.56
-29.36
-24.03
-20.33
-17.72
-15.63
-13.72
-11.89
-10.06
-8.06
-5.50
-1.97
2.83
8.85
15.69
22.66
29.07
34.41
38.43
41.09
42.56
43.06
42.86
42.09
40.82
39.02
36.67
33.82
30.61
27.30
24.13
21.20
18.44
15.68
12.75
9.67
6.62
3.95
1.91
0.54
-0.38
-1.23
-2.34
-3.89
-5.79
-7.80
-9.62
-11.08
-12.18
-13.03
-13.78
-14.52
-15.24
-15.87
-16.40
-16.87
-17.44
-18.32
-19.63
-21.31
-23.14
-24.74
-25.76
-25.99
-25.41
-24.13
-22.26
-19.86
-17.00
-13.84
-10.70
-8.06
-6.36
-5.79
-6.22
-7.27
-8.46
-9.50
-10.27
-10.91
-11.53
-12.12
-12.54
-12.59
-12.16
-11.26
-10.05
-8.68
-7.26
-5.83
-4.32
-2.70
-0.92
1.10
3.37
5.91
8.68
11.53
14.25
16.64
18.55
20.02
21.22
22.32
23.33
24.13
24.44
24.08
23.05
21.59
20.07
18.81
17.92
17.31
16.79
16.22
15.63
15.18
15.04
15.25
15.69
16.08
16.20
15.91
15.27
14.51
13.89
13.60
13.73
14.19
14.81
15.44
16.01
16.51
16.99
17.48
17.98
18.45
18.90
19.35
19.89
20.63
21.56
22.61
23.57
24.24
24.51
24.35
23.87
23.22
22.51
21.83
21.13
20.33
19.36
18.20
16.91
15.61
14.40
13.19
11.73
9.57
6.24
1.48
-4.60
-11.53
-18.58
-25.05
-30.54
-34.94
-38.46
-41.39
-43.93
-46.05
-47.54
-48.15
-47.77
-46.57
-44.93
-43.32
-42.08
-41.30
-40.84
-40.47
-40.02
-39.44
-38.85
-38.35
-37.91
-37.35
-36.41
-34.93
-32.91
-30.54
-28.08
-25.65
-23.24
-20.68
-17.78
-14.44
-10.77
-6.99
-3.35
0.00
3.06
5.96
8.78
11.60
14.33
16.90
19.18
21.12
22.76
24.12
25.18
25.82
25.84
25.08
23.49
21.19
18.53
15.97
13.92
12.58
11.89
11.57
11.27
10.72
9.94
9.13
8.64
8.73
9.39
10.35
11.15
11.47
11.23
10.67
10.21
10.21
10.82
11.94
13.28
14.62
15.89
17.22
18.79
20.70
22.88
25.11
27.09
28.61
29.54
29.86
29.62
28.87
27.67
26.05
24.05
21.77
19.37
17.05
14.97
13.22
11.80
10.55
9.26
7.77
6.03
4.12
2.22
0.47
-1.10
-2.58
-4.14
-5.92
-7.94
-10.07
-12.10
-13.90
-15.44
-16.89
-18.51
-20.52
-22.99
-25.70
-28.30
-30.39
-31.76
-32.45
-32.69
-32.76
-32.75
-32.63
-32.20
-31.35
-30.06
-28.49
-26.82
-25.19
-23.63
-22.10
-20.55
-18.98
-17.42
-15.92
-14.44
-12.94
-11.39
-9.80
-8.20
-6.66
-5.21
-3.88
-2.69
-1.63
-0.66
0.33
1.45
2.82
4.43
6.20
8.03
9.81
11.52
13.19
14.85
16.39
17.62
18.27
18.14
17.20
15.62
13.64
11.49
9.28
6.99
4.59
2.07
-0.45
-2.78
-4.73
-6.22
-7.32
-8.23
-9.11
-10.06
-11.03
-11.93
-12.65
-13.17
-13.53
-13.86
-14.22
-14.56
-14.74
-14.58
-13.96
-12.89
-11.49
-9.97
-8.52
-7.27
-6.26
-5.48
-4.87
-4.38
-3.93
-3.49
-3.00
-2.46
-1.88
-1.27
-0.62
0.17
1.17
2.43
3.88
5.32
6.53
7.30
7.48
7.09
6.24
5.11
3.87
2.68
1.71
1.06
0.79
0.87
1.19
1.64
2.09
2.55
3.11
3.94
5.15
6.75
8.51
10.02
10.75
10.21
8.21
4.96
1.16
-2.10
-3.80
-3.33
-0.83
2.74
6.00
7.77
7.60
5.94
3.84
2.43
2.31
3.42
5.34
7.56
9.86
12.25
14.76
17.19
19.12
20.16
20.29
19.90
19.61
19.89
20.81
22.04
23.08
23.63
23.70
23.46
22.98
22.13
20.54
18.08
15.10
12.57
11.75
13.62
18.44
25.54
33.54
40.72
45.53
46.86
44.25
37.96
28.82
18.00
6.76
-3.97
-13.94
-23.60
-33.80
-45.08
-57.01
-68.05
-75.94
-78.84
-76.22
-69.48
-61.39
-55.02
-52.34
-53.47
-56.78
-59.96
-61.19
-59.84
-56.41
-51.90
-47.13
-42.49
-38.07
-34.03
-30.76
-28.48
-26.42
-22.31
-12.64
6.20
36.21
76.31
121.83
165.51
199.56
218.11
219.09
204.53
179.70
151.13
124.66
103.94
90.07
82.02
77.53
74.04
69.30
61.78
50.70
36.37
20.25
4.95
-6.28
-10.89
-8.53
-2.08
2.83
-0.28
-15.61
-42.72
-76.03
-106.98
-128.13
-136.93
-137.21
-137.38
-146.28
-168.62
-202.36
-239.19
-267.74
-277.83
-263.76
-225.72
-169.01
-102.14
-34.54
25.69
73.20
106.03
124.83
131.64
128.52
117.04
98.76
76.32
53.90
36.53
28.40
30.93
42.19
57.82
73.19
85.37
93.70
98.64
99.85
95.23
81.74
57.55
24.08
-13.71
-49.09
-76.40
-93.28
-101.10
-103.32
-103.11
-101.58
-97.85
-90.44
-78.93
-64.67
-50.11
-37.42
-27.37
-19.40
-12.37
-5.59
0.73
5.68
8.57
9.44
9.18
9.33
11.29
15.75
22.37
29.91
36.51
40.36
40.15
35.52
27.27
17.15
7.37
-0.15
-4.52
-6.50
-8.52
-13.98
-26.09
-46.42
-73.96
-105.27
-135.72
-161.13
-179.31
-190.44
-196.43
-199.55
-201.18
-201.55
-200.23
-196.88
-191.54
-184.16
-174.08
-159.97
-140.88
-117.59
-93.36
-73.05
-60.95
-58.12
-61.11
-62.66
-54.67
-31.03
10.18
66.27
131.41
198.96
262.97
319.26
365.57
400.66
424.43
438.25
445.11
449.07
453.93
460.99
467.80
468.42
455.58
423.95
372.87
307.27
236.06
168.82
112.44
69.52
38.81
17.00
0.68
-12.84
-25.52
-39.05
-55.41
-76.77
-104.40
-137.70
-173.94
-208.25
-234.97
-249.76
-250.85
-239.86
-221.32
-200.72
-182.34
-167.86
-156.11
-144.73
-131.97
-117.69
-103.01
-89.17
-76.27
-63.27
-49.08
-34.20
-21.52
-15.63
-20.82
-38.72
-67.03
-100.02
-130.84
-154.11
-167.55
-172.08
-170.31
-164.59
-156.37
-146.57
-136.34
-127.47
-121.79
-119.54
-118.47
-114.54
-103.99
-85.58
-61.53
-36.78
-16.82
-5.33
-3.09
-8.67
-19.85
-34.54
-50.96
-66.98
-79.64
-85.71
-82.87
-70.96
-52.19
-30.27
-8.80
10.02
25.86
39.94
54.07
69.83
88.00
108.57
131.00
154.38
177.51
198.73
216.18
228.05
233.15
231.47
224.39
214.38
204.51
197.83
197.24
204.96
221.74
245.75
271.67
291.12
295.18
277.96
240.02
189.01
136.96
95.21
69.56
58.15
53.40
46.14
29.84
2.72
-32.82
-72.22
-110.53
-143.22
-166.34
-176.61
-172.05
-152.90
-122.04
-84.37
-45.41
-9.86
19.14
39.75
51.36
54.25
49.91
41.43
33.16
29.28
32.60
43.62
60.27
79.43
98.13
113.98
124.95
128.69
122.29
102.70
67.85
17.04
-48.71
-127.49
-217.41
-316.24
-420.71
-525.15
-621.12
-698.72
-749.36
-768.57
-757.38
-721.53
-668.79
-606.44
-539.80
-472.17
-405.92
-343.63
-287.80
-240.33
-201.54
-169.37
-140.32
-111.04
-79.12
-43.71
-5.39
34.95
77.24
122.46
172.84
230.95
298.38
374.31
454.37
530.43
592.07
629.63
637.79
617.96
578.35
531.10
488.06
457.15
440.81
437.20
442.47
452.89
465.81
479.18
490.62
496.84
494.08
478.77
448.34
401.48
338.32
260.23
170.16
72.39
-27.38
-122.14
-204.18
-266.09
-302.21
-310.45
-293.33
-258.00
-214.89
-175.26
-148.13
-138.36
-145.66
-165.21
-189.59
-211.16
-224.18
-225.70
-215.74
-196.48
-171.43
-144.43
-118.84
-97.23
-81.06
-70.36
-63.68
-58.50
-51.93
-42.02
-28.39
-12.41
3.48
16.93
26.54
32.10
34.20
33.76
31.68
28.92
26.58
25.93
28.03
33.34
41.44
51.18
60.95
68.78
72.54
70.21
60.64
44.30
23.86
3.68
-11.57
-18.89
-18.76
-15.29
-14.51
-21.32
-36.77
-57.41
-77.01
-89.86
-93.51
-89.69
-82.61
-76.41
-73.09
-72.09
-71.85
-71.87
-73.66
-79.71
-91.28
-106.09
-118.00
-119.12
-103.36
-69.74
-23.57
25.17
65.69
90.69
98.96
95.10
86.79
81.05
81.34
86.76
93.22
95.90
91.50
79.41
61.73
42.06
23.97
9.74
-0.20
-6.94
-12.10
-16.77
-20.97
-23.93
-25.04
-24.54
-23.77
-24.52
-28.08
-34.50
-42.65
-50.85
-57.64
-62.33
-65.05
-66.29
-66.55
-66.36
-66.48
-67.94
-71.91
-79.12
-89.42
-101.59
-113.60
-123.36
-129.20
-130.26
-126.58
-118.82
-107.78
-94.24
-78.93
-62.26
-44.45
-25.38
-4.54
18.55
43.99
71.22
98.79
124.29
145.12
158.85
164.38
162.67
156.57
149.75
144.99
142.85
141.33
137.18
127.66
112.27
93.13
73.74
56.85
42.72
28.81
11.35
-12.29
-42.02
-74.95
-106.83
-134.37
-156.37
-173.68
-187.71
-198.39
-203.41
-199.53
-185.23
-162.43
-136.99
-115.98
-103.89
-100.19
-99.61
-94.99
-81.52
-59.25
-32.06
-4.60
20.91
45.96
74.18
108.44
148.98
192.63
234.88
272.32
304.20
332.02
356.86
376.76
386.14
377.72
345.93
290.53
218.20
138.47
64.32
7.61
-24.62
-31.33
-16.47
13.21
50.88
91.00
131.38
169.83
203.55
229.21
243.96
246.76
238.22
220.49
196.45
167.18
134.27
99.08
62.74
26.28
-9.18
-42.67
-73.40
-101.06
-125.80
-147.92
-168.04
-186.95
-205.60
-224.70
-244.80
-265.93
-287.95
-310.42
-333.08
-356.05
-379.29
-401.77
-420.35
-430.31
-427.03
-408.06
-374.41
-330.15
-280.72
-231.00
-184.58
-143.72
-110.83
-89.40
-83.51
-95.83
-125.58
-167.77
-214.14
-255.27
-282.69
-290.43
-275.18
-235.97
-173.81
-91.50
6.50
114.31
224.75
329.94
421.55
491.20
531.77
538.14
508.33
444.26
351.86
240.55
122.24
9.68
-85.17
-152.56
-186.82
-187.54
-159.52
-111.83
-56.05
-3.63
36.88
61.26
69.66
65.21
52.11
33.59
11.13
-15.42
-46.71
-82.46
-120.82
-158.16
-189.46
-209.05
-212.20
-196.11
-161.11
-111.23
-53.78
2.51
49.94
84.31
105.68
117.52
124.61
130.39
135.75
139.18
138.26
131.49
119.46
104.60
90.04
78.01
68.44
59.35
48.66
36.20
25.08
21.36
31.76
60.64
107.27
165.13
223.55
271.80
302.67
314.46
310.52
296.66
277.98
256.85
232.71
203.59
167.72
124.81
76.36
25.20
-24.98
-70.44
-108.04
-135.66
-152.72
-160.34
-160.77
-156.42
-148.95
-138.82
-125.76
-109.53
-90.78
-71.32
-54.00
-41.47
-35.14
-34.41
-37.08
-40.45
-42.91
-45.12
-49.58
-59.80
-78.15
-104.37
-135.00
-164.42
-187.11
-199.65
-201.48
-194.47
-181.24
-163.58
-142.17
-117.26
-89.74
-61.83
-36.41
-15.80
-0.57
10.41
18.92
25.97
31.06
32.90
30.62
24.89
17.73
11.55
7.69
5.80
4.59
2.57
-0.35
-2.76
-2.43
2.03
10.27
20.30
29.78
37.52
44.31
52.71
65.70
85.12
110.52
139.55
168.83
195.30
216.61
230.66
234.89
226.62
204.11
168.10
122.58
73.37
26.40
-15.14
-51.78
-86.67
-122.62
-158.75
-189.02
-203.58
-193.61
-156.27
-96.86
-29.25
28.47
59.94
55.31
13.61
-58.46
-150.40
-251.63
-352.56
-446.25
-527.26
-587.79
-619.88
-617.23
-577.07
-502.49
-407.91
-306.91
-210.86
-126.58
-56.81
-0.71
42.91
75.35
98.02
112.63
123.26
135.37
156.20
192.43
248.00
322.47
411.16
506.59
600.84
688.82
767.73
837.25
897.90
948.66
985.17
999.65
982.17
924.29
823.42
684.79
520.97
348.51
182.71
33.79
-94.60
-203.46
-295.61
-372.37
-432.46
-472.30
-487.34
-474.13
-431.96
-364.13
-277.74
-183.56
-94.30
-22.73
21.12
32.63
13.32
-29.28
-83.37
-136.09
-176.62
-198.24
-199.31
-182.16
-151.40
-112.36
-70.48
-31.30
-0.68
16.18
16.00
-1.27
-31.90
-68.99
-104.52
-131.78
-147.22
-151.42
-147.88
-141.17
-134.95
-130.72
-127.60
-123.62
-117.33
-108.61
-99.03
-90.68
-84.71
-80.97
-78.31
-75.29
-71.17
-66.51
-63.07
-63.47
-70.22
-85.25
-109.25
-141.25
-178.50
-216.92
-252.09
-280.15
-298.71
-306.28
-302.11
-285.59
-256.75
-217.11
-170.61
-123.31
-81.77
-50.91
-32.02
-22.80
-18.83
-16.09
-12.61
-8.99
-7.10
-8.29
-12.35
-17.24
-20.24
-18.88
-12.22
-0.85
13.47
28.42
41.84
52.11
58.38
60.52
59.19
55.52
50.65
45.94
42.84
43.25
49.36
63.40
86.76
119.09
157.99
199.23
238.34
271.47
296.12
310.52
313.18
302.41
276.78
236.79
185.52
128.62
71.86
18.94
-30.62
-80.37
-134.13
-192.52
-251.12
-301.78
-335.56
-346.79
-334.83
-303.61
-259.46
-207.93
-152.16
-92.64
-29.14
38.52
109.58
182.34
253.94
319.87
373.79
408.67
419.08
403.37
365.63
315.01
263.40
221.56
196.19
188.67
195.84
211.92
230.11
244.02
248.40
239.65
216.37
179.31
131.00
74.88
14.49
-46.55
-104.78
-156.85
-199.99
-231.83
-251.31
-258.72
-255.58
-244.38
-228.34
-210.77
-195.11
-184.40
-180.35
-182.78
-189.57
-197.45
-203.02
-204.17
-200.36
-192.83
-184.00
-176.50
-172.51
-173.43
-179.40
-189.34
-200.82
-210.50
-214.48
-209.35
-192.97
-165.12
-127.56
-83.41
-36.26
10.54
54.42
93.51
126.54
152.74
171.53
182.75
186.74
184.30
176.70
165.54
152.41
138.88
126.34
115.43
106.15
97.87
89.52
80.07
69.01
56.35
42.83
29.36
16.84
5.72
-3.90
-12.12
-18.90
-23.93
-26.88
-27.57
-26.49
-24.54
-22.91
-22.38
-23.06
-24.26
-24.71
-23.23
-18.95
-11.88
-2.63
7.53
17.32
25.64
32.27
38.10
45.16
56.16
73.50
98.12
128.82
162.16
193.44
218.28
234.07
240.87
241.52
240.44
242.07
249.44
262.70
278.94
292.66
297.30
287.10
259.13
214.22
156.73
93.17
29.74
-29.03
-80.82
-124.45
-158.96
-182.89
-195.21
-196.53
-190.15
-181.64
-176.86
-179.59
-189.76
-203.83
-216.72
-224.58
-226.45
-224.32
-221.56
-220.33
-220.16
-217.81
-208.92
-190.36
-162.06
-127.10
-90.54
-57.30
-30.65
-12.12
-2.00
-0.55
-8.44
-25.89
-51.44
-81.36
-110.01
-131.48
-141.72
-139.70
-127.68
-110.23
-92.32
-77.77
-68.12
-62.43
-57.83
-51.08
-39.84
-23.70
-4.06
16.92
37.33
56.14
73.18
88.69
102.65
114.68
124.04
130.22
133.30
133.78
132.04
128.03
121.02
110.03
94.68
75.35
53.23
30.06
7.68
-12.27
-28.50
-40.46
-48.65
-54.46
-60.17
-68.23
-80.32
-96.14
-113.21
-127.73
-135.92
-135.22
-124.61
-104.11
-74.16
-35.39
11.10
63.23
117.43
168.88
212.62
245.08
265.10
273.73
273.26
265.76
252.12
231.95
204.30
168.65
125.69
77.48
26.96
-22.84
-69.22
-110.05
-143.69
-168.94
-185.15
-192.17
-190.17
-179.72
-161.74
-137.63
-109.48
-79.87
-51.28
-25.64
-3.92
13.91
28.43
40.11
48.95
54.48
56.24
54.41
49.76
43.65
37.49
32.28
28.26
25.12
22.14
18.74
14.84
10.73
6.87
3.65
1.18
-0.78
-2.60
-4.62
-6.87
-9.15
-11.07
-12.28
-12.56
-11.90
-10.45
-8.42
-6.03
-3.46
-0.84
1.66
3.92
5.87
7.48
8.82
9.99
11.16
12.52
14.26
16.49
19.20
22.20
25.11
27.47
28.84
28.96
27.85
25.85
23.44
21.16
19.33
18.05
17.19
16.53
15.91
15.25
14.58
13.89
13.14
12.20
10.96
9.40
7.56
5.60
3.66
1.84
0.19
-1.27
-2.60
-3.86
-5.12
-6.37
-7.55
-8.53
-9.24
-9.70
-10.03
-10.40
-10.94
-11.62
-12.32
-12.87
-13.18
-13.27
-13.24
-13.15
-13.00
-12.67
-12.08
-11.27
-10.45
-9.98
-10.20
-11.21
-12.88
-14.82
-16.51
-17.56
-17.77
-17.23
-16.22
-15.05
-13.91
-12.83
-11.68
-10.34
-8.78
-7.11
-5.49
-4.08
-2.88
-1.77
-0.61
0.69
2.06
3.34
4.31
4.86
5.03
5.00
5.01
5.26
5.80
6.53
7.22
7.64
7.69
7.41
6.96
6.52
6.09
5.56
4.74
3.48
1.76
-0.23
-2.25
-4.08
-5.62
-6.89
-7.94
-8.75
-9.27
-9.39
-9.08
-8.45
-7.72
-7.14
-6.93
-7.11
-7.57
-8.12
-8.58
-8.88
-9.10
-9.42
-9.98
-10.85
-11.96
-13.20
-14.41
-15.50
-16.43
-17.19
-17.76
-18.07
-18.03
-17.59
-16.77
-15.72
-14.60
-13.59
-12.74
-12.00
-11.25
-10.37
-9.31
-8.06
-6.68
-5.19
-3.62
-1.93
-0.09
1.91
4.00
6.05
7.90
9.37
10.33
10.74
10.74
10.49
10.19
10.01
10.01
10.19
10.52
11.02
11.69
12.54
13.46
14.24
14.71
14.72
14.35
13.83
13.43
13.33
13.50
13.75
13.79
13.39
12.51
11.24
9.81
8.41
7.16
6.06
5.03
4.00
2.94
1.87
0.84
-0.10
-0.93
-1.64
-2.29
-2.93
-3.64
-4.40
-5.19
-6.00
-6.78
-7.55
-8.32
-9.13
-10.01
-10.92
-11.80
-12.58
-13.19
-13.63
-13.97
-14.27
-14.58
-14.90
-15.15
-15.25
-15.12
-14.76
-14.28
-13.79
-13.36
-12.93
-12.32
-11.36
-10.02
-8.42
-6.82
-5.46
-4.48
-3.81
-3.19
-2.40
-1.23
0.30
2.08
3.87
5.45
6.69
7.53
8.06
8.44
8.84
9.33
9.84
10.24
10.43
10.44
10.48
10.78
11.46
12.43
13.41
14.10
14.35
14.24
13.98
13.79
13.72
13.60
13.16
12.20
10.73
8.98
7.29
5.91
4.91
4.16
3.45
2.62
1.63
0.62
-0.25
-0.88
-1.32
-1.67
-2.08
-2.60
-3.16
-3.60
-3.79
-3.72
-3.56
-3.59
-4.06
-5.06
-6.44
-7.88
-9.04
-9.74
-9.99
-9.96
-9.89
-9.90
-9.95
-9.97
-9.83
-9.48
-8.97
-8.34
-7.64
-6.88
-6.00
-4.99
-3.83
-2.55
-1.24
0.01
1.07
1.85
2.35
2.63
2.82
3.07
3.48
4.08
4.77
5.38
5.78
5.93
5.92
5.94
6.14
6.59
7.18
7.74
8.08
8.16
7.97
7.60
7.09
6.41
5.54
4.47
3.30
2.18
1.24
0.52
-0.06
-0.68
-1.50
-2.62
-4.03
-5.58
-7.07
-8.31
-9.23
-9.89
-10.48
-11.17
-12.01
-12.89
-13.53
-13.62
-13.02
-11.86
-10.42
-9.05
-7.99
-7.21
-6.53
-5.71
-4.62
-3.30
-1.97
-0.87
-0.12
0.28
0.54
0.87
1.43
2.18
2.95
3.56
3.86
3.94
3.98
4.22
4.72
5.40
6.01
6.34
6.32
6.10
5.96
6.21
6.93
8.02
9.16
9.97
10.21
9.87
9.12
8.22
7.39
6.65
5.91
5.04
4.01
2.84
1.67
0.58
-0.44
-1.47
-2.63
-3.93
-5.31
-6.54
-7.34
-7.46
-6.79
-5.44
-3.74
-2.13
-0.94
-0.27
0.11
0.58
1.53
3.07
5.03
7.05
8.81
10.20
11.31
12.32
13.35
14.35
15.10
15.39
15.12
14.37
13.35
12.24
11.16
10.15
9.21
8.40
7.81
7.62
7.88
8.53
9.22
9.53
9.04
7.61
5.44
3.09
1.18
0.10
-0.30
-0.74
-2.24
-5.67
-11.17
-17.89
-24.29
-28.75
-30.45
-29.91
-28.91
-29.75
-34.04
-41.79
-50.98
-58.33
-60.58
-55.91
-44.65
-29.00
-11.95
3.70
15.97
24.02
28.03
29.58
32.00
40.59
61.26
97.84
148.79
205.49
253.92
279.37
272.28
232.38
168.79
96.29
29.42
-22.49
-57.19
-78.16
-91.37
-102.15
-113.61
-126.88
-142.04
-158.81
-176.70
-194.31
-209.24
-218.45
-219.13
-209.81
-191.22
-165.96
-137.39
-108.20
-79.52
-51.16
-22.93
4.10
26.94
41.26
43.07
30.64
5.42
-28.26
-64.74
-99.02
-127.98
-150.78
-167.80
-179.54
-185.97
-186.64
-181.67
-172.25
-160.73
-149.23
-138.75
-128.12
-114.55
-95.09
-68.21
-34.25
5.07
47.41
90.14
129.76
161.46
179.76
180.96
165.58
139.84
114.24
99.65
103.13
125.61
162.88
208.51
256.44
301.55
338.64
361.55
364.31
344.05
303.84
252.75
202.62
163.03
137.71
123.94
115.33
105.97
93.04
76.90
59.04
39.82
17.66
-9.78
-43.66
-82.65
-123.02
-159.74
-188.35
-206.33
-213.75
-212.89
-207.07
-199.56
-192.36
-185.80
-178.89
-170.39
-159.77
-147.79
-136.20
-126.93
-121.13
-118.56
-117.69
-116.44
-113.19
-107.27
-98.84
-88.55
-76.76
-63.25
-47.25
-27.54
-2.84
28.02
65.62
109.24
156.09
201.10
237.82
260.17
264.52
250.92
222.81
185.52
144.92
106.08
73.30
50.92
43.05
53.16
82.95
131.44
194.53
265.49
335.33
393.77
430.58
437.63
411.60
355.45
278.12
191.86
108.13
34.33
-27.32
-78.32
-121.24
-157.28
-185.68
-205.13
-215.43
-218.83
-219.60
-222.64
-231.61
-248.29
-272.34
-302.04
-335.14
-368.67
-398.73
-420.61
-429.71
-423.24
-401.81
-369.54
-332.36
-295.20
-259.69
-224.11
-185.58
-142.96
-98.46
-56.74
-21.92
5.28
28.61
54.81
90.32
138.11
196.06
257.28
312.19
351.19
367.21
357.45
324.17
274.23
217.18
162.96
119.21
89.73
74.27
69.73
71.72
75.94
79.01
78.46
72.72
61.14
44.10
23.18
0.95
-19.62
-36.02
-46.91
-52.52
-54.27
-54.15
-53.87
-54.42
-55.97
-58.19
-60.32
-61.28
-59.61
-53.38
-41.16
-22.69
0.30
24.24
44.62
57.64
61.88
58.61
51.40
44.92
43.72
51.41
70.50
101.76
143.46
190.59
234.74
265.77
274.56
256.09
211.69
148.69
77.93
9.63
-50.09
-100.38
-144.41
-186.40
-228.23
-268.26
-301.79
-322.80
-326.63
-311.42
-277.92
-228.41
-165.47
-91.35
-8.13
81.66
174.59
266.41
352.11
425.45
479.25
506.40
501.81
464.74
399.70
315.70
223.55
132.80
49.74
-22.92
-84.57
-135.20
-175.04
-204.89
-226.77
-244.02
-259.76
-275.61
-290.95
-303.29
-309.23
-305.77
-290.76
-262.88
-222.62
-172.59
-118.28
-67.51
-28.48
-7.23
-5.34
-18.93
-40.02
-59.26
-68.81
-64.12
-44.27
-11.39
30.06
74.17
114.29
144.30
159.96
160.40
148.46
129.90
111.61
99.17
95.23
99.07
107.60
117.15
125.21
131.01
134.88
137.28
137.75
134.87
127.03
113.24
93.80
70.05
43.80
16.53
-10.83
-37.72
-63.52
-87.17
-107.24
-122.24
-131.28
-134.53
-133.37
-130.04
-126.91
-125.76
-127.18
-130.46
-133.82
-135.15
-132.64
-125.37
-113.49
-98.14
-81.09
-64.06
-48.31
-34.19
-21.41
-9.64
0.75
8.45
11.77
9.64
2.91
-4.95
-8.18
-0.54
22.87
63.98
121.19
189.46
261.03
326.50
376.36
403.02
402.90
377.70
334.02
281.14
227.81
179.57
137.89
101.14
66.79
33.05
-0.56
-33.89
-67.14
-100.86
-135.42
-170.20
-203.45
-232.97
-256.92
-274.35
-285.24
-290.24
-290.39
-287.18
-282.42
-277.99
-274.79
-272.19
-268.12
-260.09
-246.50
-227.36
-203.94
-177.93
-150.91
-124.55
-101.36
-84.63
-77.05
-78.63
-85.29
-89.82
-84.89
-66.73
-36.92
-1.32
33.41
63.25
88.12
110.62
133.07
155.20
173.87
184.82
185.13
174.85
156.89
135.49
114.47
96.02
80.63
67.85
57.23
48.87
43.48
41.62
43.06
46.29
48.60
46.86
38.76
23.81
3.76
-18.05
-37.98
-53.50
-64.03
-70.74
-75.67
-80.53
-86.09
-92.11
-98.11
-104.03
-110.51
-118.49
-128.30
-139.18
-149.31
-156.64
-160.04
-159.86
-158.10
-157.84
-162.26
-173.42
-191.50
-214.20
-236.85
-253.33
-257.06
-242.57
-206.78
-149.77
-74.51
14.01
110.05
207.84
302.09
388.01
460.86
515.61
546.95
549.77
520.54
459.12
370.13
262.76
149.26
41.83
-50.16
-121.67
-171.83
-202.52
-216.59
-217.09
-207.41
-191.18
-172.35
-154.34
-138.85
-125.73
-113.53
-100.19
-83.88
-63.38
-38.08
-8.33
24.79
59.72
95.22
131.08
168.07
206.75
245.78
280.84
305.11
311.68
296.77
261.77
213.09
159.66
109.44
66.87
32.55
4.59
-19.05
-39.23
-55.52
-66.97
-73.14
-74.67
-73.12
-70.31
-67.67
-65.55
-63.09
-58.62
-50.26
-36.91
-18.95
1.66
22.05
39.51
52.36
60.22
63.58
63.00
58.63
50.32
38.16
23.15
7.25
-7.16
-18.15
-24.97
-28.15
-29.02
-29.00
-29.00
-29.20
-29.16
-28.16
-25.54
-20.96
-14.53
-6.77
1.56
9.66
16.89
22.86
27.50
30.88
33.13
34.33
34.53
33.88
32.63
31.15
29.75
28.57
27.47
26.15
24.29
21.81
18.92
16.06
13.62
11.73
10.20
8.66
6.83
4.68
2.52
0.75
-0.35
-0.83
-1.02
-1.33
-2.05
-3.13
-4.24
-4.93
-4.86
-4.00
-2.68
-1.41
-0.72
-0.97
-2.18
-4.10
-6.36
-8.64
-10.84
-13.10
-15.64
-18.52
-21.59
-24.44
-26.59
-27.77
-28.01
-27.66
-27.13
-26.72
-26.48
-26.21
-25.67
-24.71
-23.40
-22.02
-20.90
-20.28
-20.18
-20.40
-20.57
-20.30
-19.30
-17.46
-14.76
-11.28
-7.09
-2.33
2.76
7.81
12.38
15.98
18.31
19.37
19.39
18.79
17.98
17.18
16.45
15.66
14.70
13.51
12.21
10.95
9.88
9.07
8.42
7.81
7.12
6.39
5.76
5.44
5.52
5.94
6.43
6.59
6.09
4.82
3.01
1.14
-0.27
-0.95
-0.96
-0.74
-0.82
-1.48
-2.64
-3.84
-4.56
-4.49
-3.75
-2.82
-2.26
-2.45
-3.36
-4.67
-5.89
-6.73
-7.11
-7.27
-7.50
-8.00
-8.68
-9.22
-9.19
-8.33
-6.74
-4.86
-3.30
-2.56
-2.78
-3.70
-4.77
-5.53
-5.76
-5.58
-5.28
-5.16
-5.30
-5.55
-5.68
-5.47
-4.87
-3.99
-3.00
-2.01
-1.06
-0.09
0.93
1.95
2.82
3.39
3.55
3.35
2.97
2.56
2.24
2.02
1.78
1.47
1.10
0.74
0.49
0.42
0.51
0.69
0.92
1.16
1.39
1.60
1.72
1.71
1.60
1.48
1.48
1.68
2.07
2.60
3.17
3.78
4.43
5.14
5.83
6.42
6.85
7.16
7.58
8.38
9.77
11.75
14.05
16.32
18.24
19.72
20.86
21.86
22.97
24.41
26.23
28.45
31.09
34.36
38.60
44.24
51.56
60.61
71.24
82.83
94.38
104.62
112.18
115.74
114.19
106.71
92.98
73.25
48.44
20.14
-9.58
-38.47
-64.48
-86.11
-102.62
-113.94
-120.54
-123.15
-122.45
-119.09
-113.76
-107.14
-99.94
-92.82
-86.25
-80.37
-75.09
-70.03
-64.87
-59.63
-54.49
-49.71
-45.45
-41.69
-38.24
-34.86
-31.41
-27.93
-24.57
-21.50
-18.80
-16.46
-14.35
-12.31
-10.17
-7.83
-5.32
-2.81
-0.51
1.38
2.79
3.82
4.70
5.64
6.75
7.93
8.97
9.68
10.07
10.32
10.72
11.44
12.47
13.51
14.15
14.14
13.48
12.51
11.67
11.28
11.32
11.50
11.45
10.98
10.22
9.50
9.19
9.40
9.95
10.46
10.55
10.10
9.23
8.29
7.63
7.43
7.60
7.89
7.97
7.62
6.85
5.86
4.93
4.22
3.76
3.43
3.06
2.58
2.12
1.89
2.16
3.09
4.60
6.43
8.16
9.39
9.84
9.49
8.48
7.04
5.36
3.54
1.60
-0.34
-2.01
-3.02
-3.00
-1.82
0.24
2.61
4.65
5.89
6.20
5.81
5.09
4.36
3.78
3.28
2.75
2.08
1.36
0.81
0.68
1.10
1.99
3.05
3.88
4.20
3.92
3.24
2.49
1.92
1.58
1.27
0.69
-0.36
-1.77
-3.18
-4.08
-4.06
-2.99
-1.08
1.22
3.34
4.84
5.45
