1541859394.00
64.000000
-0.00
-0.00
-0.00
-0.00
-0.00
-0.00
-0.00
-0.00
-0.00
-0.00
0.00
0.01
0.01
-0.00
-0.03
-0.05
-0.05
0.00
0.13
0.36
0.66
1.01
1.37
1.72
2.06
2.40
2.79
3.24
3.80
4.42
5.06
5.66
6.20
6.68
7.15
7.69
8.33
9.18
10.15
11.13
12.02
12.76
13.42
14.14
15.16
16.61
18.72
21.29
24.06
26.72
29.11
31.31
33.63
36.50
40.24
45.20
51.04
57.23
63.18
68.54
73.38
78.17
83.60
90.20
98.54
108.13
118.20
127.86
136.54
144.25
151.57
159.82
167.71
177.53
189.92
205.02
221.62
236.77
246.09
244.90
229.81
199.95
157.78
107.21
52.59
-2.86
-57.73
-111.84
-165.40
-218.17
-269.22
-316.90
-360.12
-398.07
-430.28
-456.24
-474.97
-485.22
-485.61
-475.22
-453.77
-422.38
-383.24
-339.32
-294.68
-252.62
-215.20
-183.11
-155.94
-132.44
-111.61
-93.27
-78.23
-67.80
-62.91
-63.44
-67.62
-72.52
-75.13
-73.42
-66.65
-55.08
-39.08
-18.78
5.40
31.77
57.13
77.69
90.15
93.66
90.75
86.14
84.36
87.58
94.43
101.01
103.40
99.93
92.24
84.19
79.46
79.32
81.78
82.86
79.22
70.44
59.66
51.78
50.46
55.72
63.53
68.10
65.23
54.94
41.60
31.47
29.07
34.56
43.75
50.43
49.87
41.34
28.62
17.70
13.49
17.12
25.19
31.88
32.19
25.07
13.97
4.60
1.75
6.13
13.91
19.15
17.58
9.28
-1.08
-6.97
-4.27
6.23
19.25
28.03
28.05
19.67
7.75
-1.23
-2.84
3.01
12.22
19.00
19.35
13.34
4.84
-0.93
-0.41
6.04
14.24
18.90
16.52
7.74
-2.91
-9.66
-8.94
-1.52
7.97
13.78
12.36
4.27
-6.08
-13.18
-13.62
-7.94
-0.32
3.85
1.22
-7.38
-17.48
-23.62
-22.46
-14.89
-5.54
-0.15
-2.17
-10.55
-20.35
-25.54
-22.66
-12.93
-1.42
6.08
6.48
1.12
-5.21
-7.33
-2.94
6.07
14.75
18.05
13.82
4.14
-5.89
-11.22
-9.75
-3.34
3.42
5.91
2.24
-5.63
-13.13
-15.73
-11.46
-2.15
7.71
13.70
14.00
10.33
6.81
7.45
13.69
23.60
33.02
37.77
36.04
29.42
21.98
17.90
19.23
24.86
31.36
35.02
34.00
29.47
24.81
23.62
27.82
36.33
45.84
52.78
55.42
54.65
52.98
52.39
52.83
52.20
47.90
38.94
27.12
16.55
11.65
14.78
24.95
38.29
50.00
56.60
57.44
54.55
51.15
49.70
50.66
52.41
52.34
48.51
40.89
31.63
23.97
20.27
20.83
23.57
25.30
23.63
18.40
11.86
7.27
6.94
10.79
16.32
19.99
19.25
14.04
6.78
1.06
-0.50
2.29
7.16
10.83
10.82
6.88
0.99
-3.88
-5.53
-3.65
0.08
3.02
3.13
0.07
-4.68
-8.72
-10.15
-8.63
-5.59
-3.29
-3.50
-6.46
-10.65
-13.74
-13.96
-11.14
-6.86
-3.52
-2.95
-5.33
-9.10
-11.95
-12.15
-9.63
-5.88
-3.08
-2.82
-5.16
-8.61
-11.00
-10.85
-8.13
-4.32
-1.58
-1.37
-3.63
-6.71
-8.48
-7.55
-4.18
-0.13
2.39
2.03
-0.88
-4.60
-7.01
-6.82
-4.27
-0.94
1.16
0.73
-2.03
-5.54
-7.68
-7.00
-3.74
0.31
2.81
2.20
-1.23
-5.50
-8.16
-7.85
-5.05
-1.80
-0.35
-1.81
-5.43
-9.16
-10.94
-9.85
-6.63
-3.19
-1.60
-2.94
-6.63
-10.71
-12.85
-11.62
-7.38
-2.25
1.03
0.73
-2.71
-6.90
-8.90
-7.04
-2.10
3.18
5.80
4.34
-0.12
-4.76
-6.73
-4.87
-0.27
4.45
6.72
5.41
1.43
-2.84
-5.01
-3.96
-0.51
3.08
4.37
2.25
-2.26
-6.65
-8.37
-6.48
-2.21
1.65
2.55
-0.29
-5.34
-9.77
-11.16
-8.85
-4.28
-0.08
1.44
-0.48
-4.68
-8.77
-10.45
-8.72
-4.47
-0.00
2.29
1.27
-2.17
-5.56
-6.43
-3.82
1.06
5.52
7.09
5.09
0.99
-2.54
-3.37
-1.19
2.44
5.09
4.97
1.91
-2.61
-6.41
-7.75
-6.22
-2.95
0.07
0.95
-1.01
-4.91
-8.57
-9.76
-7.56
-2.97
1.51
3.37
1.69
-2.23
-5.61
-5.97
-2.74
2.34
6.35
7.02
4.19
-0.17
-3.25
-3.23
-0.31
3.53
5.83
5.15
1.80
-2.41
-5.34
-5.68
-3.58
-0.50
1.64
1.40
-1.41
-5.57
-9.07
-10.07
-7.93
-3.66
0.52
2.37
1.01
-2.50
-5.66
-6.09
-2.98
2.22
6.68
7.93
5.50
1.22
-1.95
-1.89
1.32
5.44
7.53
5.89
1.12
-4.25
-7.43
-6.99
-3.71
0.07
1.87
0.51
-3.31
-7.57
-10.08
-9.62
-6.48
-2.16
1.38
2.70
1.56
-0.97
-3.09
-3.22
-0.89
2.89
6.12
6.88
4.56
0.38
-3.25
-4.12
-1.63
2.68
5.95
5.73
1.65
-4.25
-8.67
-9.08
-5.34
0.14
3.85
3.43
-0.80
-5.98
-8.59
-6.66
-1.02
5.19
8.51
7.30
2.74
-2.14
-4.33
-2.79
1.12
4.60
5.21
2.37
-2.44
-6.71
-8.39
-6.98
-3.65
-0.47
0.84
-0.34
-3.21
-6.08
-7.23
-5.71
-1.94
2.51
5.62
5.98
3.60
0.07
-2.32
-1.88
1.36
5.48
7.72
6.14
0.95
-5.35
-9.42
-8.97
-4.29
1.87
5.80
5.14
0.40
-5.39
-8.44
-6.56
-0.58
6.12
9.63
7.93
2.15
-4.18
-7.30
-5.56
-0.43
4.45
5.59
1.83
-4.81
-10.41
-11.49
-7.22
0.18
6.77
9.14
6.46
0.83
-4.08
-5.32
-2.41
2.51
6.02
5.56
1.01
-5.16
-9.40
-9.17
-4.44
2.25
7.29
8.08
4.55
-0.83
-4.53
-4.13
0.23
5.82
8.90
6.96
0.28
-7.99
-13.52
-13.15
-6.68
2.91
11.04
13.87
10.29
2.40
-5.72
-10.21
-9.39
-4.44
1.45
5.03
4.71
1.34
-2.60
-4.54
-3.32
0.19
3.68
4.83
2.75
-1.53
-5.69
-7.52
-6.17
-2.59
1.16
3.14
2.73
0.85
-0.77
-0.79
0.75
2.48
2.54
-0.01
-4.41
-8.37
-9.36
-6.21
0.11
6.71
10.31
8.96
3.19
-4.12
-9.32
-9.85
-5.61
1.10
6.83
8.88
6.68
1.87
-2.79
-5.03
-4.26
-1.77
0.29
0.31
-1.76
-4.38
-5.52
-3.99
-0.32
3.47
5.01
3.11
-1.42
-6.04
-7.88
-5.40
0.65
7.40
11.41
10.47
4.90
-2.61
-8.41
-9.84
-6.56
-0.60
4.82
7.14
5.72
1.92
-1.86
-3.77
-3.41
-1.94
-1.07
-1.80
-3.70
-5.10
-4.30
-0.75
4.25
8.09
8.27
3.96
-3.26
-10.01
-12.77
-9.81
-2.20
6.59
12.45
12.71
7.47
-0.55
-7.56
-10.57
-8.85
-4.03
1.04
4.00
4.15
2.61
1.27
1.40
2.79
3.84
2.84
-0.76
-5.63
-9.20
-9.14
-4.78
2.22
8.71
11.56
9.41
3.37
-3.62
-8.34
-8.99
-6.00
-1.67
1.24
1.20
-1.23
-3.80
-4.04
-0.93
4.32
8.77
9.51
5.41
-1.97
-9.14
-12.59
-10.62
-4.22
3.48
8.92
9.96
6.81
1.72
-2.48
-3.97
-2.76
-0.56
0.43
-1.01
-4.25
-7.15
-7.33
-3.71
2.65
8.91
11.98
10.21
4.43
-2.56
-7.57
-8.75
-6.43
-2.68
0.06
0.52
-0.75
-1.91
-1.19
1.90
6.04
8.87
8.26
3.69
-3.23
-9.49
-12.22
-10.15
-4.37
2.21
6.45
6.66
3.52
-0.51
-2.71
-1.85
1.14
3.78
3.70
0.22
-5.03
-8.99
-8.99
-4.29
3.29
10.29
13.38
11.04
4.41
-3.41
-8.96
-10.17
-7.28
-2.51
1.33
2.49
1.20
-0.59
-0.68
1.91
6.08
9.31
9.14
4.83
-2.03
-8.31
-11.08
-9.24
-4.06
1.61
5.04
5.13
2.88
0.55
0.14
2.11
5.10
6.79
5.36
0.72
-5.25
-9.66
-10.17
-6.20
0.62
7.32
11.14
10.98
7.98
4.70
3.61
5.57
9.29
12.07
11.49
6.94
0.26
-5.26
-6.73
-3.31
3.16
9.17
11.52
9.16
3.81
-1.20
-3.00
-1.01
2.62
4.28
1.13
-6.93
-16.95
-24.44
-25.92
-20.82
-12.00
-4.14
-1.32
-4.79
-12.47
-20.30
-24.60
-24.08
-20.31
-16.56
-15.71
-18.36
-22.52
-24.76
-22.33
-14.86
-4.69
4.39
9.19
8.90
5.48
2.44
2.72
7.03
13.43
18.50
19.32
15.18
8.09
1.53
-1.53
-0.26
3.66
7.11
7.48
4.25
-0.62
-3.96
-3.30
1.63
8.69
14.44
16.10
13.18
7.82
3.46
2.79
6.20
11.40
14.66
12.99
6.07
-3.35
-10.91
-13.08
-9.18
-1.79
4.61
6.22
2.17
-5.04
-11.02
-12.20
-7.78
-0.18
6.48
8.76
5.96
0.48
-3.68
-3.48
1.45
8.51
13.63
13.56
7.81
-1.02
-8.77
-12.06
-10.07
-4.79
0.24
2.01
-0.25
-4.71
-8.21
-8.24
-4.37
1.62
6.80
8.76
6.99
3.14
-0.03
-0.29
2.81
7.65
11.45
11.81
8.08
1.86
-3.88
-6.47
-5.12
-1.32
1.99
2.14
-1.59
-7.48
-12.32
-13.38
-10.02
-4.15
0.93
2.44
-0.14
-4.76
-8.02
-7.23
-2.09
5.09
10.69
11.87
8.24
2.09
-2.93
-3.97
-0.55
5.10
9.42
9.57
5.06
-1.98
-8.05
-10.30
-8.10
-3.33
0.78
1.52
-1.75
-7.28
-12.03
-13.42
-10.76
-5.62
-0.86
1.07
-0.43
-3.82
-6.34
-5.70
-1.48
4.48
9.11
9.88
6.52
1.24
-2.45
-1.78
3.52
10.92
16.32
16.48
11.03
2.80
-3.75
-5.18
-1.03
5.89
11.03
10.76
4.57
-4.55
-11.93
-13.95
-10.06
-3.04
2.62
3.26
-1.66
-9.28
-14.98
-15.15
-9.44
-0.89
5.64
6.26
0.45
-8.52
-15.34
-15.90
-9.60
0.35
8.72
11.36
7.44
-0.04
-6.18
-7.13
-2.32
5.43
11.74
13.24
9.43
2.85
-2.57
-3.80
-0.52
4.85
8.66
8.30
3.67
-2.64
-6.84
-6.14
-0.49
7.16
12.52
12.51
7.06
-0.75
-6.49
-6.97
-2.16
4.68
8.94
7.53
0.87
-7.30
-12.09
-10.35
-2.52
7.46
14.29
14.23
7.25
-2.87
-10.81
-12.56
-7.61
0.80
7.55
8.54
3.13
-5.52
-12.35
-13.41
-8.13
0.30
6.86
7.60
2.02
-6.66
-13.38
-14.25
-8.69
0.20
7.51
9.38
5.20
-2.04
-7.60
-7.78
-2.25
5.82
11.61
11.53
5.34
-3.61
-10.36
-11.12
-5.57
3.00
9.69
10.84
6.10
-1.50
-7.39
-8.10
-3.39
3.58
8.13
6.93
0.12
-8.70
-14.54
-13.92
-6.90
2.67
9.37
9.37
2.85
-6.15
-12.08
-11.15
-3.46
6.96
14.35
14.62
7.77
-2.10
-9.23
-9.51
-2.79
7.15
14.79
16.09
10.88
2.97
-2.18
-0.75
7.15
17.41
24.35
24.01
16.56
6.36
-0.60
-0.22
7.31
17.52
24.29
23.44
15.16
3.95
-3.99
-4.54
2.07
11.60
18.35
18.35
11.08
-1.03
-14.68
-27.65
-39.53
-50.69
-60.78
-67.92
-69.28
-62.71
-48.27
-28.69
-8.51
7.54
16.36
17.36
12.42
4.96
-1.43
-4.18
-2.61
1.93
6.98
10.32
11.08
10.14
9.32
10.05
12.46
15.27
16.66
15.48
12.11
8.31
6.19
6.86
9.65
12.45
12.79
9.23
2.33
-5.46
-10.96
-11.88
-8.14
-2.02
2.80
3.18
-1.75
-10.01
-17.75
-21.31
-19.22
-12.97
-6.08
-2.04
-2.32
-5.60
-8.70
-8.60
-4.27
2.72
9.23
12.37
11.25
7.39
3.76
2.91
5.56
10.13
13.73
13.92
10.14
4.15
-0.99
-2.73
-0.54
3.64
6.33
4.54
-2.30
-11.75
-19.48
-21.60
-16.92
-7.74
1.22
5.28
2.57
-4.81
-11.95
-14.00
-9.04
0.89
10.98
16.50
15.49
9.86
4.04
2.13
5.40
11.48
16.03
15.47
9.26
0.39
-6.42
-7.64
-3.06
3.89
8.05
5.64
-3.30
-14.70
-22.57
-22.39
-13.82
-0.98
9.67
12.90
7.71
-2.12
-10.10
-10.79
-2.96
9.75
20.86
24.70
19.65
8.96
-1.21
-5.39
-1.92
6.18
13.12
13.77
6.74
-4.69
-14.57
-17.89
-13.38
-4.25
3.72
5.46
-0.50
-11.07
-20.40
-23.26
-18.14
-7.90
1.83
5.86
2.35
-6.15
-14.08
-16.17
-10.52
0.35
11.13
16.71
15.10
8.43
1.58
-0.70
3.24
11.03
17.87
19.44
14.47
5.42
-2.94
-6.42
-3.88
1.95
6.07
4.34
-3.85
-15.02
-23.38
-24.05
-15.92
-2.58
9.55
14.85
11.67
3.23
-4.41
-5.92
0.26
10.89
19.74
21.33
14.24
2.03
-8.95
-13.22
-9.23
-0.25
7.37
7.90
-0.36
-13.74
-25.27
-28.62
-21.59
-7.32
7.33
15.49
14.05
5.40
-4.14
-8.23
-4.13
5.85
15.84
19.83
15.08
3.76
-8.38
-15.47
-14.80
-8.19
-0.74
2.45
-0.67
-7.75
-13.48
-13.06
-5.15
7.08
17.55
20.78
15.07
3.66
-7.16
-11.63
-7.99
0.65
8.05
8.58
0.66
-12.12
-22.97
-25.61
-17.90
-3.11
11.79
19.87
18.11
9.10
-0.74
-4.90
-0.57
9.89
20.18
23.74
17.60
4.34
-9.39
-16.84
-14.87
-5.63
4.76
9.73
6.03
-4.21
-14.72
-18.85
-13.45
-0.60
13.73
22.92
23.29
16.04
6.27
-0.24
-0.56
3.74
7.86
6.94
-0.82
-12.66
-22.73
-25.43
-18.85
-6.06
6.50
12.76
10.43
2.29
-5.65
-7.82
-2.53
6.97
14.32
14.01
4.76
-9.44
-21.54
-25.36
-19.09
-6.25
6.37
12.61
10.40
2.88
-3.89
-4.63
2.01
12.62
21.00
21.83
13.69
-0.04
-13.11
-19.81
-17.70
-8.56
2.79
10.99
12.89
8.92
2.60
-1.78
-1.53
3.06
8.96
12.22
10.19
3.26
-5.37
-11.47
-12.39
-8.49
-2.83
0.72
-0.13
-4.67
-9.62
-11.22
-7.51
0.45
9.16
14.58
14.37
9.08
1.63
-4.37
-6.64
-5.34
-2.66
-1.24
-2.47
-5.59
-8.23
-7.98
-4.03
2.15
7.49
8.90
5.10
-2.63
-11.02
-16.56
-17.19
-13.33
-7.41
-2.37
-0.03
-0.14
-0.83
-0.04
2.95
6.91
9.18
7.37
0.93
-8.13
-16.06
-19.22
-16.10
-8.09
1.18
7.72
9.20
6.03
0.84
-3.14
-3.99
-2.01
0.63
1.51
-0.49
-4.31
-7.38
-7.14
-2.70
4.43
10.98
13.57
10.51
2.81
-6.27
-12.75
-13.95
-9.74
-2.45
4.45
8.13
7.90
5.30
2.98
2.85
4.84
6.95
6.55
2.27
-4.80
-11.38
-13.70
-9.76
-0.71
9.48
16.15
16.31
10.30
1.49
-5.62
-7.92
-5.40
-0.89
1.94
1.06
-2.58
-5.66
-4.60
1.86
11.45
19.21
20.28
12.91
-0.24
-13.28
-20.15
-17.87
-8.26
3.06
9.96
9.38
3.04
-3.84
-5.83
-0.71
9.03
17.32
18.08
9.01
-6.52
-21.11
-27.24
-21.41
-6.05
11.55
22.97
23.05
12.57
-2.33
-13.81
-16.59
-10.51
-0.16
7.99
9.47
4.44
-2.66
-6.17
-2.90
5.64
14.05
16.34
9.62
-3.76
-17.19
-23.47
-18.99
-5.76
9.53
19.30
19.21
10.48
-1.12
-8.77
-8.70
-2.15
5.59
8.51
3.73
-6.57
-16.33
-19.17
-12.34
1.28
14.73
20.57
15.17
0.91
-14.97
-24.20
-21.95
-9.44
6.81
18.66
20.62
12.72
0.19
-9.80
-12.01
-5.91
4.18
11.93
12.81
6.74
-2.06
-7.87
-7.20
-0.67
7.23
10.89
7.13
-2.59
-12.81
-17.27
-12.81
-1.50
10.65
16.89
13.62
2.56
-10.28
-17.88
-16.16
-6.48
5.14
11.75
9.62
0.43
-9.76
-14.32
-9.95
1.34
13.16
18.35
13.21
-0.08
-14.46
-21.92
-18.26
-5.42
9.65
18.93
17.64
6.94
-6.81
-15.68
-14.65
-4.54
8.44
16.41
14.46
3.67
-9.54
-17.30
-14.73
-2.66
12.60
22.76
22.10
10.78
-5.21
-17.35
-19.52
-11.15
2.76
14.63
18.50
13.11
2.21
-7.83
-11.69
-8.14
-0.39
6.12
7.19
2.45
-4.56
-8.93
-7.48
-0.68
7.47
11.71
8.85
-0.19
-10.65
-16.64
-14.75
-6.05
4.63
11.48
11.06
4.15
-4.86
-10.56
-9.70
-3.20
4.49
8.14
5.11
-2.87
-10.69
-13.16
-8.11
2.19
12.13
15.87
10.72
-1.12
-13.43
-19.50
-15.92
-4.63
8.30
16.10
15.06
6.52
-4.09
-10.44
-8.82
-0.49
9.06
13.46
9.33
-1.41
-12.52
-17.18
-11.98
0.98
15.00
22.30
18.44
4.96
-11.18
-21.37
-20.21
-8.58
7.06
18.21
19.12
9.91
-3.66
-13.62
-14.35
-5.93
6.01
13.88
12.75
3.45
-8.01
-14.26
-11.05
0.14
12.77
18.97
14.35
0.79
-14.32
-22.41
-18.87
-5.69
9.80
19.12
17.43
6.23
-7.76
-16.61
-15.70
-6.52
4.59
10.50
7.73
-1.59
-11.20
-14.82
-9.95
0.79
11.23
15.23
10.25
-1.17
-12.81
-18.29
-14.77
-4.22
7.92
15.73
15.91
9.18
-0.42
-7.75
-9.34
-5.12
1.75
6.92
7.31
2.87
-3.48
-7.77
-7.20
-1.66
6.01
11.59
11.75
5.99
-2.82
-9.94
-11.42
-6.21
3.15
11.83
15.24
11.50
2.55
-6.82
-11.52
-9.10
-1.04
8.04
12.97
11.07
3.65
-4.77
-9.16
-6.89
0.59
8.54
11.79
7.95
-1.01
-9.83
-13.16
-8.81
0.88
10.28
13.80
9.27
-0.70
-10.27
-13.89
-9.65
-0.40
8.09
10.68
6.00
-2.80
-10.14
-11.55
-6.39
1.82
7.70
7.47
1.24
-7.05
-12.16
-10.90
-3.98
4.42
9.20
7.44
0.17
-8.29
-13.00
-11.32
-4.38
3.65
8.12
6.62
0.34
-6.80
-10.56
-8.93
-3.19
3.04
6.11
4.51
-0.37
-5.25
-7.06
-4.71
0.42
5.45
7.69
6.12
1.78
-2.94
-5.64
-5.12
-1.86
2.38
5.48
5.92
3.49
-0.57
-4.14
-5.31
-3.29
1.08
5.65
8.03
6.88
2.73
-2.24
-5.30
-4.76
-0.96
3.85
6.78
5.97
1.78
-3.30
-6.12
-4.77
0.22
5.95
8.89
7.00
1.14
-5.36
-8.67
-6.76
-0.83
5.42
8.04
5.30
-1.15
-7.28
-9.25
-5.89
0.64
6.22
7.32
3.26
-3.47
-8.80
-9.67
-5.78
0.32
4.95
5.54
1.98
-3.37
-7.29
-7.55
-4.04
1.29
5.54
6.48
3.67
-1.26
-5.48
-6.49
-3.42
2.33
7.78
9.84
7.16
1.06
-5.10
-7.81
-5.55
0.23
5.90
7.87
4.84
-1.38
-7.00
-8.68
-5.55
0.22
4.92
5.64
1.94
-3.87
-8.27
-8.66
-4.77
1.32
6.34
7.71
4.89
-0.33
-4.81
-5.79
-2.44
3.55
8.84
10.26
6.75
0.13
-5.92
-8.02
-5.15
0.67
5.67
6.60
2.79
-3.53
-8.63
-9.60
-6.02
0.01
5.14
6.71
4.17
-0.77
-5.16
-6.41
-3.69
1.59
6.56
8.34
5.78
0.22
-5.18
-7.29
-4.95
0.24
4.81
5.63
1.88
-4.37
-9.44
-10.32
-6.48
-0.09
5.35
7.05
4.45
-0.59
-4.89
-5.74
-2.34
3.69
9.15
10.96
7.90
1.54
-4.59
-6.97
-4.26
1.81
7.35
8.69
4.72
-2.37
-8.45
-10.03
-6.37
0.25
5.98
7.73
4.88
-0.55
-5.19
-6.34
-3.34
2.08
6.88
8.32
5.54
0.10
-4.87
-6.48
-3.79
1.54
6.15
7.04
3.47
-2.59
-7.54
-8.40
-4.63
1.68
6.96
8.26
4.91
-1.19
-6.65
-8.51
-5.79
-0.08
5.32
7.25
4.49
-1.38
-6.83
-8.49
-5.18
1.21
6.76
7.97
3.95
-2.91
-8.48
-9.47
-5.36
1.37
6.82
7.97
4.41
-1.56
-6.29
-6.95
-3.03
3.37
8.72
9.97
6.30
-0.34
-6.27
-8.27
-5.38
0.43
5.51
6.66
3.08
-3.15
-8.34
-9.45
-5.84
0.48
6.07
8.04
5.61
0.47
-4.24
-5.71
-3.08
2.05
6.53
7.54
4.25
-1.54
-6.42
-7.49
-4.17
1.43
5.82
6.21
2.31
-3.57
-7.90
-7.93
-3.36
3.42
8.78
9.79
5.93
-0.62
-6.26
-8.02
-5.18
0.35
5.16
6.33
3.15
-2.47
-7.09
-7.81
-4.00
2.31
7.57
8.83
5.46
-0.52
-5.61
-6.96
-3.99
1.29
5.51
5.91
2.11
-3.69
-7.97
-7.96
-3.26
3.81
9.51
10.79
7.01
0.34
-5.53
-7.58
-5.08
0.05
4.43
5.27
1.98
-3.47
-7.68
-7.89
-3.69
2.74
7.81
8.69
4.95
-1.22
-6.26
-7.40
-4.19
1.21
5.33
5.42
1.12
-5.19
-9.82
-9.86
-4.98
2.33
8.13
9.34
5.46
-1.13
-6.60
-7.91
-4.46
1.59
6.65
7.79
4.47
-1.15
-5.53
-5.98
-2.26
3.24
7.01
6.51
1.71
-4.83
-9.45
-9.48
-4.78
2.13
7.50
8.48
4.77
-1.23
-5.98
-6.82
-3.46
1.93
6.04
6.35
2.65
-2.81
-6.64
-6.41
-2.11
3.77
7.74
7.31
2.52
-4.07
-8.78
-8.92
-4.35
2.39
7.51
8.19
4.19
-2.02
-6.75
-7.28
-3.31
2.80
7.46
7.94
3.94
-2.10
-6.53
-6.70
-2.51
3.56
7.86
7.78
3.20
-3.30
-7.97
-8.10
-3.62
2.81
7.41
7.47
2.98
-3.39
-7.86
-7.77
-3.07
3.57
8.28
8.31
3.59
-3.16
-8.04
-8.29
-3.82
2.76
7.69
8.18
4.04
-2.19
-6.80
-7.07
-2.99
2.88
6.91
6.60
2.10
-3.90
-7.73
-6.93
-1.81
4.68
8.63
7.46
1.59
-5.84
-10.61
-10.00
-4.28
3.40
8.80
8.94
3.88
-3.48
-8.99
-9.65
-5.33
1.37
6.63
7.67
4.34
-0.96
-4.84
-4.92
-1.29
3.65
6.63
5.55
0.84
-4.77
-7.79
-6.16
-0.51
6.14
10.01
8.76
2.92
-4.44
-9.33
-9.11
-4.02
3.08
8.24
8.66
4.33
-2.14
-7.08
-7.83
-4.31
1.11
4.97
4.84
0.83
-4.55
-7.95
-7.20
-2.67
2.99
6.38
5.38
0.57
-5.15
-8.15
-6.38
-0.61
6.01
9.72
8.39
2.79
-3.86
-7.72
-6.57
-1.09
5.46
9.21
7.87
2.17
-4.63
-8.59
-7.44
-1.86
4.91
8.94
7.82
2.13
-4.93
-9.32
-8.56
-3.16
3.66
7.85
6.99
1.71
-4.73
-8.35
-6.87
-1.01
5.88
9.78
8.34
2.29
-5.04
-9.64
-9.08
-3.88
2.80
7.04
6.52
1.79
-4.10
-7.47
-6.15
-0.74
5.66
9.29
7.91
2.24
-4.45
-8.31
-7.12
-1.62
4.97
8.84
7.78
2.56
-3.63
-7.12
-5.93
-0.87
4.88
7.65
5.55
-0.31
-6.45
-9.20
-6.86
-0.72
5.74
8.79
6.68
0.63
-5.81
-8.94
-7.02
-1.31
4.73
7.50
5.35
-0.31
-5.96
-8.06
-5.22
1.03
7.07
9.28
6.11
-0.83
-7.66
-10.49
-7.71
-0.92
6.07
9.42
7.39
1.39
-4.93
-7.87
-5.86
-0.32
5.22
7.20
4.16
-2.19
-8.08
-9.87
-6.28
0.86
7.64
10.27
7.24
0.29
-6.62
-9.59
-7.03
-0.62
5.80
8.38
5.58
-0.83
-6.91
-8.92
-5.52
1.45
8.10
10.66
7.70
0.97
-5.65
-8.47
-6.13
-0.32
5.29
7.25
4.37
-1.57
-6.92
-8.38
-4.90
1.74
7.94
10.29
7.48
1.18
-5.11
-7.96
-6.02
-0.72
4.63
6.77
4.39
-1.08
-6.36
-8.30
-5.66
0.13
5.78
7.95
5.29
-0.81
-6.92
-9.58
-7.28
-1.36
4.76
7.58
5.49
-0.14
-5.88
-8.18
-5.50
0.75
7.06
9.78
7.24
0.83
-5.75
-8.71
-6.39
-0.23
5.98
8.33
5.23
-1.57
-7.95
-9.95
-6.16
1.44
8.52
10.99
7.43
-0.06
-7.23
-10.16
-7.41
-0.90
5.31
7.42
4.12
-2.64
-8.82
-10.52
-6.35
1.67
9.31
12.49
9.58
2.32
-5.11
-8.56
-6.32
-0.03
6.36
8.77
5.49
-1.64
-8.38
-10.58
-6.65
1.36
8.88
11.50
7.73
-0.08
-7.18
-9.31
-5.20
2.66
9.52
11.25
6.68
-1.72
-9.32
-11.93
-8.23
-0.45
6.89
9.61
6.32
-0.85
-7.35
-8.95
-4.32
4.16
11.61
13.41
7.90
-2.21
-11.49
-14.87
-10.55
-1.21
7.56
10.57
6.24
-2.52
-10.07
-11.46
-5.42
4.82
13.49
15.66
9.99
-0.49
-10.22
-14.27
-11.09
-3.15
4.51
7.17
3.34
-4.44
-10.97
-11.57
-4.98
5.71
14.78
17.32
12.08
2.31
-6.44
-9.56
-6.03
1.29
7.57
8.76
3.78
-4.86
-12.47
-14.67
-9.75
0.12
9.73
13.67
9.58
-0.08
-9.28
-12.01
-6.19
4.92
14.67
17.22
11.15
0.31
-8.88
-11.44
-6.66
1.86
8.60
9.34
3.56
-5.56
-13.00
-14.64
-9.47
-0.18
8.28
11.49
7.94
0.03
-7.18
-9.17
-4.66
3.69
10.88
12.55
7.75
-0.64
-7.82
-9.93
-6.19
0.82
6.77
8.17
4.24
-2.84
-9.12
-11.08
-7.72
-0.97
5.44
7.90
5.13
-1.07
-6.94
-8.98
-5.94
0.43
6.33
8.27
5.10
-1.42
-7.48
-9.54
-6.44
0.07
6.28
8.61
5.78
-0.38
-6.12
-7.98
-4.80
1.56
7.31
9.13
6.04
-0.11
-5.77
-7.82
-5.33
0.08
5.18
6.96
4.23
-1.70
-7.73
-10.58
-8.57
-2.64
3.99
7.51
5.70
-0.41
-6.96
-9.50
-5.76
2.57
10.69
13.55
9.22
0.31
-7.56
-9.49
-4.30
4.69
11.81
12.73
7.12
-1.45
-7.95
-8.95
-4.55
2.13
7.04
7.40
2.91
-4.18
-10.49
-12.94
-10.16
-3.35
4.10
8.18
6.26
-0.85
-8.94
-12.70
-8.95
1.00
11.59
16.36
12.26
1.88
-8.02
-10.87
-4.65
6.73
16.14
17.69
10.58
-0.68
-9.49
-11.32
-6.08
2.17
8.12
8.32
2.68
-5.91
-13.21
-15.83
-12.64
-5.16
2.92
7.41
5.79
-1.19
-9.37
-13.30
-9.66
0.39
11.45
16.89
13.15
2.52
-8.34
-12.47
-7.08
4.44
14.88
17.88
11.86
0.87
-8.33
-10.70
-5.69
2.94
9.70
10.71
5.67
-2.60
-9.95
-12.93
-10.44
-4.00
3.13
7.18
5.77
-0.55
-8.27
-12.55
-9.95
-1.01
9.62
15.74
13.31
3.68
-6.97
-11.54
-6.52
5.51
17.23
21.38
15.49
3.36
-7.39
-10.31
-4.18
6.60
15.10
16.05
9.03
-1.73
-10.35
-12.59
-8.03
0.09
7.14
9.55
6.33
-0.44
-7.00
-9.87
-7.46
-0.95
6.20
10.19
8.77
2.65
-4.70
-9.16
-8.33
-2.85
3.74
7.25
5.39
-0.87
-7.83
-11.30
-9.25
-2.90
4.04
7.52
5.59
-0.47
-7.08
-10.47
-8.84
-3.39
2.56
5.56
3.95
-1.10
-6.49
-9.00
-7.18
-2.10
3.25
5.80
4.04
-1.12
-6.84
-10.10
-9.29
-5.10
-0.12
2.62
1.38
-3.29
-8.85
-12.12
-11.21
-6.51
-0.62
3.14
2.66
-1.76
-7.47
-11.10
-10.47
-5.86
0.24
4.47
4.68
1.05
-4.10
-7.58
-7.25
-3.19
2.45
6.55
6.83
3.28
-1.85
-5.29
-4.69
-0.15
5.86
9.94
9.75
5.58
0.08
-3.37
-2.58
2.13
7.98
11.40
9.83
3.32
-5.12
-11.07
-11.18
-5.01
4.20
11.24
12.13
6.54
-1.72
-6.98
-5.34
2.79
12.85
18.73
16.44
6.62
-5.84
-14.51
-15.08
-7.83
2.60
9.78
9.14
0.93
-9.76
-15.95
-12.80
-0.88
13.88
23.64
23.20
13.04
-0.94
-11.20
-12.95
-6.57
2.87
8.81
7.02
-2.18
-13.87
-21.32
-19.65
-8.77
6.23
17.56
19.26
10.84
-2.23
-11.58
-11.17
-0.99
13.01
22.56
21.94
11.28
-3.77
-15.56
-18.67
-12.67
-2.12
6.24
7.24
0.37
-9.89
-16.70
-14.83
-4.01
10.54
21.14
21.92
12.26
-2.53
-14.44
-17.45
-10.83
0.49
8.92
8.88
0.17
-11.93
-19.72
-17.75
-6.00
9.91
21.83
23.73
14.96
0.60
-11.54
-15.39
-10.12
-0.26
7.07
6.42
-2.50
-14.64
-22.46
-20.22
-7.44
10.52
25.34
30.27
23.75
10.23
-2.47
-7.77
-4.04
4.72
11.45
10.37
0.63
-13.11
-23.31
-23.96
-13.91
2.21
16.67
22.79
18.57
7.67
-2.92
-6.98
-2.83
5.76
12.05
10.57
0.89
-11.96
-20.57
-19.60
-8.99
5.82
17.22
19.60
12.44
0.39
-9.60
-12.17
-6.65
2.88
10.19
10.56
3.67
-6.37
-13.61
-13.68
-6.22
4.89
13.86
16.22
11.24
2.42
-4.81
-6.21
-1.25
6.68
12.47
12.33
5.96
-3.28
-10.55
-12.09
-7.12
1.70
9.92
13.51
10.86
3.70
-4.10
-8.63
-8.00
-3.43
1.72
3.98
1.74
-3.61
-8.80
-10.58
-7.70
-1.75
3.84
5.89
3.24
-2.39
-7.65
-9.43
-6.71
-1.10
4.15
6.05
3.55
-1.79
-6.94
-9.02
-6.94
-2.08
2.68
4.58
2.53
-2.14
-6.58
-8.05
-5.52
-0.37
4.43
6.08
3.59
-1.51
-6.22
-7.76
-5.29
-0.37
4.02
5.18
2.33
-2.96
-7.74
-9.33
-6.88
-1.89
2.73
4.19
1.58
-3.56
-8.06
-8.92
-5.10
1.67
7.83
9.86
6.39
-0.96
-8.53
-12.61
-11.59
-6.70
-1.17
1.62
0.25
-4.06
-8.28
-9.43
-6.46
-0.81
4.40
6.23
3.67
-1.78
-6.92
-8.74
-6.18
-0.65
4.74
6.95
4.78
-0.47
-5.70
-7.84
-5.57
-0.05
5.69
8.50
6.97
2.25
-2.63
-4.56
-2.18
3.27
8.73
11.06
8.89
3.39
-2.43
-5.43
-4.12
0.53
5.62
7.97
5.89
0.39
-5.42
-8.02
-5.57
0.88
7.87
11.58
9.95
4.13
-2.33
-5.55
-3.63
2.17
8.28
10.86
8.06
1.29
-5.68
-8.86
-6.34
0.45
7.59
10.92
8.44
1.63
-5.51
-8.79
-6.22
0.64
7.76
10.82
7.73
0.03
-8.03
-11.83
-9.09
-1.26
7.27
11.68
9.55
2.52
-4.87
-7.78
-4.21
3.71
11.04
12.99
7.86
-1.87
-11.13
-15.18
-12.30
-4.51
3.63
7.57
5.18
-1.98
-9.60
-12.93
-9.53
-0.80
8.63
13.56
11.32
3.58
-4.75
-8.47
-5.35
2.57
10.34
13.09
8.94
-0.05
-9.10
-13.52
-11.19
-3.65
4.76
9.22
7.13
-0.31
-8.61
-12.52
-9.17
0.04
10.16
15.54
13.23
4.79
-4.75
-9.96
-8.25
-1.21
6.51
9.98
6.81
-1.42
-10.11
-14.26
-11.27
-2.50
7.33
12.76
10.81
2.83
-6.20
-10.69
-7.84
0.64
9.61
13.61
10.03
0.71
-9.29
-14.66
-12.74
-4.97
4.04
9.03
7.07
-0.62
-9.29
-13.36
-9.74
0.02
10.50
15.67
12.56
3.37
-6.05
-9.87
-5.93
3.06
11.39
13.97
9.21
-0.20
-9.22
-13.21
-10.43
-2.74
5.54
9.76
7.50
-0.10
-8.69
-13.03
-10.10
-1.02
9.35
15.16
13.20
4.87
-4.62
-9.63
-7.48
0.08
8.03
11.35
7.76
-0.87
-9.81
-14.24
-11.78
-3.91
4.93
9.75
7.83
0.48
-7.76
-11.59
-8.25
0.77
10.56
15.57
12.94
4.14
-5.91
-11.78
-10.70
-3.91
4.07
8.15
5.62
-2.19
-10.58
-14.31
-10.54
-0.80
9.77
15.43
13.17
4.63
-4.96
-10.00
-7.88
-0.37
7.61
10.99
7.47
-1.29
-10.68
-15.76
-13.86
-6.07
3.32
9.04
7.87
0.64
-7.97
-12.08
-8.34
1.87
13.00
18.67
15.64
5.90
-4.69
-10.18
-7.95
-0.24
7.71
10.84
7.12
-1.42
-10.13
-14.27
-11.65
-3.66
5.33
10.32
8.50
0.96
-7.52
-11.49
-7.92
1.55
11.53
16.13
12.57
3.16
-6.52
-10.84
-7.81
0.16
7.93
10.77
7.00
-1.38
-9.89
-14.23
-12.22
-5.07
3.32
8.33
6.99
0.13
-8.10
-12.19
-8.90
0.59
11.07
16.28
13.08
3.41
-6.62
-10.95
-7.14
2.04
10.65
13.42
8.79
-0.29
-8.74
-12.19
-9.40
-2.44
4.73
8.31
6.54
0.23
-7.35
-12.22
-11.48
-5.14
3.59
9.83
9.71
3.19
-5.71
-11.02
-8.82
0.20
10.79
16.38
13.44
3.80
-6.37
-10.83
-7.04
2.16
10.71
13.25
8.36
-0.80
-8.93
-11.81
-8.67
-2.02
4.06
6.36
3.91
-1.87
-8.08
-11.79
-11.18
-6.40
0.40
5.81
6.73
2.18
-5.77
-12.69
-14.24
-8.84
0.93
9.42
11.25
4.86
-6.08
-14.67
-14.97
-6.00
7.40
17.25
17.46
7.86
-5.46
-13.88
-11.76
0.03
14.34
22.31
18.81
5.86
-8.64
-15.87
-11.52
1.53
15.13
20.89
15.37
2.12
-10.65
-15.31
-9.33
3.12
14.09
16.56
8.84
-4.61
-15.88
-18.49
-11.22
1.43
11.84
14.06
6.99
-4.92
-14.53
-16.12
-8.86
2.98
12.48
14.20
7.16
-4.55
-14.15
-16.17
-9.44
2.08
11.85
14.25
7.95
-3.37
-13.05
-15.36
-8.73
3.17
13.67
16.73
10.53
-1.48
-12.46
-16.07
-10.27
1.69
12.92
17.01
11.56
-0.26
-11.54
-15.56
-9.83
2.51
14.32
18.67
12.80
-0.01
-12.32
-16.82
-10.62
2.77
15.64
20.34
14.06
0.48
-12.26
-16.55
-9.85
3.75
16.09
19.91
13.22
0.34
-10.96
-14.30
-8.49
2.23
11.04
12.88
7.12
-2.49
-10.56
-13.28
-10.24
-4.05
1.54
3.72
1.62
-3.58
-9.48
-13.38
-13.25
-8.68
-1.26
5.68
8.44
5.10
-2.94
-11.20
-14.48
-10.05
0.17
10.32
14.01
8.60
-2.69
-12.53
-14.12
-5.65
8.28
19.44
21.34
13.39
1.14
-7.58
-7.65
0.11
9.93
14.98
11.58
1.34
-10.29
-17.24
-16.33
-8.69
1.04
7.27
6.51
-0.77
-10.28
-16.17
-14.30
-4.79
7.87
17.22
18.54
11.64
0.97
-7.29
-8.80
-3.58
4.32
9.44
8.11
0.61
-9.09
-15.60
-15.10
-7.48
3.35
11.53
12.48
5.81
-4.30
-11.30
-10.35
-1.46
10.47
18.45
17.95
9.46
-1.77
-9.32
-9.39
-2.94
5.25
9.55
6.77
-2.00
-12.07
-17.76
-15.62
-6.32
5.38
13.41
13.67
6.59
-3.14
-9.38
-8.33
-0.81
8.41
13.52
11.33
2.93
-7.09
-13.56
-13.42
-7.30
1.24
7.46
7.95
2.23
-6.79
-14.13
-15.26
-8.87
2.05
11.44
13.60
6.95
-4.55
-13.49
-13.81
-4.63
8.72
18.09
17.62
7.76
-5.02
-12.45
-9.83
1.00
12.91
18.15
13.31
1.40
-10.28
-14.89
-10.17
0.35
10.00
13.09
8.24
-1.16
-9.46
-12.22
-8.58
-1.35
5.12
7.42
4.77
-1.10
-7.14
-10.70
-10.56
-7.16
-2.18
2.14
3.80
1.80
-3.19
-8.84
-12.08
-10.61
-4.66
2.74
6.97
4.75
-3.41
-12.84
-17.26
-12.77
-0.94
11.51
16.63
10.67
-2.91
-15.04
-16.77
-5.44
13.07
27.60
28.93
16.06
-2.60
-14.56
-11.35
5.77
26.36
37.41
31.87
13.26
-6.57
-15.33
-8.16
9.39
25.15
28.46
16.85
-2.74
-18.91
-23.23
-15.06
-1.19
9.08
9.77
1.01
-12.01
-22.71
-26.69
-23.08
-14.27
-4.36
2.33
2.62
-3.99
-14.33
-22.34
-22.06
-11.47
5.35
19.70
23.40
14.48
-0.72
-11.45
-9.43
5.25
24.03
35.31
32.10
16.40
-2.53
-14.53
-14.62
-5.50
5.17
9.83
5.36
-6.00
-18.48
-26.13
-25.43
-16.76
-4.15
6.19
8.77
1.85
-10.74
-20.93
-20.90
-8.32
11.39
27.55
30.88
19.83
2.10
-10.33
-9.05
5.08
22.73
32.30
27.82
12.40
-4.40
-13.41
-11.50
-2.81
4.98
5.96
-0.64
-10.89
-19.38
-22.42
-19.43
-12.42
-4.67
0.56
0.76
-4.77
-14.00
-22.17
-23.80
-16.05
-1.33
12.90
18.05
10.16
-6.54
-21.40
-23.70
-9.96
13.08
32.03
35.35
21.17
-1.08
-16.61
-14.88
3.48
26.88
40.44
35.65
15.98
-5.68
-15.66
-8.40
10.22
27.00
30.17
16.96
-4.89
-22.38
-25.61
-13.64
5.37
19.62
20.93
9.26
-7.83
-20.23
-21.47
-12.22
0.67
8.69
6.91
-3.34
-15.35
-21.35
-17.25
-5.22
7.84
14.34
10.62
-0.94
-13.13
-18.22
-12.75
0.23
12.99
17.53
10.53
-4.46
-18.77
-23.60
-15.36
1.85
18.48
24.90
17.05
-0.82
-18.31
-24.76
-15.67
4.49
24.67
33.62
26.42
7.36
-12.48
-21.82
-15.88
0.94
17.94
24.63
16.97
-0.43
-17.26
-23.89
-17.15
-1.95
12.06
16.43
8.90
-5.62
-18.10
-21.02
-12.86
1.17
12.56
14.54
6.18
-7.31
-17.62
-18.55
-9.58
3.83
13.82
14.72
6.41
-6.00
-15.35
-16.83
-10.62
-1.06
6.31
8.08
4.23
-2.63
-9.39
-13.90
-15.41
-13.86
-9.58
-3.53
2.09
4.25
1.15
-5.94
-12.49
-13.12
-5.45
7.32
17.69
18.53
8.72
-5.44
-13.78
-9.18
7.36
26.67
37.45
33.64
18.64
2.66
-4.43
0.53
12.23
21.16
19.99
8.33
-7.87
-20.50
-24.24
-18.95
-8.93
0.01
3.32
-0.69
-10.24
-20.78
-26.57
-23.39
-11.14
5.02
16.88
17.71
7.19
-7.56
-16.01
-10.99
6.11
25.83
36.54
32.33
16.99
1.29
-4.73
1.72
14.45
23.11
20.47
7.29
-8.69
-18.50
-17.75
-8.93
1.15
6.08
3.70
-3.65
-11.59
-16.63
-17.66
-15.36
-11.09
-6.12
-1.88
-0.15
-2.23
-7.81
-14.12
-17.00
-13.31
-3.68
7.22
13.02
9.93
-0.30
-11.08
-14.67
-7.59
6.86
20.11
23.62
14.68
-1.67
-15.28
-17.32
-5.77
12.71
26.90
27.81
14.45
-5.26
-19.36
-18.88
-3.82
16.99
30.81
28.87
11.70
-11.14
-26.45
-25.37
-8.35
14.76
30.72
30.37
13.95
-9.16
-26.07
-27.44
-13.05
8.69
25.31
27.61
14.65
-6.17
-23.34
-27.96
-18.27
-0.56
14.95
19.79
11.92
-3.57
-17.92
-23.44
-17.99
-5.51
6.33
10.72
5.49
-6.25
-17.99
-23.61
-20.48
-10.79
0.08
6.52
5.64
-1.55
-11.18
-18.57
-20.73
-17.40
-10.73
-3.82
1.15
3.35
3.14
1.21
-1.87
-5.69
-9.54
-11.91
-10.91
-5.33
3.97
13.78
19.67
18.22
9.27
-3.35
-13.04
-13.88
-4.00
12.89
28.76
35.40
28.69
11.33
-8.14
-19.48
-16.41
-0.32
20.20
33.67
32.22
16.00
-6.31
-22.19
-22.35
-6.19
17.31
34.65
35.17
17.52
-9.21
-30.32
-33.68
-16.90
11.23
35.10
41.09
24.96
-5.48
-34.51
-47.02
-36.64
-9.55
19.14
33.45
25.52
0.01
-28.52
-43.68
-36.64
-11.24
17.99
34.26
28.05
2.85
-26.72
-43.43
-37.49
-12.42
17.25
34.38
29.59
6.76
-19.61
-33.16
-25.74
-1.94
23.81
36.44
29.35
8.19
-13.09
-21.22
-11.82
8.18
25.28
28.01
14.07
-8.33
-25.66
-27.39
-12.30
10.89
28.79
31.32
17.40
-4.47
-21.44
-23.73
-10.39
10.33
26.10
27.67
14.50
-4.91
-18.32
-17.16
-2.09
17.33
28.41
23.08
3.32
-19.69
-31.86
-24.70
-0.68
27.72
44.81
40.65
16.76
-14.41
-36.20
-36.83
-15.72
16.03
41.72
47.79
30.86
-0.63
-31.27
-46.69
-40.84
-18.67
7.20
23.33
22.45
6.59
-14.94
-30.86
-34.08
-24.66
-9.12
3.81
8.02
2.74
-7.72
-17.19
-21.02
-18.27
-11.60
-4.90
-0.91
0.22
0.27
0.96
2.57
3.55
1.90
-2.86
-8.64
-11.28
-7.11
4.33
19.18
30.49
31.91
21.30
2.72
-14.84
-21.84
-13.29
8.16
32.91
48.92
47.67
28.60
-0.25
-26.19
-38.17
-32.01
-12.24
10.55
25.19
25.35
12.23
-6.87
-22.86
-29.50
-26.11
-16.87
-7.82
-3.22
-3.50
-6.01
-7.41
-6.24
-3.89
-3.29
-6.43
-12.39
-17.21
-16.35
-7.71
6.37
19.63
25.33
20.08
6.25
-8.64
-15.98
-10.80
5.11
23.81
35.36
33.24
18.14
-2.02
-16.45
-17.27
-4.13
15.50
30.38
31.54
17.43
-5.04
-24.17
-29.82
-19.03
2.33
22.73
31.08
22.74
2.03
-20.37
-32.95
-29.64
-12.82
8.22
22.30
22.36
8.98
-10.40
-25.64
-29.39
-20.68
-4.94
9.25
14.90
10.07
-1.82
-14.28
-21.48
-20.98
-14.32
-5.58
1.35
4.63
4.64
2.96
0.74
-1.85
-5.15
-9.07
-12.02
-11.33
-5.03
6.42
19.19
27.55
26.77
15.95
-0.62
-14.91
-19.12
-9.71
10.14
31.71
44.80
42.77
26.08
2.29
-17.70
-25.00
-17.21
0.66
18.92
28.17
24.05
9.32
-8.13
-19.53
-20.08
-11.06
1.24
9.21
8.25
-0.81
-12.64
-20.56
-20.28
-12.30
-1.26
6.73
7.57
1.44
-7.78
-14.82
-16.08
-11.42
-3.91
2.14
3.72
0.74
-4.41
-8.48
-9.23
-6.58
-2.22
1.52
3.06
2.45
0.84
-0.43
-0.68
-0.14
0.45
0.51
-0.07
-0.69
-0.64
0.24
1.53
2.36
2.09
0.68
-1.25
-2.60
-2.46
-0.70
1.94
4.21
4.96
3.78
1.15
-1.63
-3.08
-2.43
0.08
3.15
5.17
4.95
2.45
-1.14
-3.96
-4.48
-2.44
1.11
4.19
5.08
3.16
-0.57
-4.09
-5.44
-3.90
-0.39
3.03
4.36
2.78
-0.75
-4.07
-5.09
-3.09
0.86
4.42
5.45
3.18
-1.13
-4.91
-5.88
-3.32
1.30
5.18
5.82
2.56
-2.89
-7.29
-7.86
-3.97
2.45
7.80
8.99
5.13
-1.77
-7.97
-10.03
-6.84
-0.24
5.99
8.21
5.11
-1.59
-7.97
-10.16
-6.67
0.72
7.84
10.55
7.09
-0.70
-8.48
-11.75
-8.56
-0.72
7.29
10.76
7.54
-0.63
-9.04
-12.68
-9.14
-0.15
9.28
13.71
10.33
0.86
-9.37
-14.33
-10.82
-0.52
10.90
16.98
14.21
4.14
-7.36
-13.55
-10.70
-0.37
11.39
17.61
14.33
3.17
-9.59
-16.47
-13.19
-1.30
12.57
20.36
17.36
5.05
-9.52
-17.73
-14.39
-1.00
14.97
24.28
21.24
7.14
-10.44
-21.83
-20.80
-8.04
9.22
21.33
21.68
10.26
-6.34
-18.79
-20.15
-9.79
6.40
19.26
21.49
11.74
-4.80
-19.20
-23.87
-16.55
-1.57
12.79
18.95
14.11
1.57
-11.47
-18.08
-15.33
-5.62
5.09
10.85
9.00
1.31
-7.37
-12.18
-10.82
-4.63
2.45
6.38
5.34
0.59
-4.52
-6.65
-4.52
0.40
4.89
5.98
2.93
-2.36
-6.48
-6.73
-2.71
3.28
7.74
7.94
3.76
-2.32
-6.72
-6.87
-2.75
3.19
7.38
7.34
3.04
-2.98
-7.14
-6.92
-2.32
4.00
8.29
7.83
2.72
-4.11
-8.47
-7.49
-1.43
6.33
11.13
9.86
2.99
-5.52
-10.57
-8.97
-1.49
7.54
12.85
11.32
3.98
-4.75
-9.78
-8.38
-1.72
5.97
10.08
8.36
2.08
-4.87
-8.45
-6.87
-1.35
4.65
7.64
6.01
0.84
-4.94
-8.19
-7.39
-3.22
1.89
5.15
4.93
1.51
-3.12
-6.40
-6.63
-3.75
0.65
4.14
4.84
2.43
-1.65
-4.99
-5.48
-2.64
2.17
6.32
7.40
4.62
-0.61
-5.45
-7.18
-4.72
0.64
6.00
8.40
6.57
1.72
-3.23
-5.36
-3.41
1.39
6.09
7.80
5.39
0.28
-4.40
-5.83
-2.98
2.54
7.49
8.92
5.88
0.04
-5.25
-7.02
-4.42
0.87
5.50
6.54
3.21
-2.67
-7.75
-9.06
-5.83
0.20
5.76
7.89
5.67
0.66
-4.13
-5.96
-3.95
0.51
4.69
6.14
4.02
-0.35
-4.38
-5.80
-3.88
0.13
3.76
4.82
2.61
-1.66
-5.56
-6.87
-4.89
-0.74
3.20
4.66
2.82
-1.34
-5.51
-7.40
-6.04
-2.30
1.64
3.54
2.35
-1.11
-4.78
-6.47
-5.15
-1.62
2.06
3.77
2.55
-0.78
-4.09
-5.31
-3.56
0.25
3.87
5.12
3.13
-1.12
-5.27
-6.92
-5.04
-0.56
4.06
6.18
4.50
-0.17
-5.42
-8.47
-7.73
-3.64
1.63
5.39
5.87
3.20
-0.91
-4.16
-5.03
-3.44
-0.69
1.50
2.01
0.98
-0.45
-0.98
-0.03
1.85
3.30
3.09
0.95
-2.09
-4.21
-3.89
-0.85
3.59
7.19
7.93
5.18
0.13
-4.81
-7.26
-6.14
-2.22
2.36
5.29
5.31
2.82
-0.46
-2.64
-2.73
-1.16
0.59
0.99
-0.47
-2.85
-4.35
-3.43
0.10
4.74
8.08
8.12
4.55
-0.94
-5.44
-6.49
-3.41
2.25
7.48
9.51
7.21
1.75
-4.18
-7.76
-7.56
-4.16
0.31
3.40
3.69
1.47
-1.56
-3.41
-2.94
-0.54
2.12
3.17
1.70
-1.54
-4.59
-5.36
-3.04
1.32
5.36
6.66
4.26
-0.65
-5.38
-7.30
-5.32
-0.57
4.24
6.42
4.89
0.77
-3.34
-4.88
-2.95
1.18
4.95
5.94
3.46
-1.00
-4.64
-5.12
-1.96
3.06
6.85
6.96
3.00
-2.88
-7.26
-7.37
-2.90
3.77
8.95
9.60
5.23
-1.80
-7.56
-8.89
-5.16
1.37
6.88
8.24
4.74
-1.45
-6.67
-7.81
-4.25
1.81
6.71
7.37
3.20
-3.50
-8.77
-9.36
-4.52
3.36
10.00
11.58
6.89
-1.89
-10.33
-14.05
-11.18
-3.29
5.49
10.70
9.90
3.96
-3.53
-8.43
-8.21
-3.38
3.03
7.18
6.66
1.77
-4.76
-9.32
-9.44
-5.19
1.00
5.71
6.48
3.12
-2.22
-6.48
-7.37
-4.59
0.10
3.98
5.08
3.32
0.30
-1.80
-1.75
-0.01
1.62
1.37
-1.12
-4.30
-5.52
-2.86
3.34
10.23
13.85
11.46
3.47
-6.27
-12.37
-10.96
-2.02
10.21
19.32
20.13
11.63
-2.21
-14.48
-18.87
-13.05
0.10
14.06
21.94
20.04
9.51
-4.39
-15.32
-19.03
-15.26
-7.41
-0.17
3.15
2.31
-0.32
-1.81
-0.85
1.30
1.73
-1.85
-9.07
-16.31
-18.39
-11.70
3.18
20.94
33.64
34.72
22.55
1.79
-18.70
-30.06
-27.79
-13.84
4.63
19.04
23.67
18.07
6.56
-4.82
-11.73
-13.32
-11.81
-10.27
-10.24
-10.56
-8.43
-1.90
8.20
17.92
22.04
17.13
4.05
-11.76
-22.72
-22.83
-10.87
8.51
26.88
36.09
32.10
16.83
-3.13
-20.00
-28.57
-28.13
-21.79
-13.91
-7.46
-2.53
2.78
10.01
18.27
24.11
23.36
13.93
-2.01
-18.15
-26.91
-23.41
-8.32
11.94
28.02
32.27
22.62
3.82
-15.09
-25.21
-22.29
-8.76
7.79
18.78
19.09
9.49
-4.11
-14.25
-15.98
-9.41
0.90
8.79
9.96
4.28
-4.58
-11.61
-13.44
-9.98
-4.03
0.62
1.61
-0.77
-4.12
-5.83
-4.75
-1.81
0.74
0.94
-1.33
-4.09
-4.51
-0.83
6.22
13.45
16.75
13.61
4.81
-5.42
-11.52
-9.61
0.17
13.23
22.72
23.13
13.31
-2.56
-17.00
-23.07
-17.99
-4.67
9.92
18.41
16.83
6.51
-6.92
-16.77
-18.80
-13.17
-3.76
4.29
7.51
5.76
1.71
-1.33
-1.64
-0.05
0.87
-1.03
-5.61
-9.89
-9.74
-2.58
10.44
24.27
32.22
29.53
16.29
-2.05
-17.14
-21.90
-14.06
2.54
20.00
30.32
29.25
18.18
2.82
-9.96
-15.69
-14.06
-8.32
-2.79
-0.20
-0.47
-1.37
-0.67
1.93
4.27
3.26
-2.88
-12.94
-22.75
-27.23
-23.20
-11.42
3.35
14.65
17.51
10.98
-1.42
-13.55
-19.88
-18.20
-10.51
-1.60
3.74
3.16
-2.17
-8.67
-12.54
-11.94
-7.85
-3.14
-0.66
-1.54
-4.51
-6.70
-5.53
-0.37
6.82
12.55
13.81
9.82
2.65
-3.91
-6.38
-3.57
2.77
9.07
12.00
10.27
5.23
-0.06
-2.62
-1.29
2.68
6.50
7.55
4.89
-0.11
-4.63
-5.95
-3.16
2.26
7.25
8.98
6.46
1.15
-3.98
-6.15
-4.42
-0.21
3.65
4.67
2.21
-2.17
-5.65
-5.80
-1.98
4.05
9.14
10.48
7.24
1.07
-4.74
-7.07
-4.65
1.16
7.19
10.30
9.19
5.04
0.69
-1.12
0.73
5.02
9.12
10.64
8.91
5.41
2.78
3.27
7.32
13.26
18.14
19.57
17.14
12.82
9.85
10.82
16.16
23.55
29.19
29.83
24.79
16.41
8.80
5.55
7.82
13.59
18.70
19.13
13.15
2.24
-9.82
-18.91
-22.54
-20.94
-16.69
-13.21
-12.88
-15.93
-20.72
-24.99
-27.39
-28.26
-29.34
-32.50
-38.25
-44.99
-49.73
-49.96
-45.35
-38.38
-33.18
-33.33
-39.59
-49.10
-56.73
-57.75
-50.50
-37.28
-23.15
-13.16
-9.64
-11.10
-13.33
-12.03
-5.23
5.66
16.96
24.88
27.77
26.79
24.89
24.76
27.07
30.13
31.05
27.84
20.92
13.40
9.49
12.09
20.96
32.28
40.35
40.29
30.71
14.66
-1.66
-11.85
-12.38
-4.19
7.98
18.18
22.30
19.91
13.80
7.69
3.80
1.52
-1.71
-8.06
-16.95
-24.35
-24.67
-14.13
6.28
30.10
47.79
51.24
37.92
12.66
-14.59
-33.50
-38.21
-29.57
-13.87
1.07
10.14
13.04
13.07
13.85
16.14
17.10
12.50
0.29
-16.88
-31.83
-36.37
-25.82
-2.22
25.80
46.67
51.43
38.03
12.30
-15.23
-34.51
-40.51
-34.61
-22.80
-11.60
-4.42
-0.22
4.68
13.02
23.74
31.87
31.33
18.90
-2.93
-26.29
-41.36
-41.20
-25.32
-0.14
24.06
38.05
37.80
25.76
8.65
-6.50
-15.84
-19.69
-21.14
-23.02
-25.34
-24.90
-17.39
-0.83
21.94
43.38
54.40
48.82
26.91
-3.99
-32.54
-48.38
-46.72
-30.23
-7.21
12.63
22.69
21.91
13.90
4.00
-3.90
-9.04
-13.08
-17.78
-22.68
-24.48
-18.80
-3.38
19.26
41.67
54.41
50.56
29.78
-0.80
-29.47
-45.33
-43.29
-26.19
-2.85
16.68
26.12
25.32
18.76
11.81
7.14
3.55
-2.33
-12.73
-26.06
-36.74
-37.95
-25.76
-2.04
25.47
46.44
52.69
42.14
19.50
-6.24
-26.33
-36.08
-36.21
-31.24
-26.02
-22.52
-18.66
-10.27
5.41
26.66
46.97
57.70
52.63
31.63
1.49
-26.95
-43.75
-44.38
-31.40
-12.52
3.76
12.57
14.39
13.33
13.32
14.99
15.19
9.54
-3.81
-21.60
-36.02
-38.48
-24.52
2.78
33.30
54.19
55.99
37.49
6.44
-24.17
-42.33
-42.32
-26.81
-4.66
13.84
21.91
18.71
8.45
-2.94
-11.27
-15.63
-17.71
-19.34
-20.41
-18.54
-10.93
2.86
19.30
31.76
33.71
22.54
1.84
-19.41
-30.94
-26.32
-6.60
19.79
40.86
46.83
34.88
10.34
-16.33
-34.86
-39.82
-32.47
-18.93
-6.17
1.79
5.39
7.92
12.17
17.77
21.03
17.36
4.84
-13.41
-29.86
-36.09
-27.33
-5.45
21.33
42.15
48.60
38.71
17.52
-5.89
-23.11
-30.28
-29.01
-24.23
-20.57
-19.23
-17.42
-10.65
3.57
23.00
40.75
48.39
40.53
18.32
-10.37
-34.52
-45.14
-39.56
-22.22
-1.85
13.20
19.11
17.61
13.76
12.01
13.24
14.33
10.60
-0.60
-17.22
-32.67
-38.85
-30.55
-8.79
18.94
41.95
51.36
44.33
25.04
1.94
-16.85
-27.24
-30.09
-29.24
-28.08
-27.08
-23.56
-13.99
2.77
23.43
40.84
47.07
37.63
14.44
-14.33
-37.69
-47.02
-40.02
-21.58
-0.80
13.94
19.16
17.31
13.99
13.74
16.84
19.32
15.94
4.12
-13.72
-30.70
-38.84
-33.32
-15.08
9.21
30.16
40.01
36.21
22.36
5.96
-5.95
-10.34
-9.41
-8.47
-11.89
-19.78
-27.31
-27.69
-16.64
4.32
27.95
44.73
47.82
36.49
16.24
-4.58
-19.08
-24.93
-24.46
-22.30
-22.10
-24.16
-25.41
-21.37
-9.28
9.74
30.37
45.17
47.97
37.06
16.35
-6.39
-23.34
-30.37
-28.80
-23.96
-21.46
-23.38
-26.71
-25.43
-14.70
5.43
29.08
47.32
52.97
44.63
27.34
9.45
-2.24
-6.09
-5.82
-7.39
-14.57
-26.15
-36.36
-38.46
-28.91
-9.64
12.72
30.25
37.64
34.48
24.87
14.69
8.34
6.55
6.45
3.66
-4.88
-18.76
-33.77
-43.77
-43.90
-33.20
-15.38
2.92
15.39
19.39
17.22
14.54
16.61
24.85
35.48
41.40
36.41
19.19
-5.15
-27.49
-39.54
-38.30
-27.47
-14.93
-7.90
-8.64
-13.38
-15.22
-8.84
5.98
23.88
37.00
39.27
29.67
12.47
-5.30
-17.43
-21.30
-18.31
-12.37
-7.40
-5.25
-5.12
-4.52
-1.37
4.45
10.60
13.59
10.91
3.00
-6.47
-12.41
-11.23
-3.16
7.55
14.94
14.73
6.88
-4.16
-12.03
-12.15
-4.34
6.95
15.19
15.43
7.14
-5.41
-15.48
-17.61
-10.65
1.55
12.30
15.82
10.38
-0.75
-11.37
-15.78
-12.02
-2.66
6.78
11.01
7.79
-0.99
-10.53
-15.81
-14.27
-7.11
1.45
6.60
5.72
-0.00
-6.32
-8.57
-4.68
3.38
10.64
12.27
6.74
-2.87
-10.67
-11.51
-4.18
7.83
18.25
21.73
16.69
6.01
-5.09
-12.05
-13.35
-10.69
-7.39
-6.05
-6.95
-8.10
-6.79
-1.54
6.69
14.72
18.69
16.04
7.04
-5.10
-15.47
-19.70
-16.05
-6.30
5.05
12.94
14.28
9.59
2.50
-2.51
-2.81
0.74
4.34
3.80
-2.59
-12.43
-20.23
-20.55
-11.33
4.43
20.00
28.40
26.32
15.81
2.96
-5.90
-7.81
-4.69
-1.58
-3.03
-9.80
-18.04
-21.66
-16.24
-2.07
15.64
29.39
33.46
26.72
12.91
-1.84
-12.34
-16.71
-16.47
-14.81
-14.23
-15.03
-15.30
-12.27
-4.37
7.55
20.03
28.30
28.34
19.01
3.06
-13.74
-24.98
-26.60
-18.88
-6.28
4.89
9.95
8.34
3.49
0.18
1.20
5.35
8.28
5.65
-3.50
-15.31
-23.00
-20.79
-7.65
11.65
28.81
36.37
31.64
17.90
2.13
-9.13
-13.16
-11.95
-10.10
-11.32
-15.89
-20.41
-20.08
-11.94
2.98
19.83
32.32
35.78
29.45
16.78
3.35
-5.89
-9.10
-8.06
-6.80
-9.04
-15.89
-25.05
-32.05
-32.84
-26.06
-13.87
-0.75
8.88
12.99
12.89
12.15
14.25
20.45
28.78
35.04
34.96
26.65
11.76
-5.20
-19.20
-27.03
-28.56
-26.22
-23.02
-20.47
-17.56
-11.82
-1.48
12.45
25.88
33.18
30.18
16.70
-2.66
-20.32
-29.05
-25.35
-11.02
7.60
22.62
28.13
22.69
9.49
-5.69
-17.32
-22.43
-21.35
-16.65
-11.19
-6.40
-2.00
2.99
8.69
13.49
14.67
10.08
0.10
-11.59
-19.33
-18.19
-6.82
11.21
28.65
37.73
33.95
18.38
-2.82
-21.46
-31.04
-29.56
-19.83
-7.38
2.60
7.81
9.13
8.98
9.08
9.09
6.96
0.87
-8.81
-18.69
-23.68
-19.67
-6.10
13.00
30.44
39.03
34.93
19.58
-1.05
-19.32
-29.36
-29.43
-22.05
-12.05
-3.77
1.14
3.79
6.50
10.50
14.67
16.04
11.82
1.62
-11.46
-21.93
-24.55
-17.09
-1.71
15.83
28.77
32.52
26.62
14.52
1.37
-8.68
-14.26
-16.66
-18.18
-20.01
-21.05
-18.49
-9.94
4.43
20.99
33.78
37.34
29.56
13.11
-5.82
-20.48
-26.86
-25.17
-19.09
-13.07
-9.49
-7.29
-3.00
6.35
20.53
35.24
43.93
41.31
26.64
4.67
-16.30
-28.55
-28.71
-19.23
-6.75
1.75
2.79
-1.85
-6.55
-5.46
3.83
18.70
32.80
39.58
35.78
23.26
7.81
-4.02
-8.51
-6.59
-2.91
-2.94
-9.66
-21.72
-34.15
-41.18
-39.29
-29.10
-14.96
-2.68
3.39
2.28
-3.45
-9.50
-12.22
-10.47
-5.86
-1.52
-0.05
-1.97
-5.46
-7.72
-6.77
-2.78
2.06
4.98
4.55
1.81
-0.26
1.46
8.11
17.84
26.46
29.60
25.18
14.75
2.89
-5.09
-6.00
-0.41
7.63
12.85
11.59
3.82
-6.82
-15.07
-16.92
-11.65
-2.14
6.79
10.95
8.94
2.54
-4.52
-8.84
-9.05
-6.37
-3.56
-3.06
-5.45
-9.03
-10.94
-8.96
-2.94
4.83
10.74
11.75
7.02
-1.55
-10.37
-16.06
-17.06
-14.30
-10.28
-7.44
-6.48
-6.07
-4.02
0.80
7.02
11.06
9.05
-0.49
-14.82
-27.50
-31.15
-21.43
0.26
26.62
47.42
54.09
43.71
20.27
-7.56
-30.63
-43.29
-45.03
-39.26
-30.21
-19.98
-7.65
8.91
29.84
51.13
65.12
64.06
44.70
11.34
-24.92
-50.79
-56.91
-42.23
-14.38
14.26
32.71
36.38
28.43
16.60
8.13
5.58
6.08
4.07
-4.25
-17.68
-29.93
-32.99
-21.86
1.94
30.40
52.43
59.15
48.12
24.24
-3.21
-25.40
-37.96
-42.10
-42.36
-42.69
-43.25
-39.96
-27.40
-3.13
29.18
59.98
77.71
74.34
49.72
12.09
-25.69
-52.03
-61.53
-56.43
-44.09
-32.12
-24.08
-18.10
-9.29
6.01
26.87
47.32
59.27
56.96
40.45
15.90
-7.54
-22.48
-26.89
-24.54
-22.08
-24.47
-31.50
-37.49
-34.63
-18.02
10.61
42.55
65.74
70.45
54.06
22.54
-12.47
-39.02
-49.97
-45.41
-31.17
-14.91
-1.74
7.89
16.87
27.79
39.69
47.37
44.09
26.10
-3.77
-35.95
-57.99
-60.54
-42.06
-9.84
23.45
45.74
51.11
41.71
25.29
10.08
0.25
-5.57
-12.11
-23.16
-38.11
-51.30
-54.98
-43.89
-18.93
12.42
39.30
52.57
49.22
33.57
14.47
0.31
-5.33
-5.00
-5.00
-10.82
-23.16
-36.96
-44.09
-38.29
-19.13
7.14
30.59
42.67
40.58
28.45
14.54
6.27
6.02
10.19
11.86
5.54
-8.92
-25.55
-35.26
-31.12
-12.43
14.25
38.15
49.58
44.60
26.66
4.23
-13.98
-23.29
-24.72
-23.15
-23.47
-26.94
-30.06
-26.79
-12.86
10.57
36.14
53.33
53.72
35.67
5.65
-24.85
-44.90
-49.37
-40.75
-26.80
-15.54
-10.58
-9.32
-5.20
7.39
28.87
53.09
70.04
70.96
53.21
22.02
-12.09
-38.47
-51.47
-52.38
-47.48
-43.38
-42.62
-41.98
-34.88
-16.22
13.40
46.53
71.73
79.07
65.06
34.56
-1.70
-32.28
-50.10
-54.78
-51.16
-45.22
-39.92
-33.49
-21.28
-0.06
28.30
55.90
71.95
68.17
43.66
6.35
-30.25
-53.07
-55.40
-39.48
-14.67
7.76
20.25
22.06
18.03
14.33
14.07
15.37
13.20
3.43
-13.38
-31.01
-40.38
-34.58
-13.17
16.73
43.40
56.11
50.30
29.66
3.74
-17.25
-27.51
-27.79
-23.61
-21.00
-22.29
-24.41
-21.09
-7.27
16.89
44.80
66.04
71.43
57.75
29.55
-3.10
-29.66
-43.92
-46.25
-41.97
-37.24
-34.96
-32.84
-25.26
-7.51
20.17
51.21
74.97
81.71
67.39
36.11
-1.79
-34.42
-53.63
-57.89
-51.70
-41.92
-33.39
-26.33
-17.34
-3.01
16.33
35.25
45.42
40.32
19.58
-9.65
-35.57
-47.24
-39.96
-17.45
10.21
31.81
40.52
36.95
27.67
20.58
19.78
23.12
23.81
15.05
-5.15
-31.86
-55.40
-66.40
-60.89
-42.18
-18.88
0.04
10.02
13.01
15.25
22.71
36.60
52.03
60.34
54.11
31.79
-0.54
-31.61
-50.31
-51.06
-36.19
-14.28
4.67
14.45
15.38
12.85
12.94
17.98
24.78
26.73
18.27
-0.90
-24.64
-43.17
-48.13
-37.08
-14.85
9.02
25.26
29.44
23.69
14.72
9.43
10.83
16.55
20.63
17.42
5.21
-12.34
-28.09
-35.25
-31.13
-18.54
-4.17
5.06
5.68
-0.76
-9.07
-13.67
-11.83
-4.99
2.46
5.92
3.32
-3.73
-11.07
-14.42
-11.82
-4.65
3.30
8.05
7.68
3.38
-1.33
-2.75
0.88
8.31
15.98
19.95
18.10
11.39
3.26
-2.30
-3.01
0.47
4.98
6.75
3.63
-3.58
-11.56
-16.43
-15.99
-11.00
-4.71
-0.94
-1.84
-6.60
-12.05
-14.56
-12.24
-6.04
0.88
4.98
4.50
0.41
-4.19
-5.97
-3.33
2.68
9.11
12.74
12.02
7.98
3.53
1.78
4.20
9.73
15.29
17.58
14.87
8.10
0.44
-4.52
-4.68
-0.65
4.70
7.84
6.72
1.96
-3.55
-6.36
-4.61
0.80
6.61
9.04
6.02
-1.49
-9.96
-15.28
-15.08
-10.18
-4.12
-1.06
-3.40
-10.23
-17.86
-21.98
-20.17
-13.24
-4.75
1.11
1.96
-1.52
-6.11
-8.13
-5.67
0.27
6.48
9.41
7.30
1.28
-5.32
-8.80
-7.24
-1.51
5.25
9.43
8.97
4.55
-0.90
-3.92
-2.50
2.83
9.29
13.59
13.74
10.20
5.54
2.87
3.95
8.20
12.97
15.10
12.84
6.96
0.45
-3.15
-1.82
3.74
10.38
14.25
12.96
7.04
-0.39
-5.40
-5.55
-1.39
3.92
6.38
3.58
-3.79
-12.24
-17.51
-16.94
-11.01
-2.97
3.03
4.33
1.30
-3.05
-4.90
-2.06
4.70
12.00
15.77
13.61
6.30
-2.58
-8.62
-9.13
-4.65
1.34
4.44
1.96
-5.41
-13.94
-18.96
-17.58
-10.36
-1.03
5.62
6.47
1.83
-4.89
-9.26
-8.54
-3.33
2.84
5.54
2.14
-6.55
-16.64
-23.34
-23.55
-17.55
-8.69
-1.35
1.47
-0.12
-3.30
-4.44
-1.43
4.99
11.61
14.71
12.25
5.19
-3.00
-8.26
-8.21
-3.32
3.39
8.26
9.01
6.11
2.33
0.97
3.83
9.97
16.18
18.79
15.81
8.16
-0.69
-6.65
-7.18
-2.68
3.83
8.49
8.76
4.88
-0.43
-3.64
-2.72
1.70
6.50
7.97
4.00
-4.51
-13.97
-20.03
-20.06
-14.51
-6.71
-0.87
0.29
-2.92
-7.44
-9.44
-6.67
0.20
7.88
12.46
11.66
6.26
-0.32
-4.03
-2.52
3.46
10.49
14.41
12.71
6.00
-2.38
-8.32
-9.30
-5.71
-0.49
2.73
1.89
-2.31
-6.78
-8.02
-4.22
3.64
12.22
17.73
17.94
13.50
7.40
3.27
3.25
6.79
11.01
12.50
9.29
2.12
-5.92
-11.17
-11.41
-7.04
-0.75
4.10
5.39
3.35
0.23
-1.29
0.26
4.18
7.99
8.93
5.58
-1.14
-8.39
-12.90
-12.78
-8.61
-3.13
0.26
-0.61
-5.38
-11.35
-15.04
-14.28
-9.50
-3.64
-0.43
-2.28
-8.67
-16.35
-21.13
-20.24
-13.91
-5.27
1.53
3.63
1.10
-3.22
-5.56
-3.51
2.54
9.64
14.07
13.59
8.77
2.73
-0.74
0.66
6.43
13.57
18.30
18.21
13.61
7.30
2.86
2.57
6.20
11.10
13.90
12.45
7.14
0.59
-3.88
-4.24
-0.78
4.08
7.33
7.15
3.93
-0.04
-2.12
-0.93
2.71
6.18
6.58
2.43
-5.30
-13.58
-18.96
-19.34
-15.25
-9.50
-5.62
-5.89
-9.97
-15.12
-17.81
-15.78
-9.46
-1.73
3.68
4.31
0.51
-4.88
-8.12
-6.80
-1.18
6.00
11.15
11.98
8.77
4.19
1.55
2.84
7.56
13.00
15.92
14.39
9.01
2.53
-1.81
-2.15
0.91
4.65
5.82
2.51
-4.65
-12.83
-18.52
-19.46
-15.87
-10.24
-5.84
-4.80
-6.84
-9.50
-9.57
-5.15
3.16
12.41
18.84
19.97
15.92
9.28
3.58
1.21
2.27
4.58
5.32
2.77
-2.44
-7.70
-10.01
-7.81
-2.08
4.09
7.13
4.99
-1.65
-9.66
-15.17
-15.65
-11.24
-4.61
0.58
1.83
-0.80
-4.76
-6.58
-3.97
2.84
11.11
17.21
18.63
15.44
10.17
6.27
5.95
8.82
11.96
11.63
5.58
-5.27
-17.06
-24.97
-25.92
-20.39
-12.18
-6.17
-5.42
-9.35
-14.14
-15.25
-10.34
-0.75
9.11
14.49
13.06
6.44
-0.70
-3.31
1.16
11.25
22.35
29.11
28.40
20.97
10.84
2.96
0.31
2.28
5.18
4.66
-1.65
-12.34
-23.03
-28.80
-27.00
-18.74
-8.22
-0.26
2.37
0.43
-2.47
-2.18
3.37
12.94
22.49
27.52
25.38
16.90
5.74
-3.55
-8.02
-7.80
-5.61
-4.96
-7.84
-13.40
-18.40
-19.27
-14.24
-4.63
5.81
12.85
14.01
9.84
3.41
-1.50
-2.55
-0.01
3.64
5.32
3.23
-1.98
-7.57
-10.29
-8.22
-1.93
5.81
11.55
12.95
10.04
4.95
0.50
-1.49
-1.19
-0.47
-1.53
-5.26
-10.48
-14.42
-14.34
-9.15
-0.31
8.82
14.59
14.90
10.23
3.32
-2.40
-4.66
-3.37
-0.50
1.26
0.18
-3.43
-7.41
-9.11
-6.97
-1.60
4.57
8.54
8.43
4.54
-0.95
-5.23
-6.46
-4.69
-1.64
0.50
0.52
-1.08
-2.46
-1.67
1.94
7.08
11.11
11.37
6.83
-1.15
-9.22
-13.71
-12.48
-6.04
2.68
9.86
12.67
10.71
5.93
1.34
-0.84
-0.35
1.10
1.11
-1.76
-6.90
-11.90
-13.90
-11.32
-4.81
3.06
9.09
11.21
9.42
5.62
2.30
1.04
1.58
2.21
0.98
-2.82
-7.97
-11.84
-11.93
-7.40
0.20
7.57
11.35
9.81
3.87
-3.46
-8.65
-9.46
-6.03
-0.61
3.79
5.15
3.50
0.75
-0.58
0.98
4.88
8.80
9.93
6.72
-0.11
-7.79
-12.96
-13.41
-9.21
-2.61
3.34
6.43
6.39
4.76
3.65
4.29
6.19
7.41
5.92
1.02
-5.88
-11.82
-13.78
-10.48
-3.12
5.03
10.27
10.32
5.51
-1.58
-7.50
-9.75
-7.97
-3.91
-0.16
1.43
0.77
-0.61
-0.77
1.20
4.43
6.70
5.88
1.36
-5.16
-10.47
-11.45
-6.96
1.46
10.19
15.35
14.72
8.85
0.75
-5.81
-8.14
-5.93
-1.16
3.18
4.79
3.28
0.15
-2.31
-2.59
-0.91
0.92
0.71
-2.57
-7.86
-12.42
-13.35
-9.33
-1.61
6.47
11.12
10.11
4.04
-3.93
-9.73
-10.46
-5.83
1.84
8.94
12.52
11.69
7.83
3.53
0.98
0.77
1.83
2.32
1.07
-1.58
-3.90
-3.92
-0.86
4.08
8.20
8.68
4.37
-3.35
-10.98
-14.69
-12.38
-4.92
4.19
10.52
11.07
5.75
-2.54
-9.58
-12.02
-9.09
-2.78
3.36
6.31
5.09
1.16
-2.73
-4.24
-2.78
0.36
2.94
3.35
1.66
-0.50
-1.11
0.82
4.43
7.44
7.54
3.95
-1.88
-6.92
-8.30
-4.96
1.50
7.69
10.21
7.60
1.24
-5.45
-8.89
-7.38
-2.02
3.95
7.02
5.39
-0.03
-6.15
-9.58
-8.47
-3.57
2.30
5.80
5.03
0.49
-5.21
-8.90
-8.59
-4.52
1.04
5.10
5.57
2.39
-2.49
-6.26
-6.77
-3.72
1.32
5.75
7.39
5.67
1.85
-1.78
-3.23
-1.85
1.31
4.29
5.32
3.96
1.25
-0.98
-1.23
0.70
3.63
5.70
5.51
3.03
-0.39
-2.85
-3.00
-0.87
2.14
4.13
3.85
1.51
-1.38
-2.93
-2.08
0.73
3.74
4.90
3.19
-0.71
-4.71
-6.50
-4.98
-0.92
3.37
5.43
4.05
0.09
-4.01
-5.74
-4.05
-0.06
3.61
4.42
1.52
-3.66
-8.18
-9.43
-6.69
-1.66
2.60
3.45
0.28
-5.11
-9.50
-10.23
-6.71
-0.76
4.45
6.20
3.76
-1.18
-5.52
-6.45
-3.08
3.09
8.94
11.39
9.09
3.20
-3.20
-6.78
-5.70
-0.72
5.24
8.63
7.30
1.77
-4.97
-9.10
-8.20
-2.64
4.53
9.32
9.05
4.05
-2.55
-6.62
-5.51
0.33
7.53
11.75
10.30
3.77
-4.21
-9.11
-8.27
-2.38
4.76
8.61
6.59
-0.37
-8.32
-12.75
-11.25
-4.93
2.34
6.29
4.82
-0.83
-6.91
-9.57
-7.16
-1.07
5.18
8.15
6.51
1.71
-3.06
-4.83
-2.63
2.11
6.49
7.93
5.61
0.82
-3.85
-6.04
-4.93
-1.52
2.00
3.59
2.36
-0.97
-4.56
-6.56
-6.02
-3.34
0.11
2.67
3.30
2.05
-0.04
-1.48
-1.13
1.20
4.58
7.31
7.79
5.43
1.13
-3.05
-4.94
-3.46
0.58
4.78
6.51
4.55
-0.02
-4.38
-5.63
-2.70
2.84
7.64
8.64
5.13
-0.74
-5.26
-5.54
-1.40
4.54
8.49
7.92
3.15
-2.95
-6.81
-6.47
-2.61
2.02
4.42
3.20
-0.77
-4.99
-6.97
-5.59
-1.61
2.94
5.97
6.33
4.40
1.72
0.17
0.94
3.94
7.78
10.50
10.67
8.31
5.07
3.37
5.02
9.89
15.73
19.05
17.05
9.23
-2.15
-13.17
-20.40
-22.65
-21.44
-19.75
-19.96
-22.28
-24.65
-24.30
-19.70
-11.76
-3.40
2.19
3.37
0.99
-2.34
-3.80
-2.08
2.14
6.71
9.47
9.33
6.81
3.62
1.60
1.80
3.99
6.79
8.41
7.55
4.17
-0.39
-4.02
-4.95
-2.78
1.14
4.37
4.79
1.90
-2.78
-6.61
-7.48
-5.10
-1.22
1.58
1.55
-1.11
-4.41
-5.92
-4.38
-0.47
3.70
5.88
4.99
1.71
-1.95
-3.85
-2.81
0.79
5.26
8.44
8.78
6.21
2.18
-1.06
-1.75
0.32
3.64
5.82
5.09
1.48
-3.14
-6.15
-5.87
-2.58
1.63
4.13
3.33
-0.40
-4.99
-7.90
-7.54
-4.10
0.64
4.27
5.05
2.85
-0.82
-3.69
-4.06
-1.76
1.65
3.92
3.40
0.18
-3.91
-6.39
-5.66
-1.93
2.86
6.16
6.32
3.47
-0.59
-3.47
-3.54
-0.75
3.37
6.58
7.12
4.72
0.78
-2.47
-3.21
-1.19
2.12
4.40
3.95
0.81
-3.22
-5.73
-5.18
-1.85
2.32
4.93
4.48
1.22
-3.00
-5.82
-5.66
-2.57
1.82
5.17
5.73
3.32
-0.63
-3.91
-4.82
-3.15
-0.23
1.89
1.71
-0.70
-3.83
-5.61
-4.74
-1.43
2.62
5.26
5.04
2.03
-2.17
-5.30
-5.73
-3.27
0.59
3.57
3.88
1.29
-2.72
-5.89
-6.55
-4.57
-1.36
1.08
1.39
-0.33
-2.67
-3.88
-2.90
-0.02
3.39
5.62
5.53
3.24
0.01
-2.36
-2.46
-0.03
3.80
7.00
7.79
5.66
1.75
-1.74
-2.90
-1.27
1.83
4.21
4.15
1.54
-2.05
-4.40
-4.00
-0.96
3.07
5.86
5.87
3.11
-0.89
-3.99
-4.56
-2.33
1.41
4.54
5.21
2.94
-1.04
-4.51
-5.50
-3.57
-0.06
2.72
2.94
0.38
-3.41
-6.12
-6.13
-3.40
0.44
3.15
3.15
0.45
-3.35
-6.01
-5.86
-2.82
1.57
4.95
5.45
2.76
-1.63
-5.27
-6.25
-4.23
-0.66
2.20
2.64
0.55
-2.63
-4.79
-4.46
-1.64
2.22
5.08
5.42
3.13
-0.44
-3.26
-3.77
-1.74
1.53
4.01
4.06
1.44
-2.49
-5.51
-5.89
-3.33
0.83
4.35
5.44
3.71
0.38
-2.47
-3.20
-1.50
1.46
3.78
4.00
1.97
-1.05
-3.17
-2.98
-0.44
3.12
5.70
5.81
3.35
-0.32
-3.11
-3.47
-1.19
2.46
5.42
6.04
3.94
0.27
-2.97
-4.03
-2.42
0.82
3.72
4.53
2.76
-0.60
-3.62
-4.68
-3.31
-0.51
1.94
2.53
0.93
-1.77
-3.73
-3.50
-0.88
2.84
5.61
5.82
3.25
-0.78
-4.13
-5.10
-3.32
0.05
3.01
3.85
2.14
-1.03
-3.64
-4.02
-1.79
1.87
4.93
5.64
3.56
-0.18
-3.54
-4.69
-3.03
0.48
3.90
5.36
4.20
1.28
-1.54
-2.55
-1.23
1.49
3.84
4.24
2.32
-0.85
-3.37
-3.64
-1.33
2.34
5.25
5.60
2.95
-1.48
-5.45
-7.02
-5.56
-2.07
1.37
2.80
1.45
-1.79
-4.94
-6.09
-4.58
-1.32
1.71
2.66
0.95
-2.43
-5.47
-6.34
-4.39
-0.56
3.23
5.10
4.31
1.71
-0.91
-1.83
-0.46
2.36
4.90
5.57
3.84
0.65
-2.15
-2.85
-0.88
2.76
6.04
6.99
4.89
0.65
-3.65
-5.91
-5.19
-2.19
1.16
2.78
1.69
-1.45
-4.78
-6.36
-5.32
-2.35
0.77
2.21
1.22
-1.43
-3.95
-4.60
-2.78
0.58
3.55
4.37
2.45
-1.13
-4.32
-5.23
-3.23
0.68
4.35
5.73
3.99
0.06
-3.99
-6.04
-5.24
-2.36
0.60
1.59
-0.31
-4.25
-8.14
-9.79
-8.20
-4.20
0.11
2.48
1.87
-0.97
-3.99
-5.06
-3.24
0.70
4.77
6.94
6.33
3.70
0.99
0.11
1.86
5.43
8.90
10.32
8.85
5.32
1.70
0.07
1.38
4.91
8.64
10.39
9.10
5.43
1.42
-0.73
0.08
3.12
6.33
7.47
5.48
1.19
-3.19
-5.33
-4.20
-0.69
2.87
4.04
1.73
-3.17
-8.19
-10.76
-9.66
-5.76
-1.46
0.62
-0.81
-4.97
-9.53
-11.93
-10.89
-7.10
-2.80
-0.45
-1.26
-4.57
-8.23
-9.93
-8.54
-4.71
-0.49
1.88
1.30
-1.57
-4.74
-6.10
-4.61
-0.92
3.07
5.33
4.85
2.21
-0.82
-2.32
-1.40
1.38
4.34
5.70
4.63
1.78
-1.17
-2.44
-1.32
1.54
4.43
5.62
4.36
1.38
-1.53
-2.60
-1.12
2.16
5.43
6.90
5.78
2.81
-0.25
-1.57
-0.39
2.66
5.87
7.45
6.59
3.91
1.10
-0.05
1.31
4.63
8.17
10.07
9.34
6.43
3.01
1.04
1.58
4.28
7.48
9.17
8.12
4.66
0.49
-2.30
-2.41
-0.18
2.57
3.54
1.28
-3.87
-9.92
-14.32
-15.42
-13.39
-9.98
-7.51
-7.45
-9.50
-11.82
-12.25
-9.62
-4.53
0.98
4.64
5.17
3.05
0.22
-1.05
0.46
4.30
8.55
10.93
10.06
6.28
1.45
-2.07
-2.75
-0.75
2.16
3.72
2.44
-1.43
-6.06
-9.04
-8.74
-5.21
-0.12
4.20
6.04
5.21
3.10
1.71
2.47
5.31
8.63
10.18
8.43
3.49
-2.79
-7.80
-9.62
-8.07
-4.80
-2.34
-2.57
-5.63
-9.79
-12.55
-12.13
-8.52
-3.49
0.55
1.96
0.80
-1.16
-1.65
0.74
5.62
11.00
14.43
14.36
11.07
6.61
3.60
3.77
6.97
11.20
13.72
12.64
7.98
1.77
-3.06
-4.31
-1.78
2.59
5.81
5.61
1.75
-3.85
-8.20
-9.02
-6.10
-1.48
1.82
1.56
-2.34
-7.75
-11.59
-11.57
-7.61
-1.87
2.46
3.01
-0.40
-5.70
-9.81
-10.37
-7.12
-1.98
2.06
2.74
-0.17
-4.79
-8.26
-8.42
-5.04
-0.02
3.80
4.22
1.09
-3.71
-7.32
-7.59
-4.34
0.54
4.18
4.44
1.16
-3.75
-7.47
-7.92
-4.99
-0.51
2.83
3.05
0.10
-4.16
-7.14
-7.05
-3.92
0.43
3.47
3.41
0.31
-4.00
-6.95
-6.75
-3.37
1.43
5.19
6.06
3.95
0.41
-2.18
-2.12
0.70
4.79
7.96
8.56
6.48
3.17
0.87
1.19
4.26
8.58
11.83
12.23
9.54
5.32
2.02
1.62
4.49
9.05
12.65
13.08
9.84
4.48
-0.23
-1.87
0.18
4.34
7.74
7.86
4.06
-2.07
-7.47
-9.45
-7.22
-2.45
1.65
2.16
-1.88
-8.87
-15.54
-18.78
-17.39
-12.65
-7.56
-5.00
-6.07
-9.54
-12.63
-12.74
-8.96
-2.63
3.47
6.77
6.42
3.68
1.19
1.37
5.01
10.72
15.75
17.53
15.18
10.06
5.02
2.83
4.49
8.69
12.46
12.95
9.07
2.28
-4.15
-7.03
-5.17
-0.10
4.66
5.69
1.64
-5.83
-13.04
-16.40
-14.56
-9.23
-4.18
-3.00
-6.95
-14.14
-20.65
-22.88
-19.58
-12.61
-5.72
-2.30
-3.52
-7.63
-11.09
-10.79
-5.85
1.92
9.08
12.59
11.44
7.24
3.17
2.07
4.82
9.88
14.27
15.34
12.39
7.11
2.61
1.53
4.52
9.78
14.13
14.82
11.26
5.30
0.25
-1.12
1.86
7.33
11.99
13.02
9.72
3.92
-1.11
-2.59
0.19
5.41
9.78
10.49
6.80
0.57
-4.84
-6.54
-3.76
1.64
6.22
6.90
2.85
-4.03
-10.06
-11.96
-8.70
-2.17
3.83
5.74
2.30
-4.70
-11.39
-14.13
-11.56
-5.35
0.76
3.16
0.49
-5.51
-11.11
-12.85
-9.52
-2.94
3.19
5.40
2.60
-3.31
-8.58
-9.88
-6.19
0.62
6.86
9.17
6.47
0.46
-5.34
-7.70
-5.36
0.21
5.85
8.44
6.67
1.70
-3.51
-5.97
-4.37
0.23
5.03
7.09
5.05
-0.02
-5.26
-7.74
-6.13
-1.53
3.19
5.03
2.77
-2.35
-7.31
-9.13
-6.62
-1.16
4.07
5.98
3.37
-2.33
-7.83
-9.93
-7.42
-1.78
3.66
5.73
3.18
-2.42
-7.70
-9.49
-6.65
-0.70
5.12
7.78
6.18
1.82
-2.31
-3.51
-0.93
3.99
8.37
9.60
6.87
1.63
-3.22
-5.00
-2.79
2.09
6.72
8.23
5.42
-0.51
-6.59
-9.74
-8.52
-4.02
0.90
3.20
1.47
-3.23
-7.99
-9.76
-7.18
-1.33
4.85
8.28
7.40
3.21
-1.47
-3.69
-2.08
2.33
6.70
8.07
5.16
-0.73
-6.51
-9.02
-6.93
-1.53
3.98
6.35
4.17
-1.33
-6.99
-9.60
-7.72
-2.49
3.00
5.52
3.57
-1.72
-7.22
-9.70
-7.63
-2.21
3.37
5.72
3.22
-2.91
-9.28
-12.28
-10.17
-4.12
2.50
6.02
4.53
-0.96
-7.15
-10.45
-8.91
-3.35
3.19
7.16
6.70
2.66
-1.92
-3.60
-0.56
6.30
13.81
18.43
18.12
13.58
7.93
4.85
6.57
12.56
19.87
24.65
24.42
19.59
13.25
9.40
10.68
16.65
23.91
28.00
26.08
18.79
10.17
5.43
7.79
16.31
26.23
31.42
28.06
17.18
4.32
-3.72
-2.85
5.56
15.14
18.20
10.46
-6.14
-24.11
-34.66
-32.99
-21.32
-7.61
-1.12
-6.84
-22.14
-38.36
-45.90
-39.92
-23.27
-5.08
4.61
0.72
-13.93
-30.27
-38.39
-33.31
-17.81
-0.51
9.21
6.68
-5.21
-18.12
-23.35
-16.96
-2.05
13.19
20.44
16.02
3.02
-10.60
-16.79
-12.12
0.32
12.77
17.29
10.41
-4.59
-19.58
-26.19
-20.70
-6.32
8.52
14.92
8.65
-7.16
-23.70
-31.55
-26.19
-10.69
6.02
14.24
9.17
-6.11
-22.72
-31.12
-26.79
-12.75
2.32
9.51
4.78
-8.53
-21.80
-26.52
-19.37
-4.13
10.57
16.36
10.09
-4.30
-18.26
-23.56
-17.12
-2.74
11.28
16.99
11.19
-2.54
-16.18
-22.09
-17.31
-5.17
6.80
11.42
6.11
-5.72
-16.78
-20.21
-13.62
-0.31
12.86
19.41
17.02
8.94
1.80
1.62
10.21
23.98
35.99
39.99
34.03
21.68
9.97
5.20
9.28
18.66
26.52
26.76
17.65
3.00
-10.21
-15.87
-12.20
-2.66
6.17
8.40
2.17
-9.26
-19.62
-23.26
-18.55
-8.83
-0.48
0.79
-6.80
-19.85
-31.81
-36.78
-32.88
-23.22
-13.94
-10.51
-14.44
-22.23
-27.60
-25.26
-14.11
2.00
16.37
23.23
20.79
12.30
4.02
1.63
7.14
17.81
27.81
31.55
26.97
16.78
7.07
3.73
9.10
20.51
31.62
36.00
30.86
18.84
6.59
1.03
5.23
16.53
28.15
32.93
27.55
14.76
1.57
-4.75
-0.78
10.92
23.29
29.03
24.63
12.52
-0.27
-6.31
-2.06
10.28
23.91
31.31
28.72
18.18
6.35
0.74
5.13
17.40
30.72
37.34
33.04
19.96
5.31
-2.63
0.77
13.42
27.53
33.97
27.31
9.43
-11.28
-24.70
-24.77
-13.08
1.53
8.09
-0.04
-21.19
-45.95
-62.62
-64.19
-52.33
-36.40
-27.98
-33.82
-51.81
-72.49
-84.64
-82.01
-66.80
-47.87
-35.23
-34.20
-42.33
-51.49
-53.12
-43.34
-25.16
-6.35
5.41
6.86
1.00
-4.95
-4.03
6.43
23.50
40.29
50.04
49.84
42.17
33.43
30.18
35.37
46.78
58.24
63.12
58.17
45.49
31.42
23.08
24.21
33.03
43.19
47.28
41.16
26.65
10.55
0.87
2.17
12.73
25.42
31.67
26.49
11.65
-5.13
-14.72
-11.92
1.17
16.07
22.67
15.03
-4.87
-28.05
-43.75
-45.62
-35.43
-22.22
-16.87
-25.71
-46.73
-70.56
-86.01
-86.46
-73.35
-55.03
-41.66
-39.09
-45.80
-54.30
-55.90
-46.12
-27.16
-6.16
8.93
14.04
11.15
6.57
7.09
16.05
31.39
47.14
56.99
57.69
50.99
42.61
38.79
42.89
53.57
65.29
71.65
68.87
58.04
44.75
35.91
35.60
42.83
51.70
54.57
46.64
28.96
8.17
-6.84
-10.13
-2.24
10.07
17.34
12.97
-2.67
-22.38
-36.24
-37.45
-26.49
-10.97
-1.18
-4.03
-18.77
-37.24
-48.74
-46.40
-31.29
-11.97
0.53
-0.89
-15.16
-33.61
-45.04
-42.34
-26.62
-6.49
6.84
6.04
-8.04
-26.89
-39.26
-37.60
-22.35
-1.55
13.76
15.78
4.41
-12.89
-25.54
-26.03
-14.20
2.83
14.93
14.90
2.88
-13.88
-25.29
-24.45
-11.84
5.00
15.95
14.23
0.66
-16.75
-27.60
-25.11
-10.36
8.28
20.03
17.86
2.76
-16.69
-29.45
-28.34
-14.12
4.94
17.99
17.92
5.34
-11.82
-23.24
-22.23
-9.41
7.85
20.04
21.02
11.50
-1.67
-9.88
-7.86
3.38
17.34
26.10
24.84
14.62
1.64
-6.79
-6.42
1.53
11.14
15.46
10.61
-1.96
-16.08
-24.66
-23.80
-14.99
-4.59
-0.10
-5.91
-20.63
-37.56
-48.40
-47.96
-37.07
-22.35
-12.47
-13.25
-24.14
-38.22
-46.18
-41.66
-25.00
-3.34
13.46
18.42
11.59
0.08
-6.26
-0.75
16.08
36.48
50.13
50.05
36.89
18.79
6.60
7.84
22.42
42.76
58.30
61.46
51.90
36.50
25.10
24.68
35.34
50.26
59.80
57.11
42.27
22.41
7.52
4.82
14.40
29.11
38.66
35.43
19.13
-2.87
-19.83
-23.65
-13.72
2.63
14.49
13.44
-1.34
-22.62
-39.54
-43.80
-34.64
-19.13
-7.95
-9.11
-23.10
-42.55
-56.62
-57.30
-44.11
-24.41
-9.11
-6.54
-17.47
-34.77
-47.57
-47.51
-33.68
-13.12
3.25
6.92
-3.19
-20.01
-32.58
-32.43
-18.61
1.66
17.26
19.65
8.03
-10.09
-23.28
-22.94
-8.29
13.03
29.46
32.22
20.41
1.52
-13.08
-14.80
-2.86
15.35
28.68
28.79
15.17
-4.58
-19.29
-20.73
-8.54
9.67
22.70
22.36
8.32
-11.71
-26.46
-27.79
-15.35
3.20
16.65
16.88
3.57
-15.50
-29.06
-29.02
-15.09
5.12
20.46
22.91
12.15
-4.32
-15.71
-14.42
-0.38
18.90
32.80
33.85
21.98
4.57
-8.14
-8.95
2.20
18.37
29.90
30.12
19.22
4.04
-6.13
-5.06
6.84
22.73
33.49
32.90
21.32
5.34
-6.21
-7.37
1.45
13.86
21.29
18.08
5.06
-10.95
-21.06
-19.53
-7.28
8.52
18.55
16.62
3.51
-13.53
-24.88
-24.21
-12.10
4.26
15.29
14.65
3.04
-12.13
-21.06
-17.39
-1.79
18.33
33.11
36.01
27.52
14.77
7.11
10.54
24.35
41.53
53.16
53.58
43.67
30.12
21.19
22.01
31.62
43.88
51.30
49.19
38.40
24.23
13.13
8.83
10.23
12.46
9.86
-0.50
-16.89
-33.86
-45.26
-47.84
-43.10
-36.50
-34.48
-40.67
-53.65
-67.48
-75.08
-72.34
-60.67
-46.58
-37.98
-39.78
-50.62
-63.44
-69.49
-63.36
-46.55
-26.82
-13.85
-13.79
-25.17
-39.78
-47.13
-40.69
-21.86
0.83
16.43
18.17
7.42
-6.91
-13.65
-5.93
14.84
39.74
57.62
61.55
52.75
39.71
32.85
38.47
55.07
74.54
87.11
87.01
75.76
60.86
51.05
51.14
59.26
68.36
70.46
61.45
43.46
23.35
8.70
3.29
5.24
8.31
5.74
-5.59
-23.18
-40.20
-49.50
-47.67
-37.17
-25.03
-18.95
-22.95
-34.83
-47.47
-52.91
-47.01
-32.15
-15.93
-6.99
-9.97
-22.65
-37.20
-44.59
-39.96
-25.32
-8.31
2.21
1.33
-9.02
-21.44
-27.52
-22.81
-9.35
5.74
14.59
13.10
3.38
-7.82
-13.22
-9.44
1.12
11.69
15.24
8.48
-5.98
-21.21
-29.86
-28.43
-19.30
-9.31
-5.96
-12.86
-27.32
-41.63
-47.20
-39.73
-21.85
-2.07
9.72
7.80
-5.98
-23.08
-33.21
-30.11
-15.30
2.83
13.93
11.75
-2.01
-18.73
-27.96
-23.73
-8.20
9.58
18.85
13.73
-3.14
-21.84
-30.98
-24.34
-4.66
17.86
31.37
29.28
14.24
-3.48
-11.93
-4.56
16.06
39.90
55.25
55.63
43.36
27.94
20.18
25.85
42.54
61.24
71.85
69.02
55.06
38.23
27.63
28.03
37.39
48.58
53.85
49.43
37.62
25.04
18.49
20.78
29.25
37.40
38.73
30.48
15.10
-1.31
-12.78
-16.77
-15.54
-14.70
-19.67
-32.49
-50.12
-66.10
-74.06
-71.44
-61.12
-50.00
-45.30
-50.31
-62.22
-73.47
-75.95
-65.90
-46.27
-25.55
-13.04
-13.56
-24.35
-36.56
-40.42
-30.97
-11.34
9.05
19.79
15.73
0.32
-16.35
-23.30
-15.22
4.50
25.60
37.08
33.69
19.10
3.80
-1.20
9.38
31.83
55.92
70.72
70.85
59.40
45.54
39.03
44.31
58.42
72.93
79.29
73.65
58.93
42.64
32.05
30.11
33.80
36.36
31.41
16.88
-3.70
-23.30
-35.39
-37.74
-33.43
-29.19
-31.29
-41.99
-57.97
-72.23
-78.15
-73.32
-61.35
-49.77
-46.10
-53.22
-67.47
-80.44
-83.70
-73.82
-54.50
-34.87
-24.18
-26.52
-37.92
-48.62
-48.68
-33.93
-8.66
16.67
31.33
30.63
18.62
5.69
2.29
12.86
33.34
53.66
63.91
60.05
46.28
32.17
26.95
34.04
49.31
63.76
69.00
62.20
47.68
34.29
29.95
37.30
52.05
65.78
70.70
64.13
49.92
35.90
29.32
32.59
42.23
50.93
52.00
43.01
27.11
10.82
0.09
-3.13
-1.85
-1.99
-8.73
-23.10
-41.03
-55.41
-60.11
-53.55
-39.85
-26.86
-21.78
-27.14
-38.96
-48.98
-49.41
-37.58
-17.92
0.27
7.96
1.71
-14.06
-29.56
-35.29
-27.62
-11.02
4.60
9.77
1.07
-16.59
-33.01
-38.66
-30.37
-13.14
2.87
8.36
0.31
-16.12
-30.88
-34.90
-25.37
-7.31
9.57
16.40
10.27
-4.26
-18.11
-23.08
-16.67
-3.26
8.45
10.76
1.41
-14.93
-29.47
-34.48
-27.77
-14.16
-2.53
-0.81
-11.10
-28.28
-42.73
-46.02
-35.86
-17.64
-1.60
3.09
-6.42
-24.64
-40.96
-45.64
-35.67
-16.39
1.40
7.92
0.21
-15.87
-29.04
-29.24
-13.59
11.74
35.16
46.28
42.09
28.60
17.15
17.61
32.69
56.42
77.97
87.87
83.40
69.65
55.96
50.06
53.69
62.05
67.11
62.76
48.47
29.42
13.17
5.06
5.14
8.26
7.29
-2.71
-21.42
-43.26
-60.40
-67.17
-63.23
-53.89
-47.18
-49.30
-60.75
-75.58
-84.39
-79.60
-59.78
-30.92
-3.32
13.92
17.91
13.32
9.34
13.93
29.09
49.78
67.17
74.02
68.98
57.11
46.39
42.65
46.05
51.24
50.84
40.12
19.95
-3.52
-22.40
-31.62
-31.76
-28.67
-30.02
-40.66
-59.35
-78.76
-89.16
-83.63
-62.17
-31.96
-4.00
12.82
16.23
11.58
8.23
13.83
29.78
50.63
67.47
73.40
67.37
54.50
42.29
35.92
34.97
34.11
26.50
8.53
-17.56
-44.28
-62.79
-67.60
-59.74
-46.19
-36.34
-36.56
-46.64
-59.43
-64.91
-55.59
-31.13
1.44
31.21
49.38
53.65
48.92
43.47
43.72
50.28
58.11
59.89
51.02
32.52
10.67
-6.91
-15.59
-16.64
-16.23
-21.75
-37.06
-59.56
-80.77
-90.59
-82.61
-57.96
-24.99
4.70
22.34
26.22
22.18
19.46
25.15
39.86
57.87
70.73
72.65
63.69
49.49
37.22
31.08
29.64
27.12
17.06
-3.18
-30.33
-56.23
-72.25
-73.69
-62.73
-47.17
-36.54
-36.65
-46.28
-57.61
-60.62
-48.78
-23.05
8.57
35.18
49.12
49.77
43.35
38.39
40.44
48.54
56.33
56.00
43.49
20.97
-4.11
-23.41
-32.29
-32.31
-29.99
-32.70
-43.92
-60.59
-74.24
-75.55
-59.60
-29.19
6.30
35.29
50.12
50.68
43.95
39.44
43.51
55.81
69.96
77.79
74.38
61.09
44.38
31.81
27.42
29.56
32.21
28.75
16.09
-3.42
-23.28
-36.61
-40.15
-36.05
-30.77
-31.27
-41.08
-57.78
-74.21
-82.24
-77.57
-62.29
-44.18
-32.46
-32.59
-42.88
-55.17
-59.43
-49.47
-26.71
0.54
21.76
30.27
27.07
19.92
18.49
28.36
47.68
68.43
81.25
81.00
69.65
54.63
44.00
41.43
44.14
44.82
36.37
16.36
-10.97
-36.94
-53.06
-55.82
-48.53
-39.51
-37.36
-45.90
-61.61
-75.39
-77.49
-63.27
-35.99
-5.51
17.17
25.83
22.47
15.63
15.08
25.85
45.30
64.92
75.51
72.66
59.08
42.62
31.10
27.65
28.93
27.45
16.27
-6.43
-35.72
-62.09
-76.43
-74.70
-60.20
-41.59
-28.16
-24.60
-28.40
-31.53
-25.46
-6.50
21.65
49.64
67.59
70.43
60.52
45.59
33.82
28.83
27.85
23.84
10.34
-13.98
-43.56
-68.48
-79.56
-73.35
-54.08
-31.44
-15.31
-10.47
-14.00
-17.41
-11.97
5.89
32.18
57.51
72.41
72.54
60.91
45.50
34.14
29.78
29.08
24.93
11.25
-12.80
-41.54
-65.54
-76.61
-72.28
-57.23
-40.79
-31.80
-33.67
-42.26
-48.37
-43.08
-23.12
6.97
37.16
57.50
63.41
57.88
48.98
44.59
47.53
54.20
57.12
49.91
31.36
6.49
-16.28
-29.92
-32.69
-29.01
-26.76
-32.56
-47.68
-66.61
-79.78
-78.59
-60.30
-29.76
2.79
27.07
37.90
37.63
33.88
34.63
43.18
56.50
67.28
68.71
58.66
40.96
22.90
10.61
5.55
3.59
-2.06
-16.65
-40.02
-65.91
-84.65
-88.29
-74.79
-49.57
-22.81
-4.33
1.60
-1.58
-5.18
-0.49
15.85
39.92
62.63
75.14
73.62
61.33
45.92
34.72
30.22
29.16
24.89
12.04
-9.78
-35.12
-55.46
-64.10
-59.91
-48.34
-38.39
-37.74
-47.96
-63.28
-73.35
-69.13
-47.94
-15.49
17.20
39.51
46.98
43.34
37.59
38.30
48.34
63.53
75.39
76.72
65.73
47.22
29.12
17.77
13.99
13.14
8.07
-6.11
-28.68
-53.29
-71.19
-76.26
-68.34
-53.74
-41.77
-39.83
-48.98
-63.18
-72.54
-68.80
-50.18
-22.54
3.73
19.49
21.92
16.07
11.49
16.46
33.00
55.74
75.20
83.38
78.37
65.24
52.70
47.76
51.71
59.76
64.14
58.95
43.62
23.15
4.90
-5.82
-8.73
-8.49
-11.78
-23.05
-41.66
-61.86
-75.99
-78.81
-70.61
-57.31
-47.40
-47.24
-57.29
-71.65
-81.17
-78.71
-63.32
-41.09
-21.83
-13.50
-17.46
-27.55
-33.71
-28.06
-9.71
14.52
34.10
40.97
34.39
21.31
12.08
14.20
27.91
46.18
59.10
59.83
48.69
32.94
22.33
23.44
35.91
52.85
64.91
65.66
55.28
40.19
29.20
28.32
37.54
50.91
60.27
59.89
49.70
34.97
22.82
17.95
19.92
23.78
23.09
14.07
-2.27
-20.62
-34.59
-40.49
-39.31
-36.29
-37.64
-47.07
-63.16
-79.97
-90.14
-89.10
-77.97
-63.08
-52.85
-52.71
-61.95
-73.51
-78.12
-69.66
-49.02
-23.94
-4.68
1.73
-4.09
-14.48
-19.13
-11.49
7.36
29.27
43.81
44.72
33.51
18.85
11.12
16.47
33.07
52.30
64.04
62.43
49.58
33.85
25.12
28.75
42.77
59.12
68.50
65.80
52.76
36.88
26.57
26.49
34.93
45.16
49.65
44.32
31.10
16.21
6.51
5.30
10.60
16.51
16.74
8.49
-6.01
-20.80
-29.83
-30.53
-25.15
-19.60
-19.70
-28.06
-42.08
-55.60
-62.39
-59.86
-50.73
-41.58
-39.25
-46.63
-60.72
-74.06
-78.85
-71.68
-55.64
-39.00
-30.46
-34.07
-46.37
-58.10
-59.42
-45.73
-20.70
5.55
22.09
23.47
13.04
0.92
-1.95
9.73
32.62
56.83
71.78
72.34
61.64
48.77
43.12
48.81
62.49
75.70
80.07
72.28
55.86
38.68
28.05
26.47
30.36
32.49
26.38
10.24
-11.84
-32.26
-44.36
-46.21
-41.74
-38.46
-42.99
-56.88
-75.12
-88.45
-88.34
-71.81
-43.39
-12.93
9.57
19.21
18.59
15.64
18.51
30.55
48.43
64.36
70.89
65.38
51.40
36.13
25.78
21.70
19.71
12.88
-3.87
-30.04
-58.86
-80.38
-86.53
-75.59
-53.16
-29.40
-13.59
-9.21
-12.31
-14.20
-6.99
11.63
36.82
59.39
71.14
69.30
57.90
44.62
35.89
33.04
31.73
25.12
8.39
-17.66
-46.22
-67.92
-75.60
-68.42
-52.29
-36.85
-30.06
-33.64
-42.11
-45.88
-37.07
-14.24
16.43
44.38
60.63
62.50
54.63
45.55
42.00
45.02
49.46
47.66
34.40
10.45
-17.26
-39.62
-50.12
-48.46
-40.54
-34.76
-37.13
-47.25
-58.34
-60.97
-48.54
-21.55
12.35
42.02
58.79
60.79
53.24
44.80
42.04
45.81
51.30
51.56
42.30
24.65
4.64
-10.52
-16.89
-16.05
-14.39
-19.09
-33.80
-55.76
-76.55
-86.30
-78.72
-54.72
-22.21
7.98
27.33
34.00
32.88
31.99
37.38
49.45
63.16
71.30
69.23
57.68
42.02
28.93
22.04
20.04
17.63
9.01
-8.24
-31.30
-53.19
-66.51
-67.56
-58.50
-46.52
-39.99
-43.93
-56.92
-71.54
-78.45
-71.56
-51.63
-26.11
-4.89
5.09
3.96
-1.50
-2.11
8.10
28.17
51.01
67.53
72.07
65.57
54.41
46.38
45.67
50.60
54.98
52.05
38.93
18.36
-2.81
-17.61
-23.11
-21.96
-20.93
-26.82
-42.16
-63.26
-81.61
-88.50
-79.68
-58.05
-32.36
-12.51
-4.37
-6.44
-11.28
-10.07
2.01
22.88
44.97
59.70
62.60
55.83
46.29
41.29
43.93
51.61
57.84
56.47
45.54
28.39
11.50
0.50
-3.34
-3.78
-7.45
-19.63
-40.70
-65.09
-83.52
-87.77
-74.88
-48.96
-19.19
4.80
17.66
20.67
20.10
22.81
31.97
45.08
55.68
57.32
47.44
28.99
8.49
-7.64
-16.70
-20.74
-24.71
-32.83
-45.34
-57.52
-62.11
-53.33
-30.62
0.48
30.61
51.15
58.23
54.17
45.28
37.62
33.37
29.80
21.50
4.41
-20.81
-48.10
-68.64
-75.32
-66.48
-46.86
-25.14
-9.38
-2.87
-2.72
-2.11
5.22
21.03
41.35
58.72
66.46
62.41
49.85
35.16
23.80
17.14
12.01
3.11
-13.20
-36.00
-59.50
-75.64
-78.32
-66.71
-45.80
-23.91
-8.27
-1.23
0.59
3.73
13.45
30.11
48.69
61.52
62.76
51.82
33.63
15.62
3.32
-2.64
-6.49
-14.29
-29.59
-50.47
-69.78
-78.61
-71.17
-48.15
-16.83
12.48
31.54
38.19
36.70
34.53
37.31
45.54
54.48
57.45
50.26
34.06
14.79
-0.45
-7.63
-8.11
-7.85
-13.65
-28.86
-50.80
-71.59
-82.04
-76.56
-56.31
-28.81
-4.11
10.51
14.14
12.32
13.05
21.78
37.94
55.28
65.73
64.17
51.42
33.56
17.96
8.90
5.16
1.24
-8.78
-27.05
-49.82
-68.79
-75.61
-66.30
-43.78
-16.49
6.00
17.76
19.45
17.05
17.65
24.84
36.34
45.38
44.97
32.21
10.54
-11.98
-27.08
-30.43
-23.87
-13.75
-6.96
-6.99
-12.07
-16.57
-14.87
-4.88
10.31
24.26
30.69
27.05
15.98
3.59
-4.16
-4.63
0.10
5.04
5.34
-0.84
-11.18
-20.79
-25.00
-21.98
-13.70
-4.61
0.81
0.44
-4.32
-9.75
-12.02
-9.34
-3.01
3.47
6.52
4.51
-1.24
-7.36
-10.44
-8.88
-3.93
1.32
3.76
2.07
-2.35
-6.34
-6.92
-3.04
3.62
9.76
12.23
9.91
4.41
-0.98
-3.21
-1.25
3.35
7.51
8.48
5.47
0.19
-4.28
-5.33
-2.37
2.86
7.31
8.46
5.71
0.82
-3.24
-4.05
-1.11
3.86
7.95
8.85
6.16
1.60
-1.94
-2.32
0.72
5.30
8.59
8.45
4.73
-0.70
-5.03
-6.19
-3.99
-0.12
2.83
2.98
0.15
-4.05
-7.24
-7.59
-4.92
-0.68
2.85
3.93
2.30
-0.67
-2.86
-2.60
0.27
4.35
7.47
7.92
5.50
1.66
-1.35
-1.86
0.32
3.67
5.92
5.37
1.98
-2.59
-5.87
-6.06
-3.11
1.19
4.25
4.20
0.99
-3.42
-6.33
-5.79
-1.89
3.33
7.00
7.19
4.03
-0.31
-2.98
-2.14
1.81
6.54
9.06
7.62
2.75
-3.00
-6.48
-5.90
-1.81
3.17
5.87
4.50
-0.30
-5.83
-8.87
-7.73
-3.11
2.19
4.98
3.66
-0.92
-5.89
-8.13
-6.15
-1.00
4.40
6.93
5.16
0.27
-4.77
-6.82
-4.52
0.92
6.50
9.02
7.08
1.86
-3.61
-6.16
-4.39
0.55
5.62
7.72
5.41
-0.08
-5.68
-8.19
-6.31
-1.23
3.97
6.17
4.09
-0.96
-5.91
-7.70
-5.24
0.03
5.01
6.69
4.03
-1.45
-6.65
-8.73
-6.74
-2.30
1.53
2.06
-1.49
-7.35
-12.25
-13.39
-9.93
-3.59
2.35
4.98
3.34
-1.04
-5.02
-5.81
-2.61
2.99
7.87
9.29
6.60
1.50
-2.85
-3.79
-0.84
4.15
8.06
8.31
4.54
-1.19
-5.70
-6.52
-3.34
1.69
5.40
5.42
1.54
-4.01
-7.94
-7.92
-3.78
2.30
7.05
8.13
5.39
0.91
-2.23
-1.89
1.81
6.69
9.66
8.62
3.79
-2.47
-6.98
-7.52
-4.17
0.81
4.40
4.40
0.88
-3.88
-6.90
-6.13
-1.75
3.93
7.79
7.80
4.06
-1.20
-4.92
-5.13
-1.96
2.46
5.24
4.56
0.75
-3.99
-6.82
-6.00
-1.95
3.12
6.44
6.30
3.02
-1.20
-3.81
-3.28
-0.02
3.83
5.81
4.59
0.75
-3.55
-5.85
-4.89
-1.32
2.70
4.76
3.67
0.17
-3.54
-5.15
-3.52
0.49
4.63
6.60
5.30
1.59
-2.29
-4.05
-2.69
0.91
4.48
5.73
3.75
-0.52
-4.72
-6.53
-5.03
-1.19
2.67
4.23
2.54
-1.33
-5.05
-6.31
-4.22
0.14
4.42
6.32
4.92
1.23
-2.43
-3.91
-2.40
1.02
4.05
4.61
2.02
-2.47
-6.45
-7.70
-5.58
-1.32
2.65
4.06
2.19
-1.70
-5.19
-6.08
-3.68
0.73
4.71
6.07
4.13
0.11
-3.53
-4.69
-2.74
1.04
4.21
4.71
2.00
-2.49
-6.21
-7.00
-4.34
0.37
4.52
5.86
3.78
-0.34
-3.95
-4.88
-2.66
1.26
4.36
4.59
1.58
-2.99
-6.47
-6.76
-3.52
1.55
5.69
6.73
4.28
-0.08
-3.68
-4.46
-2.13
1.69
4.43
4.12
0.68
-3.99
-7.18
-6.91
-3.12
2.20
6.21
6.85
3.98
-0.52
-3.93
-4.36
-1.80
1.94
4.32
3.63
0.05
-4.43
-7.25
-6.72
-3.00
1.90
5.38
5.73
3.05
-0.78
-3.24
-2.77
0.33
4.11
6.07
4.67
0.36
-4.62
-7.60
-6.88
-2.84
2.29
5.74
5.75
2.57
-1.69
-4.33
-3.74
-0.23
4.08
6.53
5.47
1.29
-3.77
-7.06
-6.83
-3.39
1.16
4.16
3.97
0.93
-2.90
-4.97
-3.82
-0.01
4.24
6.31
4.79
0.36
-4.53
-7.14
-6.00
-1.76
3.13
5.92
5.12
1.41
-2.84
-4.94
-3.52
0.62
5.06
7.08
5.31
0.59
-4.49
-7.21
-6.17
-2.18
2.31
4.64
3.54
-0.12
-3.94
-5.42
-3.49
0.82
4.97
6.42
4.07
-0.95
-5.97
-8.23
-6.47
-1.72
3.33
5.83
4.48
0.28
-4.06
-5.73
-3.62
1.07
5.48
6.81
4.03
-1.45
-6.56
-8.38
-5.86
-0.40
5.04
7.54
5.93
1.45
-3.08
-4.99
-3.28
0.84
4.59
5.40
2.44
-2.71
-7.07
-7.88
-4.25
2.11
7.96
10.29
8.03
2.68
-2.58
-4.79
-2.99
1.37
5.34
6.29
3.57
-1.14
-4.79
-4.89
-1.05
4.90
9.75
10.87
7.67
1.99
-3.06
-4.88
-2.79
1.53
5.03
5.23
1.71
-3.60
-7.49
-7.40
-3.00
3.46
8.47
9.27
5.41
-0.96
-6.33
-7.91
-5.34
-0.69
2.83
2.79
-0.93
-6.05
-9.26
-8.28
-3.19
3.68
8.96
10.15
7.07
1.88
-2.34
-3.35
-0.98
2.83
5.19
4.03
-0.62
-6.64
-11.01
-11.51
-7.98
-2.51
1.80
2.59
-0.32
-4.91
-8.06
-7.40
-2.80
3.50
8.24
9.04
5.75
0.59
-3.21
-3.38
0.01
4.66
7.44
6.22
1.14
-5.37
-10.07
-10.77
-7.55
-2.67
0.77
0.60
-3.08
-7.91
-10.70
-9.23
-3.60
3.85
9.76
11.57
9.07
4.24
0.08
-1.30
0.10
2.17
2.05
-1.99
-9.16
-16.41
-19.92
-17.25
-8.78
2.40
12.07
17.16
17.38
15.09
13.69
15.29
19.19
22.03
19.63
9.62
-6.69
-24.34
-36.92
-39.77
-32.38
-18.73
-5.03
3.69
6.34
6.01
7.60
14.29
25.13
35.18
38.36
31.16
15.12
-3.80
-18.47
-24.56
-22.75
-18.03
-16.26
-20.33
-28.06
-33.36
-29.92
-15.22
7.53
30.70
46.18
49.48
41.89
29.18
17.77
10.99
7.33
2.02
-9.26
-26.80
-45.54
-57.34
-55.29
-37.73
-9.66
19.43
40.02
47.04
41.77
30.21
18.96
11.42
6.21
-1.04
-13.76
-31.07
-47.03
-53.57
-45.03
-21.91
8.60
35.56
49.43
46.50
30.24
9.05
-8.45
-17.48
-18.86
-17.33
-17.64
-21.03
-24.21
-21.65
-9.49
11.29
34.33
50.50
52.50
38.71
14.26
-11.55
-29.87
-36.34
-32.66
-24.67
-18.32
-15.93
-15.03
-10.53
1.42
20.23
40.23
53.14
52.44
37.13
12.60
-12.00
-28.42
-33.19
-28.93
-22.07
-18.57
-20.12
-23.12
-21.22
-9.75
10.84
34.28
51.26
54.14
41.18
17.59
-7.21
-24.45
-30.17
-26.56
-19.71
-15.38
-15.24
-15.94
-11.79
0.97
20.81
40.84
51.84
47.15
26.64
-2.68
-29.99
-45.95
-47.12
-36.90
-22.91
-12.28
-7.58
-5.87
-1.34
10.17
27.74
45.12
53.85
47.90
27.43
-0.74
-26.39
-41.03
-41.89
-32.63
-20.40
-11.40
-7.35
-4.96
1.06
13.77
30.86
44.98
47.44
33.26
4.76
-28.56
-54.11
-62.18
-50.45
-24.81
4.15
26.49
37.34
38.08
33.68
28.61
23.65
15.76
1.17
-20.62
-44.54
-61.34
-62.18
-43.67
-10.44
26.37
54.09
64.30
56.35
36.80
15.24
-0.93
-9.75
-14.46
-20.12
-29.29
-39.45
-44.15
-37.01
-16.23
13.36
41.78
58.43
57.21
39.57
13.57
-10.44
-25.15
-29.41
-27.81
-26.93
-30.65
-37.32
-40.58
-33.49
-13.39
15.68
44.22
61.78
62.07
46.03
21.11
-2.87
-18.76
-25.09
-25.47
-25.18
-27.09
-29.51
-27.33
-15.76
5.67
31.44
51.85
57.64
44.85
17.40
-14.38
-38.56
-47.11
-39.47
-21.89
-3.35
9.50
15.55
18.56
23.51
32.15
41.03
42.86
31.08
4.58
-30.05
-60.86
-75.91
-69.16
-43.33
-8.50
22.88
41.72
45.93
39.78
30.04
21.37
13.83
3.92
-11.72
-32.44
-52.01
-61.28
-53.12
-27.03
9.54
43.99
64.33
64.54
47.12
21.20
-2.42
-16.57
-20.37
-18.17
-15.62
-15.50
-15.86
-11.67
1.08
21.54
43.08
55.85
51.70
28.97
-5.79
-40.23
-61.85
-63.66
-47.07
-20.56
5.05
21.97
28.60
28.73
27.70
28.16
27.91
21.52
4.47
-22.62
-52.41
-73.63
-76.65
-58.56
-25.12
11.95
40.65
54.23
53.57
45.32
36.86
31.63
27.37
18.27
-0.40
-27.90
-56.92
-76.50
-77.61
-58.06
-24.01
12.71
40.18
51.71
48.28
36.60
24.37
15.65
9.01
-0.39
-16.37
-37.73
-57.43
-65.81
-55.99
-28.33
8.95
43.20
63.26
64.39
49.98
28.74
9.65
-2.58
-9.08
-14.61
-23.34
-35.05
-44.57
-44.57
-30.39
-3.52
28.17
53.74
64.42
57.78
38.66
16.15
-1.44
-10.73
-14.28
-18.05
-26.81
-40.38
-53.04
-56.57
-45.17
-19.31
13.81
43.51
60.79
62.63
52.96
39.54
29.06
23.25
18.34
8.12
-11.41
-38.45
-65.22
-81.54
-80.16
-60.73
-30.19
0.70
22.73
32.49
33.27
32.00
34.32
40.74
46.26
43.55
27.74
0.22
-31.15
-55.58
-64.63
-56.23
-35.48
-11.58
7.07
16.97
20.46
23.11
29.17
38.14
44.40
40.50
22.08
-8.33
-41.30
-64.48
-68.67
-52.40
-22.63
9.01
32.10
42.30
42.26
38.57
36.74
37.51
36.48
27.31
6.45
-23.46
-53.85
-74.20
-77.40
-63.40
-39.18
-14.96
1.08
6.93
7.12
9.29
19.07
36.28
54.82
66.21
64.52
49.91
28.40
8.32
-4.50
-9.86
-12.85
-20.26
-35.79
-56.94
-75.65
-82.42
-71.64
-44.95
-10.86
19.51
37.87
42.77
39.53
36.22
38.45
45.86
52.56
51.14
37.53
13.94
-12.10
-31.86
-40.25
-38.43
-32.95
-31.69
-38.90
-52.26
-63.77
-64.15
-48.37
-18.82
15.49
43.54
57.90
58.42
51.52
45.82
46.87
53.92
60.86
60.40
48.90
28.77
7.16
-8.53
-14.87
-14.44
-14.17
-21.17
-38.21
-61.44
-81.96
-90.27
-81.63
-58.73
-30.58
-7.78
3.07
2.79
-1.32
-0.14
11.74
32.57
54.51
68.17
68.00
55.45
37.56
22.34
13.83
9.96
4.40
-8.72
-30.16
-54.00
-70.01
-69.16
-48.70
-14.19
22.85
50.28
60.99
55.73
41.45
26.71
16.54
10.14
2.35
-11.76
-32.54
-54.04
-66.62
-62.25
-39.37
-4.56
30.44
54.14
60.64
51.93
35.67
20.26
10.09
3.71
-4.24
-18.34
-38.20
-57.33
-66.16
-57.46
-30.92
5.71
40.01
60.52
62.00
47.39
25.40
5.38
-7.44
-13.81
-18.67
-26.76
-38.70
-49.61
-51.81
-39.49
-12.91
20.68
50.12
65.59
63.35
47.26
26.10
8.41
-1.96
-7.20
-13.19
-24.79
-41.90
-58.55
-65.79
-56.88
-31.43
3.60
36.97
58.45
63.61
55.28
40.96
28.01
19.39
12.63
2.25
-15.67
-39.90
-63.42
-76.50
-71.88
-48.78
-13.94
21.37
46.60
56.63
53.51
44.03
34.93
28.73
22.59
11.01
-9.44
-36.49
-61.96
-75.50
-70.05
-45.78
-10.42
24.28
47.99
56.28
51.79
41.52
32.12
25.79
19.50
7.74
-12.70
-39.01
-62.44
-72.39
-62.35
-33.91
3.48
37.02
56.65
59.44
49.75
35.56
23.40
14.88
6.81
-5.69
-24.87
-47.64
-66.08
-71.17
-57.77
-27.84
9.69
42.73
61.62
63.38
52.43
37.19
24.75
16.92
9.94
-2.13
-22.44
-48.05
-70.50
-80.10
-71.18
-45.38
-11.11
20.50
40.83
47.48
44.44
38.88
36.41
37.69
38.20
31.28
12.83
-15.19
-44.58
-64.80
-68.44
-55.33
-32.70
-11.14
1.36
3.64
1.41
3.01
13.80
32.56
52.06
63.21
60.18
43.59
19.92
-2.20
-16.60
-22.41
-23.77
-26.75
-35.15
-47.59
-57.63
-57.13
-41.09
-11.18
24.12
53.33
67.53
64.85
50.76
34.18
21.90
14.74
7.94
-4.74
-25.77
-51.00
-71.08
-76.50
-62.83
-33.45
1.95
32.14
49.56
53.34
48.59
42.57
40.15
41.12
40.66
32.68
14.03
-12.67
-39.69
-58.01
-62.24
-53.75
-40.01
-30.33
-30.23
-37.94
-45.35
-42.98
-25.92
2.82
33.85
56.52
64.70
59.70
48.51
38.83
34.35
32.90
28.35
14.99
-8.52
-37.58
-63.48
-77.51
-75.16
-58.34
-34.50
-12.90
-0.12
3.24
2.46
5.18
16.49
35.58
55.77
68.44
68.03
55.59
37.98
23.43
16.35
14.57
10.90
-1.91
-25.99
-55.90
-80.97
-90.88
-81.29
-56.31
-26.25
-2.14
9.90
11.37
9.50
12.32
23.78
41.49
58.43
67.21
64.34
52.12
36.99
25.51
20.52
19.43
15.85
3.56
-19.31
-48.13
-73.27
-84.82
-77.85
-55.32
-26.77
-3.28
8.54
10.01
8.75
13.28
27.18
46.49
61.89
64.35
50.65
25.46
-1.50
-20.94
-28.97
-28.52
-26.63
-29.49
-38.34
-48.50
-52.12
-42.92
-20.06
10.93
40.49
59.58
63.69
54.68
39.06
24.14
14.03
7.72
0.33
-13.22
-34.18
-57.85
-75.14
-77.12
-60.02
-27.96
8.56
37.68
51.95
51.66
43.41
35.20
30.97
28.30
20.56
2.35
-25.44
-54.34
-72.12
-69.44
-45.35
-8.25
28.26
52.24
59.08
52.65
41.53
33.07
28.94
24.77
13.95
-6.98
-34.87
-60.55
-73.34
-66.71
-41.92
-7.54
24.60
44.70
48.95
40.13
25.01
10.28
-0.70
-8.55
-16.07
-25.22
-34.90
-40.87
-38.19
-24.43
-1.95
22.24
39.15
41.81
28.73
4.97
-19.97
-36.37
-38.62
-27.46
-8.98
8.82
20.20
24.01
23.21
21.87
22.00
21.85
17.31
5.08
-14.06
-34.26
-46.91
-45.11
-27.52
0.36
28.47
46.78
49.91
39.21
21.29
4.12
-7.15
-12.11
-14.09
-16.85
-21.20
-24.07
-20.57
-7.76
12.26
31.99
41.72
34.61
10.90
-21.13
-48.56
-59.85
-50.23
-23.96
8.13
33.99
45.87
43.19
31.35
17.59
6.68
-1.12
-8.77
-19.00
-31.07
-40.22
-40.27
-27.94
-5.69
18.42
34.36
35.03
20.00
-4.23
-27.49
-40.88
-40.54
-28.64
-11.19
5.57
18.14
26.35
31.68
34.73
33.78
25.57
7.84
-17.80
-44.63
-62.86
-63.88
-44.98
-11.45
25.01
51.26
58.47
46.02
21.41
-3.79
-19.55
-21.76
-13.14
-0.47
9.77
14.88
16.49
18.13
21.61
24.94
23.07
11.37
-10.46
-36.49
-56.28
-59.87
-43.15
-10.60
26.16
53.46
61.58
48.96
22.36
-6.94
-28.64
-37.69
-35.47
-27.39
-18.84
-11.86
-4.67
5.96
21.19
38.05
50.04
50.35
35.99
10.22
-18.36
-39.74
-47.35
-41.20
-27.36
-14.16
-7.34
-6.86
-7.27
-1.70
13.37
35.09
55.01
63.41
54.53
30.06
-1.36
-28.31
-42.31
-41.53
-30.83
-18.24
-10.06
-7.45
-6.39
-1.10
11.57
29.31
44.88
49.78
39.01
14.39
-15.77
-40.52
-51.47
-46.53
-30.19
-10.45
5.71
15.63
21.23
26.17
32.05
36.29
33.01
17.05
-11.70
-46.19
-74.22
-83.89
-69.54
-34.97
8.04
44.93
64.72
64.28
48.43
26.20
5.85
-8.71
-18.24
-25.62
-32.35
-36.48
-33.69
-20.54
2.14
28.10
47.68
52.20
38.47
10.97
-19.83
-42.11
-48.17
-37.71
-17.26
3.71
17.78
22.99
22.53
21.49
22.67
24.26
20.96
7.92
-14.99
-41.33
-60.44
-62.73
-45.06
-12.94
21.76
46.19
52.40
40.77
19.00
-2.25
-14.75
-16.11
-9.75
-1.72
3.39
5.11
6.56
11.29
19.84
28.22
29.54
18.23
-5.85
-35.72
-59.77
-67.29
-53.97
-24.22
10.73
38.18
49.69
44.58
29.04
12.02
0.18
-5.13
-7.28
-10.96
-18.09
-25.72
-27.58
-18.29
2.45
28.30
48.43
52.73
37.10
6.21
-28.41
-53.72
-61.27
-50.68
-28.87
-5.63
11.69
21.45
26.98
32.81
40.30
45.80
42.45
24.79
-6.61
-43.48
-72.73
-82.38
-67.57
-33.08
8.74
43.67
61.76
61.03
46.74
27.29
9.49
-4.23
-15.29
-25.82
-35.45
-40.25
-34.88
-16.66
11.17
39.32
55.89
52.08
26.95
-11.10
-47.70
-68.76
-66.78
-43.82
-9.83
22.54
43.92
51.77
49.72
43.75
37.82
31.52
21.03
2.74
-22.96
-50.15
-69.45
-72.72
-57.53
-28.88
2.97
27.51
38.99
38.70
33.12
29.25
29.91
31.92
28.24
12.90
-14.36
-46.34
-71.34
-78.84
-64.93
-34.40
1.75
31.69
48.31
51.76
47.69
42.59
39.27
35.18
24.53
3.04
-27.80
-59.53
-79.98
-79.22
-54.98
-14.58
27.78
57.22
64.60
50.26
23.03
-4.58
-22.30
-26.10
-18.52
-5.78
6.34
15.24
21.35
25.80
28.04
25.17
13.92
-6.23
-30.83
-51.01
-57.34
-44.98
-17.13
15.46
38.90
42.83
25.44
-5.32
-35.57
-52.21
-48.99
-28.80
-1.24
22.77
36.33
39.06
35.37
30.38
26.12
20.44
9.30
-9.18
-31.81
-50.53
-56.22
-43.90
-16.11
17.42
43.94
53.62
44.00
21.02
-4.34
-21.67
-26.15
-20.26
-11.49
-7.33
-10.71
-18.20
-22.33
-16.29
1.63
26.52
49.18
60.81
57.53
42.15
22.04
4.77
-5.98
-11.82
-17.54
-27.02
-39.81
-50.42
-51.26
-37.31
-9.81
23.26
50.35
61.64
53.71
31.07
3.56
-18.74
-30.18
-31.45
-27.72
-24.51
-23.87
-23.10
-17.05
-2.21
19.86
42.09
54.84
50.83
29.43
-2.30
-32.57
-50.49
-50.98
-36.79
-16.18
1.82
12.22
15.92
17.80
22.44
30.21
36.42
33.91
17.87
-10.16
-41.65
-64.61
-69.47
-53.87
-23.94
8.86
33.29
43.36
40.26
30.13
19.65
12.02
5.79
-2.95
-16.59
-32.91
-45.12
-45.38
-29.68
-1.04
30.74
53.16
56.79
39.83
9.12
-23.10
-44.92
-49.99
-39.59
-20.80
-2.01
11.57
19.81
25.95
32.91
40.05
42.55
34.21
11.86
-21.13
-54.79
-76.57
-77.29
-55.75
-19.55
18.48
46.21
57.40
53.56
41.55
28.77
18.91
10.63
-0.22
-16.44
-36.05
-52.11
-56.08
-42.87
-14.43
20.17
48.51
60.40
52.62
30.23
3.66
-16.54
-24.61
-21.42
-12.66
-4.63
-0.46
1.25
4.33
11.36
20.68
26.45
21.85
3.76
-23.99
-51.05
-65.05
-57.85
-29.96
9.22
45.47
66.16
65.67
47.21
20.25
-4.75
-21.08
-27.85
-28.49
-27.02
-24.81
-19.76
-8.66
9.15
29.50
44.12
44.64
27.45
-3.12
-35.70
-56.68
-56.72
-35.26
-0.86
32.82
53.53
55.53
41.33
19.14
-1.96
-16.35
-23.38
-25.79
-26.33
-24.88
-18.52
-4.34
17.05
39.94
55.19
54.64
35.97
5.08
-25.13
-40.39
-31.64
0.68
46.94
92.77
125.31
137.91
130.36
108.24
79.48
50.92
26.33
6.43
-9.39
-21.30
-28.46
-30.38
-27.43
-21.70
-16.28
-13.87
-15.66
-20.97
-27.89
-34.62
-41.59
-49.71
-60.86
-77.33
-100.94
-131.87
-167.63
-202.86
-227.43
-233.40
-216.70
-179.22
-128.39
-74.62
-27.47
7.29
28.61
39.14
42.25
41.06
37.52
32.89
28.61
26.91
30.47
41.24
58.83
79.39
96.22
101.71
90.57
62.22
21.41
-23.79
-65.91
-101.38
-131.42
-159.13
-185.58
-207.08
-216.15
-205.64
-173.34
-124.30
-69.22
-20.06
15.18
35.11
44.52
51.15
61.66
79.36
103.83
132.28
161.19
187.60
207.39
217.36
215.18
199.89
173.40
141.02
110.56
89.94
84.09
92.68
110.17
127.84
137.32
134.07
118.66
95.54
70.17
46.16
24.06
2.44
-20.02
-42.55
-61.78
-73.44
-75.12
-68.42
-58.95
-53.81
-57.65
-69.63
-83.29
-89.66
-82.28
-61.27
-33.78
-10.62
-0.37
-4.52
-16.73
-26.60
-25.63
-12.01
8.76
27.52
37.02
36.02
29.55
25.23
28.32
38.58
50.60
57.14
53.47
39.96
21.73
5.52
-4.28
-7.99
-10.40
-17.78
-33.89
-56.92
-79.62
-92.42
-88.39
-66.97
-34.61
-1.79
22.15
33.20
33.82
30.18
27.59
27.01
24.58
14.61
-5.94
-34.28
-61.97
-78.70
-77.49
-58.39
-28.58
1.22
21.97
30.50
30.09
27.42
27.77
31.42
33.51
27.22
8.64
-19.73
-49.14
-68.48
-69.91
-52.83
-24.14
5.44
26.85
36.82
38.50
38.30
41.05
46.59
49.77
43.75
24.76
-4.59
-35.64
-57.58
-62.89
-51.09
-28.87
-6.31
8.49
13.55
13.51
16.00
26.33
43.67
60.81
68.06
58.74
33.49
0.59
-27.93
-42.25
-39.28
-23.58
-4.11
10.82
17.93
19.63
21.45
27.72
38.56
49.76
55.50
52.19
40.83
26.67
15.94
12.14
13.99
16.34
13.38
2.25
-14.93
-32.04
-42.27
-42.14
-33.68
-23.86
-21.04
-30.53
-51.28
-75.89
-94.13
-98.02
-85.82
-62.68
-37.52
-18.39
-8.38
-4.97
-2.83
1.82
8.21
11.06
3.96
-16.21
-46.24
-77.09
-97.86
-101.07
-86.27
-59.96
-32.04
-10.71
1.35
7.39
13.32
23.14
35.76
45.18
44.16
29.09
3.35
-23.33
-39.20
-36.35
-14.68
18.10
50.36
72.13
79.47
75.14
65.59
56.37
48.76
39.57
24.23
1.07
-25.96
-48.05
-55.74
-44.04
-15.54
20.38
51.91
70.21
73.04
64.71
52.56
42.19
34.49
25.78
11.02
-12.00
-39.98
-64.82
-77.39
-72.48
-51.91
-24.15
-0.25
11.70
10.79
3.43
-0.66
5.74
23.02
44.52
60.39
63.24
52.28
33.29
14.84
2.93
-2.32
-6.22
-15.50
-33.25
-55.87
-74.20
-78.20
-62.63
-30.46
8.01
39.94
55.99
54.47
41.19
25.30
13.69
7.34
1.63
-9.65
-29.21
-53.08
-71.75
-75.08
-58.16
-24.63
14.49
45.84
59.96
55.39
38.37
18.54
3.36
-5.41
-11.43
-20.03
-33.56
-48.84
-58.44
-55.00
-35.96
-5.65
26.41
50.12
59.71
56.15
45.80
36.11
31.01
28.86
23.85
10.10
-13.99
-43.65
-69.37
-81.31
-74.31
-50.66
-19.10
9.47
27.24
32.99
31.75
31.04
35.92
45.99
55.82
58.43
49.78
31.39
9.67
-7.70
-16.16
-16.58
-14.52
-16.60
-26.15
-40.64
-52.61
-53.66
-39.29
-11.83
20.27
46.58
59.72
58.79
48.92
37.41
29.02
23.34
15.66
0.90
-21.95
-47.81
-67.17
-70.93
-55.43
-24.83
10.45
38.57
51.66
49.03
36.43
21.89
10.91
3.59
-4.52
-18.42
-39.21
-61.80
-76.65
-74.78
-53.13
-17.09
21.22
48.26
55.24
42.05
16.71
-9.02
-25.58
-29.68
-24.54
-16.60
-10.80
-7.51
-2.93
7.33
24.08
42.42
53.43
48.90
26.48
-7.64
-40.75
-59.31
-55.53
-31.03
4.15
36.63
55.89
58.53
48.34
32.71
17.89
5.91
-5.15
-18.10
-33.03
-45.73
-49.37
-38.79
-14.54
15.87
40.47
48.14
34.23
3.31
-32.33
-58.12
-63.74
-47.53
-16.57
17.22
42.83
54.66
53.53
44.28
31.83
18.41
3.44
-14.08
-32.71
-47.46
-51.55
-40.48
-15.66
14.71
38.42
44.66
29.38
-2.10
-36.91
-60.27
-62.17
-41.70
-7.06
28.59
53.23
60.84
52.79
35.53
16.26
-0.52
-14.01
-25.31
-34.64
-39.60
-36.11
-21.48
2.37
27.99
44.74
43.80
23.11
-10.41
-43.02
-60.29
-54.02
-26.29
11.26
42.84
55.81
46.35
20.56
-9.12
-30.26
-35.97
-26.95
-9.57
8.55
22.51
31.42
36.70
39.11
36.92
26.68
6.29
-21.84
-49.86
-66.97
-64.68
-41.68
-5.59
29.75
50.24
47.91
24.76
-8.23
-36.22
-47.45
-38.20
-13.79
14.75
36.25
44.44
39.68
27.13
12.80
0.12
-10.95
-21.99
-33.04
-40.80
-39.61
-25.18
1.65
33.36
57.97
64.23
47.22
11.56
-29.83
-61.07
-70.34
-54.89
-21.92
15.17
42.95
53.69
47.76
31.85
14.46
1.40
-6.24
-10.87
-15.16
-19.11
-19.61
-12.98
1.40
19.01
31.31
29.85
11.40
-19.20
-50.09
-67.72
-63.34
-37.41
0.60
36.71
59.00
62.52
50.53
31.24
12.72
-1.29
-12.26
-24.31
-39.92
-56.88
-68.32
-66.36
-46.96
-13.13
25.51
56.76
71.32
66.90
48.69
25.94
6.82
-5.47
-13.24
-21.45
-33.27
-46.91
-55.89
-52.67
-33.53
-1.66
33.33
59.38
67.45
55.57
29.65
0.31
-22.24
-32.63
-31.75
-24.90
-17.73
-12.70
-7.93
0.79
16.14
36.27
54.39
61.54
51.31
23.93
-12.64
-45.79
-63.83
-61.37
-41.34
-12.96
13.22
30.45
38.13
40.29
41.45
42.74
40.65
29.44
5.57
-28.40
-63.27
-86.75
-89.26
-68.85
-32.25
8.18
40.28
57.23
59.66
53.47
45.24
37.92
29.43
14.86
-9.25
-41.03
-72.50
-92.73
-93.20
-72.45
-37.16
0.86
30.30
45.50
48.29
45.55
44.11
46.27
48.48
43.91
27.27
-1.00
-33.71
-59.98
-70.57
-62.51
-40.47
-14.21
6.52
16.68
18.01
16.86
19.74
28.89
40.73
47.87
43.63
26.33
1.00
-22.92
-36.58
-36.36
-25.83
-13.55
-8.11
-13.09
-24.76
-34.29
-32.89
-17.18
8.70
35.12
52.14
54.68
44.84
29.87
17.28
10.36
6.54
-0.28
-15.10
-37.69
-61.32
-75.78
-72.57
-49.78
-13.57
24.47
52.64
64.29
60.24
47.00
32.13
19.77
8.86
-4.86
-24.58
-48.58
-69.46
-77.37
-65.49
-34.44
6.94
45.08
67.57
68.50
50.74
23.67
-1.86
-18.53
-25.06
-25.08
-23.42
-22.42
-20.26
-12.70
3.26
26.19
49.57
64.17
62.61
43.34
12.13
-20.24
-42.97
-50.15
-43.21
-29.46
-17.69
-13.33
-15.64
-18.75
-15.70
-3.01
16.97
37.22
50.09
51.68
44.06
33.66
27.04
26.65
29.21
27.60
15.29
-9.44
-41.46
-70.72
-86.90
-84.49
-65.48
-38.28
-13.26
2.49
8.56
10.38
15.05
26.34
41.91
54.51
56.31
43.78
20.33
-5.37
-23.95
-30.37
-26.23
-18.28
-14.06
-17.13
-24.93
-30.22
-25.65
-8.44
17.48
42.92
57.86
56.37
39.52
14.49
-9.26
-24.83
-30.63
-30.01
-28.07
-27.73
-27.64
-23.14
-9.86
12.42
38.13
57.59
61.37
45.26
13.17
-23.98
-52.87
-63.66
-54.18
-30.26
-2.25
20.23
32.61
36.37
36.41
36.74
37.29
33.77
20.89
-3.11
-33.53
-60.24
-72.29
-63.88
-37.71
-4.08
24.19
38.05
36.32
25.31
14.34
9.86
11.84
14.36
9.83
-5.61
-28.84
-50.75
-60.97
-53.48
-29.87
1.40
29.24
45.23
47.06
38.46
25.93
14.55
5.50
-3.49
-15.21
-29.60
-42.38
-46.64
-36.88
-12.90
18.89
47.48
61.94
56.47
33.24
1.54
-26.45
-41.15
-39.48
-25.40
-6.99
8.09
16.36
19.36
21.29
25.29
30.66
32.81
26.13
7.93
-18.65
-45.12
-61.42
-60.94
-43.98
-17.58
8.12
25.00
30.78
29.26
27.03
28.73
33.88
36.95
30.81
11.37
-19.04
-51.78
-75.63
-82.13
-69.45
-43.10
-12.81
12.24
27.67
34.88
38.63
42.93
47.76
48.75
39.98
18.35
-13.23
-45.83
-68.30
-72.61
-57.89
-30.98
-2.97
16.33
23.01
20.46
16.47
18.11
27.37
39.83
47.31
42.69
24.36
-2.34
-27.80
-43.08
-44.39
-34.69
-21.45
-11.91
-8.80
-8.84
-5.27
7.36
28.97
53.09
69.75
70.80
54.50
26.77
-1.85
-21.72
-28.90
-26.61
-22.55
-23.87
-32.56
-44.11
-50.27
-44.16
-24.65
2.59
28.08
43.71
47.00
41.97
35.87
34.03
36.24
36.67
27.57
4.57
-29.70
-65.57
-90.58
-95.38
-78.37
-46.46
-11.74
14.41
26.53
26.92
23.18
23.14
30.20
41.68
50.93
51.75
42.28
26.16
9.99
-0.80
-5.42
-8.12
-15.47
-31.86
-55.98
-80.18
-93.85
-88.84
-64.06
-26.87
10.06
34.69
41.45
33.67
21.19
14.58
19.33
33.41
49.26
58.86
58.62
51.10
42.64
38.56
39.39
40.20
33.68
14.98
-14.58
-47.05
-71.46
-79.38
-69.39
-47.97
-26.30
-14.45
-16.14
-26.86
-36.63
-35.70
-20.00
6.78
35.32
55.86
63.13
58.50
47.97
37.77
30.45
23.69
12.44
-6.97
-33.50
-60.53
-78.75
-80.81
-65.40
-38.36
-9.95
10.27
18.23
17.21
15.31
20.10
33.76
51.40
63.67
62.20
44.68
16.71
-11.05
-28.51
-31.56
-24.11
-15.63
-15.64
-28.06
-48.54
-66.65
-71.51
-57.88
-29.17
4.24
30.52
42.56
41.36
34.45
30.78
35.22
46.07
56.76
60.45
54.47
41.87
29.09
21.48
19.75
19.40
13.59
-2.37
-27.64
-55.34
-75.81
-81.71
-72.07
-53.26
-35.79
-28.90
-35.38
-49.81
-61.53
-60.56
-43.42
-15.24
13.01
30.72
33.60
25.95
17.66
17.99
30.07
49.20
65.95
71.96
64.76
48.98
33.14
24.40
24.34
28.29
28.21
17.51
-4.97
-33.75
-59.24
-72.47
-69.65
-54.12
-34.61
-20.64
-17.47
-23.19
-30.04
-29.08
-15.47
8.60
35.05
54.42
61.04
55.91
45.37
36.78
34.01
35.36
34.91
26.49
7.63
-18.27
-43.35
-59.20
-61.11
-50.56
-34.32
-20.81
-15.47
-17.70
-21.49
-19.14
-6.07
16.20
40.60
58.27
63.33
55.92
41.60
27.60
18.40
13.33
7.36
-5.21
-26.50
-52.58
-74.68
-83.45
-73.94
-48.64
-16.61
11.00
26.53
29.64
26.66
26.05
32.84
45.21
55.43
54.58
38.27
10.12
-19.78
-40.12
-44.61
-35.39
-21.55
-13.51
-16.59
-27.56
-36.58
-33.27
-13.44
17.89
48.78
66.87
66.15
50.03
28.61
12.27
5.50
4.71
1.28
-12.27
-36.75
-64.76
-84.39
-85.72
-66.37
-32.83
2.93
29.74
42.49
43.73
40.69
39.90
42.93
45.65
41.15
24.54
-3.30
-35.19
-60.75
-71.25
-63.66
-41.84
-14.35
9.71
24.86
31.15
32.99
35.53
40.89
46.33
45.52
32.38
5.43
-29.65
-61.65
-78.54
-73.41
-48.07
-12.36
20.62
40.89
46.06
41.14
34.04
29.88
27.50
20.77
3.62
-24.26
-55.17
-76.52
-77.52
-55.48
-17.71
22.04
50.41
60.60
54.53
40.22
26.19
16.78
10.60
2.71
-11.14
-30.83
-50.83
-62.60
-58.96
-38.08
-5.03
29.94
55.86
65.91
60.43
46.09
31.76
23.34
20.52
17.36
6.49
-15.45
-44.60
-71.03
-83.95
-77.87
-55.92
-28.34
-6.70
2.57
1.61
-0.93
4.05
19.93
41.95
59.97
64.43
51.96
27.32
0.55
-18.63
-25.75
-23.14
-17.69
-16.16
-20.98
-28.73
-32.14
-24.61
-4.46
23.19
48.17
59.98
53.14
30.24
0.74
-23.95
-36.35
-36.16
-29.25
-23.11
-21.68
-22.91
-20.53
-8.81
12.94
38.91
59.26
65.08
52.97
27.08
-2.86
-26.21
-36.37
-33.54
-23.92
-15.80
-14.63
-19.64
-24.45
-21.12
-5.55
19.30
44.33
59.11
57.56
41.36
18.64
-0.98
-11.86
-14.90
-16.02
-21.54
-33.65
-48.43
-57.83
-54.25
-34.95
-4.05
29.04
53.90
63.84
58.81
44.66
29.33
18.11
10.80
2.46
-12.56
-35.81
-62.20
-81.82
-85.18
-68.84
-37.87
-3.52
22.67
34.63
34.45
30.01
29.45
36.14
46.84
53.93
50.18
33.09
6.66
-20.45
-39.24
-44.71
-38.15
-26.10
-16.52
-14.10
-17.42
-19.86
-13.85
3.88
29.44
53.16
64.64
58.51
37.56
11.02
-10.70
-21.69
-23.02
-21.09
-22.85
-31.07
-42.36
-49.08
-43.90
-24.33
5.33
35.60
56.20
60.92
50.52
31.87
13.75
1.90
-3.87
-8.72
-18.56
-35.23
-54.11
-66.14
-62.92
-41.84
-8.16
27.25
53.09
62.77
57.00
42.24
26.47
14.73
6.96
-0.87
-13.16
-30.70
-48.91
-59.49
-54.89
-33.05
0.52
34.65
57.55
62.36
50.22
28.97
8.37
-5.13
-11.23
-14.67
-21.12
-32.68
-45.66
-52.31
-45.40
-22.93
9.67
41.52
61.27
62.59
47.16
23.28
1.01
-13.20
-19.23
-22.10
-27.55
-37.57
-48.37
-52.39
-42.94
-18.72
14.47
45.76
64.13
63.46
45.42
18.36
-7.11
-23.20
-28.19
-26.00
-22.74
-22.30
-23.66
-21.80
-11.44
8.69
33.82
54.63
61.72
50.53
24.22
-7.56
-33.27
-44.97
-41.59
-28.56
-14.04
-4.07
0.53
3.70
10.64
23.41
38.61
48.42
44.90
24.87
-7.17
-40.37
-62.38
-65.21
-48.88
-21.02
7.33
27.17
35.52
35.49
32.87
31.49
30.35
24.42
8.57
-17.83
-48.59
-72.64
-79.27
-63.84
-30.50
9.37
42.40
59.26
58.43
45.59
29.35
15.91
6.14
-3.58
-17.44
-35.88
-53.73
-62.35
-54.48
-28.92
7.72
43.30
65.45
67.17
49.93
22.43
-4.00
-20.89
-25.93
-22.69
-17.16
-13.58
-11.78
-7.91
2.16
18.98
37.71
49.65
46.68
26.12
-6.78
-40.46
-62.07
-63.48
-44.86
-14.28
16.49
37.68
45.73
43.72
37.86
32.76
28.26
19.97
2.94
-23.73
-54.42
-78.60
-85.78
-71.19
-38.66
0.77
34.13
52.48
54.55
46.01
35.07
27.32
22.74
16.52
2.96
-19.80
-47.18
-69.65
-77.45
-65.95
-38.34
-4.31
24.79
41.34
44.66
40.31
35.75
35.39
37.79
36.63
25.04
0.54
-32.13
-62.47
-78.98
-75.00
-52.07
-19.21
11.61
31.38
38.07
36.54
34.53
37.45
44.96
51.32
49.16
34.30
8.88
-19.22
-40.44
-48.59
-43.91
-32.70
-23.49
-22.05
-28.04
-35.18
-35.15
-22.67
1.06
28.68
50.50
59.75
56.03
44.91
34.04
28.24
26.60
23.33
11.77
-10.84
-40.63
-68.16
-82.88
-78.57
-56.64
-25.56
3.44
21.86
27.91
26.45
25.15
29.24
38.10
45.50
43.48
27.50
-0.17
-30.83
-53.57
-60.65
-51.31
-31.78
-11.60
1.66
6.33
6.78
10.01
20.69
37.87
55.06
63.78
58.49
40.02
15.34
-6.34
-18.50
-20.69
-18.02
-17.64
-23.85
-35.08
-44.50
-44.15
-29.95
-4.62
23.20
43.23
48.72
39.78
22.88
6.74
-2.66
-4.91
-4.47
-7.09
-15.68
-28.03
-37.85
-38.51
-27.12
-6.64
15.34
30.34
33.14
24.31
9.69
-2.92
-7.89
-4.40
3.73
10.68
12.10
7.50
0.27
-4.59
-3.62
2.91
11.08
15.57
12.68
2.52
-10.93
-21.81
-25.52
-21.01
-11.25
-1.54
3.34
1.48
-5.46
-13.46
-18.50
-18.71
-15.08
-10.51
-7.69
-7.29
-7.51
-5.37
1.16
11.44
22.07
28.41
27.09
17.96
4.38
-8.44
-16.27
-18.27
-17.65
-19.71
-28.45
-43.42
-59.13
-67.53
-62.42
-43.13
-15.46
11.06
28.06
32.78
29.26
25.51
28.39
39.53
54.49
65.84
67.84
59.95
46.98
35.84
31.11
32.42
34.78
31.78
19.65
-0.16
-21.44
-36.66
-41.29
-36.46
-28.55
-25.70
-33.16
-49.88
-68.44
-78.62
-72.74
-50.02
-17.28
14.44
35.65
43.12
40.86
36.76
37.21
43.01
49.03
47.46
32.94
6.44
-24.45
-48.99
-58.72
-51.49
-32.23
-9.97
7.12
15.81
18.71
21.53
28.38
38.41
45.55
41.87
22.77
-9.14
-43.99
-68.83
-73.82
-56.97
-24.92
10.40
37.44
49.96
48.89
40.00
29.46
20.06
10.26
-3.58
-23.28
-45.76
-63.15
-66.54
-51.16
-19.78
17.65
48.26
62.08
56.48
36.85
13.20
-5.40
-15.02
-17.75
-18.92
-22.68
-28.77
-32.29
-26.94
-9.69
16.33
42.22
57.28
54.19
32.92
1.27
-28.63
-45.93
-45.90
-31.38
-10.37
8.64
20.86
26.66
29.66
32.75
35.08
32.02
18.46
-6.72
-37.84
-63.61
-72.10
-57.20
-22.52
19.39
52.48
64.51
52.40
23.36
-9.02
-31.47
-36.96
-26.85
-8.77
8.18
18.17
20.70
19.15
17.21
15.79
12.37
3.35
-12.53
-31.76
-46.65
-49.11
-35.36
-8.80
20.87
41.96
46.24
32.77
8.25
-16.52
-32.03
-34.28
-25.82
-13.41
-3.80
-0.01
-0.15
0.55
6.07
16.61
28.09
34.31
30.46
16.20
-3.75
-21.90
-31.84
-31.40
-23.40
-13.63
-7.31
-6.01
-6.88
-4.79
3.91
18.59
33.85
42.00
37.13
18.72
-7.42
-31.61
-44.79
-42.76
-27.77
-6.91
11.88
23.68
28.46
29.61
30.62
31.94
30.22
20.47
0.06
-28.08
-55.30
-70.64
-66.35
-42.12
-5.87
29.65
52.45
56.53
43.99
22.98
2.94
-10.05
-15.43
-16.75
-18.11
-20.57
-21.10
-14.80
0.92
23.33
44.24
53.41
43.86
16.18
-20.53
-52.40
-67.04
-59.16
-32.69
1.44
30.72
46.62
47.50
37.65
23.68
10.55
-0.46
-10.82
-21.75
-31.77
-36.32
-30.34
-12.08
14.19
38.72
50.20
41.35
13.13
-24.46
-56.28
-68.95
-57.03
-25.51
12.66
42.62
54.34
46.66
26.57
4.49
-11.25
-17.85
-17.83
-15.68
-13.91
-11.13
-3.96
9.40
26.15
38.84
38.75
21.26
-10.40
-45.15
-68.63
-69.93
-47.24
-9.14
29.05
52.27
52.29
31.25
0.09
-27.12
-39.90
-35.51
-18.87
1.16
16.88
25.42
28.42
29.01
28.34
24.16
12.61
-7.87
-33.41
-54.72
-61.22
-46.85
-14.31
24.88
55.03
63.46
46.50
11.58
-26.09
-50.51
-52.10
-31.58
1.12
32.09
50.02
50.91
38.50
20.89
5.60
-3.89
-8.59
-11.43
-13.95
-14.43
-9.35
3.28
20.92
36.20
39.89
26.05
-3.80
-39.91
-67.96
-75.68
-58.85
-23.56
16.56
46.58
56.88
47.05
24.83
1.31
-14.97
-21.42
-21.21
-19.71
-20.06
-20.73
-16.87
-4.24
16.91
40.37
56.16
55.52
35.78
2.59
-32.20
-55.76
-60.24
-46.19
-21.53
2.99
19.26
25.44
25.60
25.77
29.05
33.08
31.30
17.38
-9.75
-43.41
-71.38
-81.77
-69.09
-37.23
2.24
35.65
53.46
53.89
42.24
26.71
13.46
3.80
-5.16
-16.93
-31.81
-45.29
-49.87
-39.57
-14.16
19.34
49.15
63.85
57.81
33.98
2.47
-24.43
-37.99
-36.61
-25.41
-12.31
-3.21
1.24
5.01
13.05
27.09
43.50
54.57
52.67
34.79
4.98
-27.00
-50.16
-57.67
-49.86
-33.64
-18.38
-10.68
-10.92
-13.59
-11.10
1.21
21.95
44.15
59.13
61.26
51.08
34.64
19.60
10.58
6.64
2.17
-9.23
-30.18
-56.85
-80.08
-89.92
-80.80
-54.88
-21.25
8.59
26.46
31.33
28.96
27.63
32.54
42.49
50.62
48.65
32.08
3.68
-27.45
-50.35
-57.68
-49.34
-32.17
-15.95
-7.84
-8.62
-12.64
-11.64
-0.07
21.25
45.45
63.43
68.90
61.96
48.57
36.56
30.79
30.42
29.71
21.76
3.17
-23.39
-50.04
-67.56
-70.35
-59.51
-42.50
-29.17
-26.54
-34.83
-47.14
-53.44
-46.31
-25.25
2.98
27.99
41.68
42.64
36.32
31.16
33.23
42.53
53.22
57.58
50.88
34.21
13.99
-2.02
-9.32
-9.27
-8.18
-13.53
-29.38
-53.23
-76.71
-89.74
-85.83
-65.89
-38.25
-14.55
-3.56
-6.55
-16.78
-23.53
-18.51
-0.68
23.27
42.98
50.56
45.09
32.94
23.59
23.95
34.48
49.29
60.02
60.88
52.07
39.30
30.10
29.22
35.92
44.58
48.20
42.52
28.48
11.48
-1.87
-7.70
-7.15
-5.66
-9.86
-23.64
-45.37
-68.19
-83.33
-84.78
-72.60
-53.46
-37.19
-31.42
-37.22
-48.39
-54.71
-48.01
-26.88
2.44
29.66
46.15
49.71
45.25
40.96
42.94
51.50
61.12
64.20
55.99
37.67
15.73
-1.68
-9.54
-8.94
-6.33
-9.73
-24.03
-47.53
-72.09
-87.23
-85.64
-67.18
-39.52
-14.27
-0.84
-1.58
-10.70
-17.79
-14.06
2.56
26.52
48.10
59.05
57.44
48.27
39.76
38.13
43.85
51.53
53.52
44.87
26.28
4.04
-13.69
-21.62
-20.33
-15.94
-16.60
-27.60
-47.74
-69.39
-82.25
-78.82
-58.62
-28.84
-0.56
17.01
21.25
17.10
13.45
17.50
30.40
46.83
58.44
59.13
48.74
32.91
19.40
13.15
13.36
14.03
7.69
-9.82
-36.27
-63.37
-80.82
-81.58
-65.68
-40.40
-16.58
-2.94
-1.51
-7.00
-10.18
-3.67
13.68
36.19
54.77
62.38
58.00
46.94
36.97
33.36
35.53
37.46
31.47
13.12
-15.66
-46.77
-69.76
-77.00
-67.39
-46.75
-24.56
-8.88
-2.20
-0.73
2.57
13.01
30.41
48.71
59.19
55.45
37.33
11.29
-12.96
-27.62
-30.71
-26.55
-22.60
-24.63
-33.01
-42.20
-44.12
-33.07
-9.43
19.92
45.02
58.00
57.02
46.79
35.19
28.26
26.63
25.46
17.78
-0.75
-28.24
-56.73
-75.90
-78.24
-63.23
-37.67
-12.06
4.77
10.12
8.46
7.91
14.89
30.11
47.78
58.99
57.02
41.24
17.63
-4.53
-18.00
-21.26
-18.85
-18.22
-24.81
-38.15
-51.77
-56.66
-46.48
-21.67
10.29
38.59
54.46
55.51
46.41
35.19
28.12
26.05
24.07
15.15
-4.71
-33.20
-61.72
-79.31
-78.48
-58.99
-28.09
3.02
24.90
34.26
34.50
32.79
34.85
41.01
46.08
42.54
25.41
-3.63
-36.22
-61.07
-69.45
-59.56
-37.28
-12.68
5.31
13.36
14.85
16.70
24.23
37.34
49.89
53.07
40.83
13.89
-19.64
-47.89
-61.17
-56.52
-38.66
-17.03
-0.34
7.90
10.52
13.94
23.25
38.15
52.61
57.91
47.71
22.46
-10.23
-38.94
-54.08
-52.67
-39.28
-22.87
-11.69
-8.54
-9.67
-7.79
2.82
22.26
44.14
58.88
58.93
42.97
16.99
-8.96
-26.06
-30.99
-27.01
-21.40
-20.44
-25.46
-32.01
-32.54
-21.48
0.90
28.11
50.40
59.88
54.81
40.00
23.73
12.75
8.32
6.06
-0.80
-16.79
-40.37
-63.88
-77.23
-73.13
-51.15
-18.44
13.89
36.10
44.27
41.59
35.26
31.44
31.43
30.91
23.01
3.46
-25.80
-56.38
-77.02
-79.52
-62.97
-34.18
-4.29
17.04
26.31
27.08
26.90
32.04
43.22
55.09
59.48
50.25
27.49
-2.00
-28.23
-43.02
-44.24
-36.64
-28.60
-27.14
-33.70
-43.03
-46.38
-36.94
-13.93
16.29
43.40
58.87
60.22
51.97
42.39
37.93
39.36
41.58
36.77
19.70
-8.45
-40.09
-64.49
-73.35
-65.06
-45.27
-23.74
-9.12
-4.28
-5.20
-4.13
5.29
23.71
45.21
60.68
62.95
50.89
30.17
9.63
-3.83
-8.87
-10.11
-14.61
-26.90
-45.56
-63.16
-70.00
-59.61
-32.55
3.26
36.16
56.23
59.80
50.34
35.53
22.38
13.36
5.73
-5.43
-22.93
-44.22
-61.62
-66.25
-53.12
-24.41
10.80
40.80
56.73
56.54
45.31
31.43
21.48
16.64
12.44
2.31
-17.56
-44.88
-71.39
-86.91
-84.90
-66.18
-39.13
-15.55
-4.53
-7.69
-18.49
-26.16
-22.02
-4.59
19.72
40.34
48.84
43.77
31.32
21.36
21.40
32.34
48.25
60.27
61.99
53.17
39.59
29.27
27.56
34.13
43.39
48.02
43.30
29.80
12.91
-0.48
-6.04
-4.43
-0.92
-2.27
-12.84
-31.70
-52.81
-68.01
-71.42
-62.86
-48.20
-36.20
-33.78
-41.72
-53.96
-60.94
-55.00
-34.94
-7.01
18.77
33.99
36.74
32.11
28.55
32.39
43.88
57.10
63.88
58.76
42.46
21.53
4.28
-3.98
-4.00
-2.15
-6.35
-21.41
-45.52
-70.51
-85.99
-84.59
-66.12
-37.93
-10.96
5.85
10.38
7.87
7.21
15.33
32.73
53.20
67.59
69.13
57.37
38.19
19.96
8.52
3.90
0.79
-7.65
-25.08
-48.81
-70.48
-80.19
-71.78
-46.45
-12.50
18.73
38.25
43.74
39.85
34.61
34.36
39.97
46.68
47.43
37.35
17.30
-6.46
-25.58
-34.29
-32.65
-26.33
-23.19
-28.41
-41.02
-53.98
-57.96
-46.72
-20.98
11.59
40.17
56.41
58.47
51.17
42.15
36.80
34.80
30.65
17.70
-6.90
-38.97
-68.40
-83.83
-78.44
-53.69
-18.62
14.54
36.28
44.03
42.10
37.99
37.00
38.88
38.30
28.49
6.37
-24.47
-54.64
-73.25
-73.60
-56.42
-29.46
-3.35
13.92
20.59
21.21
22.68
29.34
39.80
47.33
43.96
25.54
-4.75
-37.18
-60.06
-65.36
-52.71
-29.06
-4.59
12.71
20.85
23.69
27.33
35.24
45.38
51.07
44.84
23.52
-8.90
-42.28
-64.95
-69.55
-56.36
-32.90
-9.69
5.41
10.86
11.44
14.21
23.59
38.17
51.20
54.67
44.03
21.47
-5.08
-26.09
-35.44
-33.52
-26.22
-21.06
-22.25
-28.05
-31.76
-25.99
-7.70
19.34
45.67
60.72
58.17
39.22
11.96
-12.98
-27.73
-30.56
-25.65
-19.49
-16.38
-15.74
-12.80
-2.50
16.36
39.07
56.49
59.60
44.39
14.69
-19.17
-45.06
-54.76
-47.41
-29.17
-9.27
5.10
12.15
15.32
19.79
27.98
37.11
40.23
30.50
5.98
-27.62
-58.67
-74.87
-69.40
-44.23
-9.22
22.88
42.33
46.32
38.83
26.89
15.88
6.68
-3.59
-18.12
-36.46
-53.00
-59.20
-48.39
-20.37
17.26
51.71
70.68
67.85
45.77
14.31
-14.24
-30.80
-32.99
-24.98
-13.87
-5.25
-0.21
4.28
12.22
24.76
38.38
46.06
41.12
21.38
-8.58
-38.91
-58.93
-62.14
-49.05
-26.41
-3.24
13.77
23.14
27.84
31.85
36.31
37.90
30.72
10.65
-20.56
-53.98
-76.77
-78.15
-55.37
-15.59
26.72
56.07
62.84
47.13
18.20
-10.59
-27.90
-29.15
-17.41
-0.34
14.29
22.69
25.40
25.41
24.47
21.21
12.02
-5.72
-30.07
-53.52
-65.59
-58.42
-31.51
6.80
42.33
61.55
57.59
33.62
0.77
-27.28
-40.97
-38.64
-25.95
-11.82
-2.68
0.63
2.78
9.59
23.70
41.94
56.40
59.00
45.97
20.82
-7.52
-29.06
-38.09
-35.80
-28.79
-24.86
-27.73
-34.85
-38.65
-31.66
-11.27
17.87
45.67
61.74
60.44
43.97
20.47
-0.43
-12.89
-17.23
-18.56
-22.76
-31.81
-42.20
-46.48
-38.18
-15.90
14.83
43.71
60.68
60.55
45.69
23.96
4.51
-7.37
-12.33
-15.55
-22.65
-35.16
-48.94
-55.86
-48.93
-26.45
5.96
37.72
58.44
62.73
52.79
36.16
21.31
12.51
8.10
2.24
-10.62
-31.18
-53.90
-69.05
-68.15
-48.48
-15.30
20.43
47.15
57.81
52.97
39.07
24.46
14.18
7.80
0.60
-12.42
-32.02
-53.06
-66.29
-63.61
-42.59
-8.66
27.07
53.14
62.97
57.73
44.53
32.03
24.98
22.17
17.70
5.28
-17.02
-44.75
-68.44
-78.55
-70.09
-45.54
-13.58
15.26
33.50
39.95
38.96
36.86
37.20
38.57
35.47
22.19
-2.62
-33.84
-61.29
-74.67
-68.52
-45.15
-13.43
15.77
34.67
41.81
41.32
39.36
39.38
39.95
35.74
21.27
-4.51
-36.35
-64.00
-77.27
-70.83
-47.18
-15.38
13.59
31.97
38.56
37.91
36.59
38.23
41.18
39.49
26.96
1.87
-30.64
-60.07
-75.57
-71.17
-48.95
-17.80
11.14
29.91
37.08
37.14
36.50
38.63
41.67
39.46
25.84
-0.57
-33.95
-63.13
-76.87
-69.46
-43.85
-10.05
19.82
37.54
42.08
38.90
35.47
36.05
39.03
37.93
25.95
0.83
-32.29
-62.59
-78.54
-73.77
-50.25
-17.31
13.16
32.48
38.88
37.09
34.19
34.51
36.68
34.55
21.57
-4.22
-37.40
-66.82
-80.92
-73.60
-47.51
-12.74
18.30
36.87
41.71
38.46
35.11
36.75
42.36
45.67
39.30
19.70
-9.85
-40.32
-61.25
-66.07
-55.20
-35.57
-16.53
-4.79
-1.03
-0.24
4.50
17.16
35.75
52.87
59.65
50.78
27.85
-1.08
-25.43
-37.53
-36.00
-25.88
-15.02
-9.33
-9.36
-10.38
-5.84
7.99
28.98
49.77
61.32
57.95
40.46
15.89
-6.46
-19.87
-23.60
-22.54
-23.60
-31.12
-43.57
-54.19
-54.66
-40.36
-13.28
18.26
43.87
56.15
54.29
43.64
31.93
24.29
20.45
15.42
3.24
-18.30
-45.26
-68.58
-78.62
-70.07
-45.08
-12.17
17.75
36.73
43.03
40.92
36.92
35.16
34.76
30.39
16.52
-8.25
-38.47
-63.69
-73.24
-62.05
-33.37
2.49
33.23
50.32
52.48
45.07
35.79
29.73
26.41
20.86
7.26
-16.27
-45.43
-70.98
-83.40
-77.86
-57.17
-30.58
-9.15
-0.11
-3.15
-10.99
-13.77
-5.04
14.78
38.52
56.74
63.13
58.05
47.78
40.30
40.25
46.34
52.55
52.11
42.00
24.77
7.26
-3.68
-5.16
-0.07
4.58
1.54
-12.39
-34.33
-56.37
-69.83
-69.89
-58.29
-42.74
-32.52
-33.45
-44.08
-56.43
-60.25
-49.24
-24.61
5.16
29.20
40.23
38.66
31.74
28.79
35.20
49.20
63.17
68.33
60.19
41.18
19.22
2.86
-3.59
-2.49
-1.12
-7.30
-24.41
-48.93
-71.65
-82.46
-75.57
-52.73
-22.39
4.63
20.68
24.97
23.13
23.15
30.14
43.17
55.91
60.56
52.63
33.74
10.77
-8.07
-17.82
-19.32
-18.38
-22.04
-34.01
-51.97
-68.23
-73.75
-63.17
-37.96
-6.17
21.71
37.98
41.47
37.50
33.99
36.43
44.67
53.37
55.49
46.81
28.57
6.92
-10.62
-19.47
-20.30
-18.48
-20.65
-30.58
-46.41
-61.11
-66.12
-56.01
-31.82
-0.90
26.60
42.85
46.14
41.07
35.13
33.63
36.57
38.50
32.39
14.14
-13.87
-43.36
-63.87
-68.25
-56.21
-34.45
-12.95
0.41
3.82
1.97
2.60
11.41
28.38
47.76
61.50
64.03
55.61
41.86
30.14
24.91
25.15
25.12
18.20
1.13
-23.41
-47.71
-62.99
-64.22
-52.94
-36.79
-25.35
-24.98
-34.90
-47.59
-52.84
-43.66
-20.35
9.52
35.28
48.99
49.53
42.49
35.98
35.24
39.31
41.86
35.32
16.06
-12.64
-41.66
-60.61
-63.31
-50.90
-31.20
-14.12
-6.29
-7.48
-11.23
-9.20
3.40
24.60
46.52
59.74
58.59
44.23
23.72
5.77
-4.19
-6.70
-7.25
-12.31
-24.88
-42.19
-56.76
-60.48
-49.21
-25.31
3.39
27.30
39.90
40.60
34.30
27.92
26.03
28.12
29.22
23.04
6.39
-18.24
-43.10
-58.94
-59.63
-45.55
-23.35
-2.62
9.27
10.85
6.99
5.36
11.68
25.97
42.70
54.01
54.64
44.92
30.52
18.59
13.39
13.47
12.86
4.63
-14.30
-40.74
-66.07
-80.71
-79.02
-62.61
-39.44
-19.77
-10.53
-11.79
-17.02
-17.41
-7.20
12.85
36.03
53.66
60.21
56.14
47.21
40.33
39.26
42.38
44.06
38.24
22.54
-0.09
-22.44
-37.04
-40.10
-33.79
-25.09
-22.26
-29.98
-46.45
-63.74
-71.95
-64.44
-41.92
-12.04
14.34
29.31
31.85
27.95
26.23
32.46
45.81
59.62
65.47
58.60
40.64
18.81
1.34
-7.18
-8.42
-8.86
-15.78
-32.39
-55.39
-76.00
-84.53
-75.45
-50.64
-18.61
9.64
26.29
30.34
27.47
25.93
31.27
42.83
54.27
57.42
47.39
25.77
0.04
-20.55
-30.07
-28.99
-23.48
-21.38
-27.18
-38.93
-49.12
-49.07
-34.14
-6.90
23.96
47.96
58.34
55.21
44.82
35.26
31.49
32.63
32.92
25.60
7.37
-18.92
-45.31
-62.55
-65.04
-53.65
-35.30
-19.00
-10.99
-11.17
-13.67
-10.66
2.37
23.71
45.90
60.10
60.93
49.45
32.16
16.96
8.30
5.07
1.60
-8.17
-26.46
-49.35
-68.21
-73.99
-62.16
-35.36
-2.47
25.72
41.68
44.47
39.19
33.08
30.74
31.35
29.61
19.55
-0.96
-27.84
-52.19
-64.65
-60.32
-41.33
-15.80
6.41
18.61
20.39
16.92
15.23
19.60
28.96
37.53
38.52
28.34
9.15
-12.14
-27.54
-32.34
-27.46
-18.70
-13.15
-14.97
-22.81
-30.49
-30.74
-19.45
1.48
25.10
42.74
48.82
43.43
31.94
21.28
15.78
14.64
12.80
4.34
-13.33
-37.03
-58.89
-70.06
-65.53
-46.80
-21.33
1.38
14.65
18.08
16.89
18.33
26.64
40.43
53.15
57.17
48.28
28.46
4.96
-13.86
-22.95
-23.32
-20.84
-22.57
-31.94
-46.32
-57.95
-58.32
-43.15
-15.31
16.32
41.26
52.78
51.30
43.28
37.10
37.58
43.55
48.68
45.75
31.10
7.33
-18.04
-36.53
-43.22
-39.36
-31.25
-26.62
-29.74
-38.77
-46.51
-44.68
-28.95
-1.96
27.65
49.68
57.75
52.43
40.34
29.69
25.12
25.15
23.40
12.91
-9.07
-38.52
-66.09
-81.58
-79.22
-60.57
-33.67
-8.84
6.61
11.85
12.15
14.97
24.98
40.96
56.26
62.77
55.72
36.65
12.76
-7.23
-17.84
-19.65
-18.37
-21.02
-31.02
-45.65
-57.05
-56.54
-39.92
-10.20
23.22
49.30
60.66
57.00
44.50
31.38
22.96
18.65
13.13
0.17
-22.39
-50.32
-74.22
-84.13
-74.94
-49.12
-15.92
13.42
30.97
35.81
33.41
31.63
35.67
44.92
53.72
54.84
44.42
24.27
1.39
-16.21
-23.85
-22.80
-19.42
-21.15
-32.09
-49.85
-66.51
-72.52
-62.11
-36.74
-4.62
23.32
39.27
42.18
37.83
34.43
37.42
46.07
54.00
53.35
39.55
14.74
-13.22
-34.64
-43.16
-38.88
-27.81
-18.26
-15.77
-19.98
-24.83
-22.46
-8.30
15.79
41.79
59.80
63.01
51.44
31.54
12.24
-0.15
-5.19
-7.86
-15.04
-30.60
-52.29
-72.27
-81.04
-72.65
-48.16
-15.44
14.79
34.20
40.79
38.99
36.03
36.95
41.25
43.25
35.90
15.61
-14.48
-45.25
-65.77
-68.80
-54.28
-29.20
-3.75
13.99
21.76
23.42
25.36
31.75
41.30
47.65
43.12
23.79
-7.18
-40.12
-63.23
-68.47
-55.48
-31.50
-7.25
8.76
14.42
14.27
15.80
24.13
38.47
52.09
56.10
44.62
18.68
-13.70
-41.19
-54.64
-51.31
-35.53
-15.88
-0.25
8.15
11.80
16.25
25.56
39.03
50.59
52.07
38.05
9.79
-24.29
-52.28
-64.35
-57.58
-36.86
-11.91
7.97
18.56
21.93
23.83
28.91
37.13
43.18
39.64
21.87
-8.16
-41.70
-67.06
-75.32
-64.86
-41.92
-17.12
0.23
6.89
6.64
7.29
15.16
31.15
49.75
62.32
62.01
47.82
25.25
2.96
-11.89
-17.55
-17.89
-19.50
-27.09
-39.94
-51.79
-54.15
-41.45
-14.70
18.29
46.44
60.82
58.86
45.12
28.01
14.77
7.52
2.74
-5.66
-21.66
-43.55
-63.85
-72.84
-63.99
-37.74
-1.94
31.77
53.34
58.72
51.14
38.06
26.48
18.82
12.21
1.20
-17.70
-42.51
-65.55
-76.90
-69.70
-44.13
-7.94
27.09
50.71
58.85
54.87
46.56
41.14
41.01
42.89
40.48
28.99
8.57
-15.12
-33.92
-41.90
-38.69
-29.95
-24.20
-27.93
-41.69
-59.06
-69.93
-65.79
-44.59
-12.02
21.13
44.60
53.68
50.95
43.77
39.02
38.75
38.98
32.68
14.60
-14.44
-46.73
-71.03
-78.01
-65.14
-37.76
-6.57
17.97
30.51
32.81
31.61
33.60
41.08
50.17
53.22
43.63
20.25
-10.90
-39.36
-55.49
-55.34
-42.62
-26.19
-15.07
-13.18
-17.35
-19.70
-12.68
5.85
31.05
53.49
64.24
59.88
44.00
24.88
10.26
3.05
0.05
-5.55
-19.20
-40.96
-64.36
-79.26
-77.44
-57.04
-24.24
9.74
34.15
43.89
41.76
35.75
33.93
39.48
49.05
55.33
51.65
36.46
14.51
-5.90
-17.63
-18.98
-14.41
-12.16
-19.27
-37.26
-60.57
-78.86
-82.42
-67.14
-36.97
-2.14
26.13
40.98
43.12
39.37
37.95
43.46
54.26
64.11
66.21
57.71
41.58
24.62
13.35
9.94
11.02
9.67
-0.29
-20.25
-45.34
-66.49
-75.27
-68.56
-50.67
-31.45
-21.24
-25.36
-40.91
-58.35
-66.76
-60.16
-40.92
-18.46
-3.79
-3.01
-13.62
-25.98
-29.16
-17.38
6.41
32.32
49.25
51.35
41.35
28.53
23.06
29.95
46.40
63.85
73.25
70.33
57.77
43.08
33.69
32.44
36.16
37.84
31.01
13.78
-9.75
-31.61
-44.33
-45.09
-37.35
-29.20
-28.89
-40.14
-59.61
-78.25
-86.19
-78.05
-56.26
-29.92
-9.92
-2.96
-7.76
-16.13
-18.05
-7.72
12.98
35.80
51.13
53.73
45.77
35.19
30.64
36.23
49.25
61.93
66.35
59.00
42.75
24.94
12.74
8.95
10.27
9.44
-0.49
-21.75
-49.82
-75.23
-88.10
-83.14
-62.28
-33.64
-7.33
9.70
16.77
18.84
22.47
31.11
42.64
50.28
46.84
29.32
1.46
-27.52
-47.60
-52.92
-44.71
-30.15
-18.02
-13.63
-15.80
-18.00
-12.70
3.55
27.41
50.13
61.99
57.61
38.97
14.18
-6.90
-18.07
-19.46
-16.77
-17.02
-23.76
-34.51
-41.76
-37.62
-18.72
11.10
42.01
62.99
67.11
54.91
33.64
12.76
-1.11
-7.46
-11.10
-18.38
-32.39
-50.16
-63.89
-65.02
-49.44
-20.18
13.65
41.13
54.83
54.10
44.35
33.25
25.71
21.36
15.14
1.44
-21.42
-48.88
-71.36
-79.03
-67.03
-38.29
-2.47
28.79
47.24
51.58
46.95
40.76
37.89
37.59
34.42
22.13
-1.69
-32.74
-61.55
-77.96
-76.46
-59.42
-35.87
-16.99
-10.18
-15.07
-24.23
-27.47
-18.11
3.32
29.34
49.94
58.46
55.05
46.11
39.86
40.95
47.92
54.07
52.00
38.17
15.30
-8.84
-25.91
-31.54
-27.79
-22.05
-22.68
-34.19
-54.07
-73.60
-82.43
-74.00
-49.56
-17.54
10.64
26.61
29.33
24.86
22.14
27.33
40.13
54.39
62.12
58.52
44.96
27.85
14.62
8.99
8.80
7.37
-2.27
-22.70
-49.74
-73.93
-85.14
-77.99
-54.75
-24.49
1.64
16.08
18.50
15.20
14.73
22.41
36.99
51.47
57.20
49.07
28.65
3.28
-17.83
-28.61
-28.92
-23.94
-20.52
-22.62
-28.62
-32.34
-26.83
-9.08
17.39
43.72
59.74
59.17
42.86
18.05
-5.42
-20.36
-25.39
-24.60
-24.21
-27.97
-34.38
-37.57
-30.96
-11.89
15.84
43.20
59.94
59.68
43.27
18.02
-5.96
-21.08
-25.42
-22.67
-18.91
-18.29
-20.21
-20.03
-12.48
4.15
25.73
43.73
49.20
37.69
12.29
-17.60
-40.50
-48.54
-40.97
-23.85
-6.26
4.75
7.76
6.88
8.36
16.22
29.24
41.53
45.90
38.19
20.06
-1.72
-18.92
-26.31
-24.42
-18.94
-17.19
-23.61
-36.79
-49.94
-54.63
-45.61
-24.05
2.76
25.27
36.61
36.13
29.26
23.80
25.10
32.98
42.04
45.22
38.05
21.38
1.01
-15.72
-24.02
-24.11
-20.87
-20.60
-26.93
-38.20
-47.88
-48.14
-34.51
-8.85
21.08
45.30
56.51
53.52
41.22
27.05
16.55
10.16
3.76
-8.00
-27.36
-50.75
-69.70
-75.06
-61.95
-32.80
3.28
34.82
53.28
56.66
49.60
39.58
32.02
27.26
20.81
7.11
-15.88
-44.04
-68.06
-77.87
-68.04
-40.73
-5.05
27.25
47.23
52.45
46.99
37.96
30.70
25.61
18.57
4.35
-18.83
-46.52
-69.25
-76.98
-64.55
-34.90
1.99
33.84
51.84
54.35
46.69
36.81
30.25
26.80
21.29
7.72
-15.94
-44.94
-69.03
-77.49
-64.84
-33.87
5.04
38.73
57.07
57.01
42.96
23.52
6.49
-4.57
-10.69
-15.23
-20.09
-23.67
-21.72
-10.53
9.41
31.86
46.99
45.81
25.27
-9.03
-44.43
-66.79
-66.77
-44.34
-8.65
26.47
48.70
52.44
40.32
20.55
1.89
-10.35
-16.06
-18.38
-20.08
-21.01
-17.94
-7.22
11.52
33.22
48.81
49.08
29.94
-4.36
-42.03
-68.66
-73.61
-55.19
-21.12
15.41
41.74
51.35
45.75
31.80
16.99
5.31
-4.12
-14.63
-27.97
-41.56
-48.87
-43.08
-21.86
10.04
41.97
61.81
61.73
42.10
11.26
-18.48
-36.62
-39.12
-29.26
-14.75
-2.94
3.33
6.66
12.26
23.55
38.89
51.40
52.47
36.83
6.49
-29.18
-57.46
-68.47
-59.88
-37.67
-12.61
5.68
13.61
14.67
16.09
23.42
36.56
49.35
53.10
41.92
16.70
-14.72
-41.36
-54.58
-52.33
-39.66
-25.35
-16.77
-15.76
-17.87
-15.57
-3.36
18.39
42.95
60.47
63.21
49.74
25.77
0.98
-16.27
-23.15
-23.15
-23.22
-28.88
-40.28
-51.54
-54.15
-42.08
-15.84
17.09
45.76
61.33
61.49
51.05
38.50
30.61
28.44
27.12
19.29
0.25
-28.49
-58.90
-80.20
-84.34
-70.07
-43.54
-15.19
5.71
15.47
17.20
18.05
24.23
36.81
50.84
58.02
51.65
30.97
2.24
-24.41
-40.09
-41.77
-33.41
-23.15
-18.12
-20.11
-24.49
-23.34
-10.86
12.42
39.02
58.04
60.90
45.89
19.26
-8.27
-27.06
-33.18
-29.50
-22.98
-19.75
-21.21
-23.24
-19.16
-4.57
19.08
44.33
61.08
61.68
45.12
17.77
-9.89
-28.51
-34.32
-30.38
-23.99
-21.85
-25.91
-32.10
-32.87
-22.17
0.46
28.83
52.79
63.25
56.88
37.67
14.44
-4.03
-13.69
-16.69
-19.16
-26.64
-39.89
-53.63
-59.31
-50.20
-25.56
8.09
39.82
59.63
63.15
53.28
37.75
24.28
16.02
10.36
1.39
-15.58
-39.90
-64.60
-79.53
-76.73
-54.88
-20.66
14.37
39.38
49.43
47.24
40.59
36.92
38.51
41.38
37.95
22.22
-5.60
-38.05
-63.79
-73.29
-63.70
-40.50
-14.34
4.62
11.92
10.71
9.10
14.64
29.33
48.31
62.49
63.88
50.31
26.90
3.01
-12.97
-18.12
-16.43
-15.86
-23.33
-40.20
-60.74
-74.96
-74.06
-55.40
-24.17
8.97
33.41
43.89
42.70
37.28
35.32
39.87
47.61
51.28
44.35
25.20
-1.34
-26.31
-41.52
-43.79
-36.40
-27.17
-23.72
-28.96
-39.14
-45.97
-41.44
-22.75
5.62
34.18
53.37
58.55
52.16
41.53
33.83
31.68
31.76
27.11
11.98
-13.96
-44.42
-69.30
-79.49
-71.54
-49.43
-22.13
0.96
14.63
19.84
22.06
26.71
35.03
42.84
42.61
28.32
-0.11
-35.26
-65.21
-78.93
-71.93
-48.45
-19.10
4.65
16.25
17.00
14.35
16.55
27.47
44.24
59.01
63.87
55.75
38.31
19.56
7.20
4.11
7.06
8.99
3.50
-11.23
-31.25
-49.00
-57.48
-54.09
-41.62
-26.54
-15.21
-10.31
-9.48
-7.33
1.13
16.95
36.23
52.17
58.73
54.18
42.44
30.98
26.73
32.25
44.04
54.34
55.31
43.57
22.54
0.92
-12.03
-11.74
-1.12
10.77
13.85
2.84
-19.25
-42.84
-57.18
-56.72
-44.05
-28.21
-19.09
-21.43
-32.10
-42.57
-44.37
-34.49
-17.41
-2.19
2.80
-5.20
-21.57
-37.17
-43.68
-38.39
-25.81
-15.01
-14.38
-26.61
-46.52
-63.53
-67.44
-53.95
-27.42
1.29
20.75
24.94
16.65
5.52
2.20
12.04
32.35
54.07
67.32
67.28
56.80
44.25
38.32
42.94
55.12
67.22
71.74
65.69
52.21
38.30
30.49
30.82
35.93
39.21
34.74
20.86
1.34
-16.79
-27.19
-27.62
-21.35
-15.30
-16.16
-26.60
-43.42
-59.11
-65.91
-60.42
-45.66
-29.74
-21.47
-25.15
-37.72
-50.26
-53.14
-41.72
-19.75
2.36
13.20
6.91
-13.14
-36.04
-49.46
-46.80
-30.77
-11.70
-1.30
-5.58
-20.99
-36.56
-40.41
-26.74
0.58
30.18
49.76
53.00
42.93
29.63
24.04
31.36
48.54
66.43
75.57
71.72
58.18
43.13
34.36
34.74
40.60
44.22
38.76
22.26
-0.94
-22.63
-35.26
-36.26
-29.52
-23.29
-25.64
-39.72
-61.32
-80.71
-87.70
-77.22
-52.40
-23.17
-1.00
7.39
3.59
-3.83
-4.68
6.60
27.73
50.23
64.59
65.88
56.52
44.16
36.56
36.73
41.33
42.96
34.99
15.90
-9.39
-32.12
-44.55
-44.21
-35.40
-26.79
-26.54
-37.59
-55.53
-70.64
-73.00
-58.01
-29.09
3.98
30.12
42.71
42.85
37.79
35.96
41.70
52.72
61.84
61.58
48.99
27.57
5.26
-10.25
-15.91
-14.98
-14.95
-22.94
-41.11
-64.76
-84.22
-89.96
-77.95
-52.22
-23.19
-2.24
4.31
-1.30
-9.87
-10.80
1.64
24.97
50.18
67.05
70.07
61.42
49.02
41.42
42.67
50.27
57.11
56.18
44.93
26.88
9.32
-1.10
-2.39
1.49
3.04
-4.32
-22.19
-45.65
-65.69
-74.07
-68.10
-52.48
-36.92
-31.01
-38.85
-56.35
-73.37
-79.38
-69.34
-46.48
-20.58
-2.41
2.40
-3.48
-11.14
-11.03
1.24
22.02
41.81
51.00
45.74
30.39
15.04
9.69
18.44
37.21
56.39
66.49
63.48
50.88
37.30
31.05
35.20
46.16
56.21
58.18
49.54
33.80
18.02
8.26
6.14
7.99
7.06
-2.43
-21.63
-45.94
-67.19
-77.95
-75.41
-63.18
-49.55
-42.96
-47.22
-58.99
-69.50
-69.37
-54.18
-27.38
1.32
21.34
27.12
21.23
12.48
10.54
19.99
37.79
55.54
64.88
62.43
51.78
40.87
36.67
40.71
48.28
51.41
43.64
24.10
-1.67
-24.69
-37.51
-38.20
-31.33
-25.42
-28.26
-42.34
-63.00
-80.73
-86.14
-75.07
-51.02
-23.50
-2.93
5.06
2.57
-2.28
-0.51
12.27
33.16
53.80
65.54
64.54
53.90
41.32
34.13
34.60
38.59
38.14
26.50
2.55
-27.76
-54.22
-67.55
-64.32
-48.81
-30.62
-19.32
-19.19
-26.84
-33.34
-29.69
-12.34
14.49
41.16
57.93
60.45
51.87
40.28
33.30
33.36
36.36
34.50
21.40
-3.46
-33.67
-58.96
-70.49
-65.63
-49.38
-31.64
-21.91
-24.05
-34.01
-42.36
-39.74
-22.34
5.71
34.54
54.07
59.51
53.59
44.29
39.58
42.52
49.73
53.90
48.46
31.77
8.40
-13.52
-26.80
-29.19
-24.60
-20.62
-24.02
-36.47
-53.03
-64.39
-61.88
-42.49
-10.89
22.69
47.54
57.62
54.17
43.95
34.50
29.34
26.12
18.71
1.77
-24.96
-55.16
-78.49
-85.87
-74.53
-49.71
-22.05
-2.22
4.63
1.35
-3.45
-0.78
13.19
34.92
55.61
66.46
63.56
49.93
33.31
21.08
15.83
14.03
8.57
-6.39
-31.20
-59.39
-80.45
-85.10
-70.34
-41.10
-7.95
18.26
31.59
33.53
31.17
32.13
39.57
50.30
56.81
51.94
33.50
6.20
-20.60
-37.84
-41.65
-35.15
-26.38
-23.47
-29.75
-41.48
-49.87
-46.26
-27.41
2.24
32.72
53.75
60.10
54.14
43.69
36.99
37.60
42.63
45.01
38.12
20.05
-4.81
-28.06
-41.90
-43.57
-36.81
-29.63
-29.69
-39.69
-55.28
-67.12
-65.93
-47.88
-17.15
16.06
40.85
51.18
48.84
41.58
38.12
42.73
53.09
62.22
63.25
53.74
37.22
20.85
11.08
9.68
12.92
13.99
7.25
-8.29
-28.09
-44.50
-51.02
-46.09
-34.30
-24.10
-23.18
-34.10
-52.38
-68.71
-73.97
-64.44
-44.30
-23.63
-12.85
-16.75
-31.49
-46.67
-51.24
-39.92
-16.37
8.87
24.54
25.25
14.65
2.92
0.63
12.46
34.54
56.87
69.41
67.89
56.12
43.14
37.51
42.20
53.07
61.60
60.08
46.20
24.47
3.36
-9.69
-12.53
-9.41
-8.44
-16.84
-36.46
-62.02
-83.58
-91.66
-82.42
-59.86
-33.91
-15.21
-9.39
-14.08
-20.61
-19.39
-5.68
17.68
42.03
58.13
61.42
54.50
44.93
40.28
43.33
50.71
55.36
51.23
37.04
17.27
-0.54
-10.37
-11.27
-8.10
-8.73
-19.34
-40.44
-65.77
-85.07
-89.17
-74.96
-47.25
-16.47
6.78
17.15
17.06
14.47
17.59
29.56
46.44
59.33
59.72
44.52
18.21
-9.51
-28.94
-35.37
-31.09
-23.38
-19.67
-22.89
-29.40
-31.42
-21.94
0.47
29.99
56.03
68.56
63.26
43.67
18.92
-1.47
-12.56
-15.91
-17.66
-23.72
-35.30
-47.46
-51.72
-41.34
-15.90
17.51
47.32
62.94
59.98
42.17
18.82
-0.50
-11.00
-14.61
-17.65
-26.13
-41.15
-57.47
-66.16
-59.75
-36.87
-3.69
28.98
51.07
58.15
53.20
43.92
37.61
36.77
37.80
33.65
18.66
-7.23
-37.51
-62.00
-71.96
-64.71
-44.84
-21.79
-4.74
2.14
1.62
1.10
7.60
23.01
42.56
57.24
58.81
44.58
19.18
-7.88
-27.34
-34.97
-33.58
-30.62
-33.25
-43.59
-56.90
-64.11
-57.20
-34.19
-0.96
31.37
52.23
57.17
49.90
39.65
35.40
40.76
52.34
62.34
63.65
54.22
38.19
23.07
15.06
15.33
19.44
20.14
11.68
-6.61
-29.49
-48.53
-56.74
-52.49
-40.63
-30.07
-28.92
-39.90
-58.40
-74.84
-79.83
-69.56
-48.17
-25.53
-11.69
-11.01
-19.55
-27.58
-25.43
-9.33
16.31
41.52
56.62
57.78
48.98
39.11
36.23
42.66
53.89
61.57
58.70
43.85
22.02
1.67
-10.19
-12.09
-8.89
-8.74
-18.17
-37.70
-60.74
-76.80
-76.87
-58.40
-27.02
6.11
30.05
39.62
37.64
32.34
31.80
39.01
50.33
58.07
55.46
40.96
19.30
-1.18
-13.50
-16.09
-13.54
-13.75
-23.12
-42.32
-65.26
-81.94
-83.75
-68.24
-40.86
-12.32
7.00
12.63
8.29
3.17
6.08
20.06
40.66
58.72
65.99
59.92
44.99
29.64
20.81
19.71
21.16
16.98
1.29
-25.30
-55.20
-77.37
-82.93
-69.75
-43.55
-14.92
6.13
15.28
15.59
14.75
19.76
32.28
47.31
56.15
51.56
32.22
3.99
-23.01
-39.65
-42.36
-34.69
-24.85
-20.65
-24.80
-33.12
-37.24
-29.78
-9.06
19.40
45.57
60.26
60.10
49.09
35.82
28.02
27.92
31.11
29.60
17.04
-6.83
-35.40
-58.49
-67.62
-60.41
-41.75
-20.89
-6.43
-1.67
-3.09
-3.11
4.67
21.17
40.68
53.85
52.96
36.41
9.89
-16.55
-33.68
-37.71
-31.56
-22.40
-16.97
-17.34
-19.69
-17.12
-4.46
17.73
42.44
59.36
60.04
42.57
13.00
-17.53
-38.15
-43.50
-35.72
-22.36
-11.46
-6.77
-5.90
-2.71
7.94
26.04
45.40
56.58
52.11
30.98
-0.03
-29.65
-47.67
-50.14
-40.84
-28.45
-21.03
-21.12
-24.48
-23.11
-10.77
12.61
40.14
61.30
67.41
56.22
33.04
7.65
-11.09
-19.78
-21.61
-23.66
-31.86
-46.73
-62.33
-69.43
-60.87
-36.10
-2.14
29.71
49.66
54.27
47.82
38.98
35.23
38.48
44.24
44.75
34.01
11.81
-15.63
-38.80
-50.05
-47.68
-36.82
-26.46
-24.11
-31.30
-42.38
-47.84
-40.01
-17.85
12.18
39.53
55.29
56.82
48.65
39.07
34.77
36.88
40.54
38.02
23.74
-1.88
-31.82
-55.72
-65.21
-58.39
-40.66
-21.64
-9.66
-7.16
-9.67
-9.15
0.59
19.80
42.37
59.22
63.24
53.13
33.79
13.38
-1.26
-8.10
-10.56
-14.97
-26.31
-44.41
-62.92
-72.21
-64.58
-39.07
-2.83
32.01
54.29
59.38
50.85
37.31
26.56
20.91
16.44
6.47
-13.07
-39.80
-65.16
-78.48
-72.51
-47.37
-10.76
25.54
50.90
60.21
55.44
43.47
31.60
23.26
16.54
6.15
-12.16
-37.25
-61.51
-74.03
-66.60
-38.90
0.41
37.49
60.01
63.06
50.74
32.63
17.55
8.61
2.45
-7.21
-24.12
-45.77
-63.94
-69.06
-55.76
-26.22
10.47
42.54
60.95
63.03
52.92
38.52
26.83
20.23
15.73
7.29
-9.81
-35.05
-61.55
-78.66
-77.46
-55.79
-19.97
17.75
45.16
55.90
51.87
40.66
30.01
22.84
16.14
4.27
-15.69
-40.05
-59.30
-63.05
-46.28
-12.88
25.50
54.76
64.72
53.40
27.25
-2.48
-25.07
-34.64
-31.52
-20.71
-8.34
1.63
8.92
15.92
24.69
34.25
39.87
35.08
15.80
-15.85
-50.52
-75.07
-78.76
-58.94
-22.72
16.25
44.57
55.35
50.64
38.56
27.42
20.55
15.00
4.51
-15.11
-41.94
-67.67
-81.58
-76.23
-51.59
-15.42
20.30
45.02
54.22
50.85
42.79
37.79
38.84
42.54
41.28
28.23
2.23
-30.22
-57.69
-69.69
-62.31
-40.41
-14.88
3.54
10.12
8.27
6.49
12.42
27.81
47.50
62.71
66.52
57.88
41.92
26.44
17.05
14.20
13.31
7.87
-6.46
-29.06
-54.05
-72.95
-78.87
-70.22
-52.02
-33.79
-24.88
-29.29
-42.97
-55.70
-56.80
-41.39
-13.60
15.58
34.71
38.59
31.33
23.24
24.05
36.65
55.38
69.80
71.34
58.61
38.06
19.65
10.53
10.90
14.13
11.13
-4.02
-30.31
-59.80
-81.59
-87.24
-74.83
-49.78
-22.01
-1.05
8.35
8.20
5.44
7.75
19.16
37.89
57.52
70.73
73.42
67.02
57.28
50.57
50.11
54.15
57.46
55.12
45.91
33.63
24.58
23.42
29.58
36.94
36.94
23.89
-0.83
-28.41
-47.02
-48.51
-33.41
-11.30
3.96
1.68
-19.58
-50.79
-76.88
-84.64
-69.85
-39.15
-6.24
15.15
17.98
3.58
-19.82
-41.45
-53.52
-54.78
-49.72
-44.54
-43.25
-46.00
-50.83
-56.52
-64.56
-76.61
-93.27
-112.16
-127.64
-132.69
-122.12
-92.88
-49.74
-2.14
40.09
70.15
86.03
89.86
86.03
79.20
73.14
69.94
70.56
74.75
80.81
86.22
88.76
87.76
84.18
80.20
77.88
78.44
81.87
87.45
94.55
102.73
110.86
115.94
113.53
99.82
75.26
46.24
23.01
14.01
20.35
33.98
41.95
34.55
11.52
-17.65
-40.36
-49.51
-47.80
-44.47
-47.36
-56.37
-63.71
-60.89
-46.69
-29.16
-20.48
-28.46
-50.49
-75.56
-92.17
-95.95
-91.62
-87.95
-90.32
-97.14
-102.58
-102.83
-100.95
-105.43
-123.32
-153.27
-183.66
-198.74
-188.11
-153.59
-108.72
-70.67
-50.32
-46.69
-49.63
-48.07
-38.08
-25.01
-18.05
-21.92
-31.61
-34.40
-17.85
20.91
71.38
113.96
130.53
114.75
75.83
33.83
8.27
7.32
23.29
37.38
30.89
-3.31
-55.93
-105.90
-132.02
-125.17
-93.14
-55.53
-31.74
-29.33
-40.67
-49.32
-42.25
-19.31
6.26
16.85
3.32
-27.59
-55.83
-60.12
-30.56
25.61
88.61
137.43
160.96
161.69
150.76
140.32
136.79
139.93
146.72
156.16
170.56
192.96
222.37
251.46
268.55
262.50
228.86
173.14
109.60
56.21
27.45
28.44
52.86
85.78
109.94
112.93
91.80
53.05
8.48
-30.98
-59.74
-78.20
-90.10
-98.79
-104.84
-106.52
-102.10
-91.95
-79.15
-68.04
-62.13
-62.31
-66.74
-71.82
-74.11
-71.74
-64.99
-55.89
-47.16
-40.95
-38.16
-38.32
-40.10
-41.96
-42.69
-41.58
-38.41
-33.44
-27.33
-21.16
-16.31
-14.19
-15.69
-20.63
-27.25
-32.56
-32.98
-25.28
-7.51
20.12
54.61
90.12
119.04
134.34
132.03
112.69
81.66
46.79
15.32
-8.78
-25.82
-39.41
-53.88
-71.73
-92.23
-111.55
-124.45
-126.61
-116.46
-95.67
-69.94
-45.90
-28.47
-19.32
-16.84
-17.89
-19.78
-21.69
-24.41
-28.95
-34.99
-40.59
-43.13
-40.74
-33.38
-22.81
-11.62
-2.16
4.50
8.94
12.79
17.79
25.01
34.32
44.58
54.09
61.35
65.58
