1541859403.00
64.000000
-0.00
-0.00
-0.00
-0.00
-0.00
-0.00
-0.00
-0.00
-0.00
-0.00
0.00
0.01
0.01
-0.00
-0.03
-0.05
-0.05
0.00
0.13
0.36
0.66
1.01
1.37
1.72
2.06
2.40
2.79
3.24
3.80
4.42
5.07
5.68
6.24
6.76
7.29
7.92
8.69
9.71
10.90
12.14
13.32
14.39
15.39
16.49
17.89
19.75
22.29
25.31
28.55
31.70
34.61
37.35
40.26
43.77
48.22
53.98
60.72
67.91
74.97
81.56
87.77
94.10
101.28
109.87
120.42
132.44
145.13
157.60
169.29
180.28
191.22
203.50
215.87
230.60
248.30
269.07
291.66
313.19
329.32
335.47
328.34
307.07
274.09
233.24
188.82
144.02
100.35
58.08
17.10
-22.27
-59.25
-92.49
-121.34
-145.53
-165.48
-181.62
-194.07
-202.60
-206.79
-206.58
-202.17
-194.58
-185.11
-175.11
-165.55
-156.86
-148.99
-141.18
-132.85
-123.63
-113.71
-103.58
-93.85
-85.01
-77.27
-70.60
-64.76
-59.56
-54.85
-50.64
-46.99
-43.94
-41.43
-39.25
-37.11
-34.72
-31.96
-28.90
-25.76
-22.88
-20.57
-19.06
-18.41
-18.53
-19.23
-20.28
-21.42
-22.42
-23.08
-23.28
-22.94
-22.06
-20.79
-19.39
-18.18
-17.56
-17.83
-19.15
-21.44
-24.38
-27.51
-30.36
-32.57
-34.09
-35.16
-36.23
-37.78
-40.11
-43.22
-46.87
-50.70
-54.46
-58.20
-62.23
-66.97
-72.67
-79.17
-85.93
-92.23
-97.68
-102.56
-107.94
-115.32
-125.99
-140.30
-157.45
-175.91
-194.28
-212.04
-229.57
-247.34
-264.75
-279.69
-289.04
-289.91
-280.99
-262.93
-237.70
-207.36
-173.20
-136.17
-98.03
-62.31
-34.10
-18.27
-16.94
-27.70
-43.94
-57.35
-61.29
-53.41
-36.18
-15.17
3.97
18.19
27.90
35.67
43.45
50.55
53.35
47.59
31.43
7.92
-15.45
-29.83
-29.36
-14.30
8.96
31.00
43.98
45.26
37.89
27.88
19.99
14.87
9.12
-1.88
-20.16
-42.96
-63.32
-73.49
-68.95
-50.89
-25.52
-1.06
16.28
24.80
27.09
27.48
28.54
29.18
25.36
13.00
-8.86
-36.30
-61.52
-76.07
-74.81
-58.34
-32.55
-5.83
14.72
26.13
29.82
29.61
28.69
27.37
23.44
14.35
-0.11
-16.31
-27.71
-27.85
-13.82
11.80
41.97
68.44
85.58
92.85
94.16
94.96
98.43
103.25
104.31
96.04
76.17
48.00
19.36
-0.70
-6.33
2.39
20.21
40.04
57.06
71.03
85.57
105.03
130.82
159.32
183.31
195.42
192.05
175.41
152.42
131.23
116.94
108.93
101.85
89.32
68.32
41.64
16.90
2.65
3.65
18.25
39.45
58.99
71.78
78.23
83.02
91.46
105.36
121.01
130.84
127.56
108.37
77.08
42.47
14.17
-2.31
-8.49
-11.64
-20.11
-38.08
-62.74
-85.75
-97.77
-93.75
-75.89
-52.00
-30.68
-16.41
-7.45
2.17
18.35
42.49
69.78
91.55
100.03
92.71
73.88
52.28
36.47
30.14
29.96
27.60
14.79
-11.51
-46.73
-80.80
-103.31
-108.85
-99.63
-83.65
-69.56
-61.65
-57.71
-51.41
-36.80
-12.42
17.47
45.21
64.14
72.26
72.92
72.33
75.67
84.05
93.78
98.43
92.44
74.31
47.75
19.89
-2.30
-15.52
-21.71
-26.85
-37.41
-56.31
-80.80
-103.75
-117.52
-118.16
-107.46
-91.88
-78.58
-71.20
-67.87
-62.80
-50.16
-27.87
0.91
29.55
51.65
64.48
70.22
74.22
81.42
93.22
106.58
115.72
115.44
104.08
84.70
63.54
46.70
36.83
31.78
25.92
13.39
-8.36
-36.58
-64.37
-84.15
-91.87
-89.27
-82.86
-80.18
-85.42
-96.92
-108.24
-111.85
-103.67
-85.33
-63.04
-43.62
-30.53
-22.13
-13.28
1.07
22.39
47.32
69.58
83.73
88.30
86.61
84.56
87.20
95.86
107.34
115.92
116.70
108.63
95.23
82.40
75.24
75.09
78.62
79.53
72.06
54.54
30.83
8.48
-5.14
-6.89
0.13
7.85
7.48
-5.45
-28.03
-51.32
-65.26
-64.18
-50.21
-32.34
-21.52
-24.54
-39.88
-58.75
-70.43
-68.40
-54.16
-36.26
-25.35
-27.96
-42.47
-60.03
-69.81
-65.31
-48.07
-26.67
-11.71
-9.81
-19.77
-33.61
-41.55
-37.91
-24.43
-8.84
0.22
-1.61
-11.63
-21.92
-24.37
-15.59
0.94
17.18
25.45
22.96
13.33
4.27
2.91
11.60
26.57
40.19
45.40
39.78
26.93
14.22
8.52
12.16
21.63
29.53
28.97
17.52
-1.00
-18.74
-28.11
-25.98
-15.39
-3.80
1.23
-3.75
-15.88
-27.88
-32.46
-26.59
-13.26
0.19
6.38
2.10
-9.60
-21.32
-25.61
-19.35
-5.25
9.85
18.97
18.77
11.36
2.74
-0.91
3.01
12.13
20.68
22.98
16.60
3.91
-9.30
-17.13
-17.10
-11.62
-6.54
-7.55
-16.80
-31.27
-44.37
-49.66
-44.79
-33.31
-22.99
-21.39
-31.36
-49.00
-65.48
-71.93
-64.51
-46.78
-27.81
-17.19
-19.41
-31.18
-43.17
-45.39
-32.94
-8.98
16.86
33.75
35.71
25.07
10.92
3.79
9.62
26.35
45.26
56.23
53.74
40.40
25.42
19.19
27.35
47.72
71.79
89.79
96.13
91.94
83.63
78.29
79.24
84.22
87.24
82.37
67.37
45.07
21.60
2.78
-9.27
-17.07
-26.04
-41.15
-63.68
-89.89
-112.46
-124.08
-121.19
-106.18
-86.18
-69.44
-61.02
-60.11
-60.92
-56.16
-41.51
-18.11
8.09
30.03
43.63
49.89
53.82
60.82
73.15
88.34
100.79
105.23
99.93
87.75
74.23
64.28
59.26
56.17
49.46
34.27
9.55
-20.92
-50.10
-71.20
-81.00
-81.57
-79.01
-80.14
-88.51
-102.13
-114.29
-117.16
-106.16
-82.68
-53.50
-27.07
-9.08
0.42
6.30
14.96
30.13
50.65
71.33
86.45
93.09
92.88
90.46
90.07
92.69
94.96
91.11
76.65
51.52
20.75
-7.68
-27.00
-35.12
-35.72
-36.30
-44.10
-61.95
-86.13
-107.83
-117.46
-109.31
-84.71
-51.42
-19.97
1.46
11.03
13.45
16.80
27.62
47.15
70.68
90.55
100.39
98.62
88.78
76.89
67.43
60.59
52.27
37.33
13.50
-16.22
-44.09
-61.54
-63.93
-53.34
-38.04
-28.30
-30.79
-44.89
-62.86
-74.16
-71.38
-54.31
-29.89
-8.28
2.93
2.88
-2.57
-4.55
3.27
20.94
42.09
57.72
61.92
55.43
45.18
40.07
45.54
60.12
75.64
81.59
71.09
45.06
12.14
-15.91
-30.38
-30.01
-21.70
-16.64
-24.20
-46.43
-76.68
-103.20
-115.42
-109.21
-88.81
-64.12
-44.97
-35.54
-32.48
-27.62
-13.71
10.87
40.88
66.92
80.65
79.08
66.18
50.06
37.96
32.17
29.19
22.50
7.18
-16.38
-41.84
-59.84
-63.25
-51.37
-30.27
-9.29
3.99
7.81
6.56
7.46
15.68
30.75
46.79
56.64
56.50
48.13
37.63
31.28
31.29
34.19
32.32
18.47
-9.25
-45.59
-80.13
-101.86
-104.26
-88.42
-62.47
-37.46
-21.91
-17.49
-19.13
-18.39
-8.74
10.14
31.62
45.52
43.52
24.22
-5.63
-34.22
-50.37
-48.90
-32.94
-11.40
6.25
15.11
16.97
18.09
24.41
37.43
52.86
63.42
63.57
53.16
37.75
25.16
20.75
23.88
28.32
26.04
12.13
-11.75
-37.78
-55.66
-57.92
-43.93
-20.36
2.48
16.30
19.01
15.35
13.42
19.40
33.47
48.96
55.98
47.28
22.86
-9.74
-39.27
-56.34
-58.29
-50.16
-41.30
-39.75
-47.16
-57.79
-62.12
-52.42
-27.53
5.97
36.67
53.95
53.36
38.57
18.87
3.82
-1.62
0.76
4.35
2.37
-7.54
-21.34
-30.83
-28.63
-12.67
12.27
37.11
53.51
58.09
53.95
47.71
44.83
45.70
45.38
36.88
16.11
-14.60
-46.64
-68.92
-73.48
-59.67
-34.44
-8.58
8.74
14.25
11.17
6.31
5.02
7.44
8.03
-0.56
-22.36
-54.16
-86.09
-106.04
-105.66
-84.47
-50.29
-14.83
12.09
26.91
32.93
36.76
43.42
53.02
60.84
60.42
47.77
24.46
-2.63
-24.35
-33.70
-29.07
-14.77
1.80
14.20
20.19
22.46
25.95
34.02
45.43
54.17
52.69
36.62
8.33
-23.34
-46.84
-53.55
-41.92
-18.12
7.39
25.41
32.20
30.36
25.80
23.20
22.53
19.03
6.74
-16.70
-46.97
-74.05
-86.82
-78.70
-51.24
-13.83
20.55
41.20
43.93
32.10
13.65
-3.38
-14.51
-19.89
-22.56
-25.22
-27.60
-26.48
-18.07
-1.36
19.89
37.98
44.50
34.62
10.13
-20.66
-46.33
-57.37
-50.25
-28.57
-0.89
23.43
38.22
42.19
37.98
29.32
18.59
5.87
-9.65
-27.39
-43.71
-52.56
-48.41
-29.55
0.06
31.64
54.78
61.85
51.36
28.59
2.99
-16.10
-23.36
-19.27
-8.76
2.01
9.33
13.44
17.38
23.78
32.12
37.94
35.23
20.21
-5.30
-33.37
-52.93
-55.25
-38.22
-7.57
26.12
52.26
64.77
63.95
54.92
43.68
33.35
23.05
9.63
-9.09
-31.36
-51.27
-61.26
-56.23
-36.96
-10.68
12.28
23.67
21.27
9.76
-2.04
-6.22
-0.11
12.45
23.75
27.52
22.82
14.50
10.32
15.86
30.38
46.17
52.02
39.16
6.74
-36.65
-76.07
-96.93
-91.74
-63.62
-24.85
8.84
25.58
22.18
4.43
-16.93
-32.10
-36.71
-32.43
-24.12
-15.82
-7.92
1.92
15.65
31.58
43.62
43.72
27.23
-3.16
-36.90
-59.72
-60.50
-37.10
1.88
40.72
63.60
62.05
38.54
4.94
-23.49
-35.36
-27.83
-6.91
16.60
32.91
37.56
32.29
22.48
13.08
5.74
-0.47
-6.88
-12.89
-15.15
-10.08
2.89
19.55
31.54
30.27
12.32
-17.83
-48.72
-67.08
-64.70
-42.71
-11.30
14.70
22.74
8.54
-21.84
-54.88
-76.22
-77.59
-60.28
-33.76
-10.78
-0.82
-5.49
-18.42
-29.05
-28.61
-15.12
6.10
26.10
37.70
39.71
37.16
37.65
46.43
62.81
79.92
88.59
82.59
62.56
36.29
14.59
5.44
10.15
23.09
34.96
37.65
28.28
10.16
-9.55
-23.82
-29.52
-28.06
-23.48
-19.32
-16.31
-13.00
-7.70
-0.55
5.92
8.01
3.19
-7.81
-20.91
-30.50
-32.61
-27.31
-18.82
-12.65
-12.31
-17.11
-22.54
-23.33
-16.90
-5.43
4.85
7.06
-1.72
-18.25
-34.00
-39.52
-30.16
-8.88
14.48
28.02
23.71
1.91
-28.38
-53.71
-62.53
-51.19
-25.46
2.58
21.10
24.62
16.59
6.89
5.84
17.92
38.49
56.16
59.19
42.60
11.65
-20.33
-39.34
-38.07
-19.88
2.87
15.51
8.86
-15.87
-47.67
-71.64
-76.74
-61.23
-33.05
-5.11
11.66
14.15
8.01
4.04
11.67
33.01
61.08
83.90
91.36
81.32
61.04
42.92
37.33
46.68
63.65
75.19
69.92
44.48
6.04
-31.48
-54.56
-56.75
-41.59
-20.19
-5.13
-3.33
-12.68
-23.61
-24.94
-11.08
13.95
38.99
52.34
49.21
34.79
20.62
17.33
27.09
41.72
47.17
32.45
-2.81
-46.61
-80.65
-90.46
-73.37
-39.73
-7.00
10.39
8.72
-3.99
-14.10
-11.64
3.12
20.00
26.06
14.61
-9.65
-33.26
-42.61
-32.63
-10.30
9.36
12.80
-3.66
-31.48
-55.14
-61.82
-48.88
-25.00
-4.04
3.55
-3.51
-17.63
-28.30
-28.92
-20.55
-10.44
-6.40
-11.36
-21.76
-30.20
-30.53
-21.92
-8.91
1.95
6.06
3.28
-2.72
-7.27
-7.63
-4.12
0.77
4.65
6.76
7.82
8.60
9.03
8.09
5.26
1.66
-0.22
1.92
8.30
16.37
22.24
23.35
20.45
17.50
18.93
26.03
35.46
40.98
37.50
25.26
10.22
0.98
3.26
15.93
30.91
37.91
30.92
12.42
-7.47
-17.14
-10.61
8.61
29.60
40.61
36.70
22.67
9.92
9.12
22.86
43.19
56.40
51.40
27.03
-6.38
-33.00
-40.63
-28.17
-6.38
8.27
3.56
-21.00
-53.42
-76.14
-76.24
-53.16
-18.71
9.82
19.98
11.11
-6.17
-17.45
-14.01
1.51
17.19
20.32
6.14
-18.49
-39.33
-44.06
-29.94
-5.54
14.53
18.91
6.24
-14.76
-31.21
-34.23
-23.79
-7.84
3.40
3.92
-5.01
-16.51
-23.14
-21.57
-14.17
-6.67
-3.95
-7.19
-13.53
-18.54
-19.16
-15.33
-9.17
-3.05
1.92
6.00
9.50
12.18
13.41
13.13
12.88
15.02
20.62
28.08
33.61
33.91
29.12
23.39
22.45
29.24
40.76
48.71
44.29
24.55
-4.75
-31.54
-44.46
-39.65
-22.85
-5.54
2.27
-1.93
-12.54
-20.43
-19.50
-10.64
-0.46
4.06
0.37
-7.98
-13.94
-11.92
-0.92
15.14
29.56
36.30
32.65
20.16
4.33
-7.82
-10.54
-2.48
12.12
24.76
26.93
15.44
-5.11
-24.21
-31.80
-24.63
-8.31
6.50
10.89
3.52
-9.15
-17.82
-16.75
-7.31
3.49
8.24
4.03
-5.92
-14.39
-14.70
-4.44
13.36
31.49
41.83
39.15
23.72
1.73
-17.40
-25.68
-21.29
-9.68
-0.46
-1.15
-12.28
-27.18
-36.38
-34.17
-22.38
-8.85
-1.87
-4.96
-14.93
-24.39
-26.65
-19.22
-4.55
11.82
24.13
28.70
25.15
16.62
8.41
5.45
9.55
17.75
23.71
21.66
10.63
-4.43
-15.66
-17.59
-10.88
-1.79
2.40
-1.60
-10.87
-18.39
-17.94
-7.81
8.42
24.16
33.40
33.27
24.97
13.02
3.27
0.38
5.39
14.52
20.60
17.15
2.67
-17.73
-34.82
-40.81
-34.42
-21.61
-11.50
-10.37
-17.58
-26.53
-29.39
-22.21
-7.10
9.30
19.93
20.97
13.52
2.86
-4.49
-4.04
4.32
16.01
24.12
23.18
12.69
-2.34
-14.24
-17.58
-12.48
-4.31
0.14
-2.73
-10.87
-18.17
-18.56
-9.70
5.70
21.54
31.84
33.38
27.24
17.96
11.43
11.96
19.68
29.75
34.70
28.87
12.37
-8.27
-23.55
-26.91
-18.79
-6.49
0.75
-2.17
-13.04
-24.02
-26.86
-17.89
-0.22
17.98
27.81
24.12
8.24
-12.66
-29.16
-34.27
-26.89
-12.61
-0.49
2.12
-5.86
-18.90
-28.59
-29.01
-20.29
-8.10
0.05
-0.32
-8.09
-17.31
-20.82
-14.36
1.18
20.20
35.12
40.36
35.29
24.81
16.50
15.94
22.88
31.34
33.23
23.56
4.05
-17.54
-31.71
-32.73
-21.80
-6.10
5.65
8.08
1.87
-7.00
-11.31
-7.14
3.86
15.40
20.35
15.02
1.42
-13.53
-21.92
-19.07
-6.43
9.26
19.67
19.55
9.71
-3.69
-12.76
-12.56
-4.13
6.40
11.51
6.84
-6.17
-21.07
-30.03
-28.15
-16.14
-0.05
12.30
15.84
10.95
3.12
-0.64
3.68
14.62
26.01
30.58
24.46
9.64
-6.78
-16.63
-15.11
-3.79
10.47
19.60
19.02
10.43
0.47
-3.49
1.82
13.46
23.99
26.16
17.21
0.94
-14.40
-20.57
-14.01
1.91
18.43
26.09
20.04
2.54
-18.57
-34.38
-39.48
-34.17
-23.59
-14.56
-12.04
-16.61
-24.39
-29.62
-28.18
-20.34
-10.45
-4.17
-5.16
-12.74
-22.30
-27.74
-24.93
-14.18
-0.45
9.63
11.49
5.84
-1.93
-5.23
-0.47
10.71
22.31
27.57
23.06
10.92
-1.95
-7.90
-3.04
10.13
24.07
30.60
25.52
10.89
-6.02
-16.74
-16.24
-5.72
8.40
18.32
19.48
13.20
5.30
2.20
6.76
16.56
25.46
27.51
20.71
8.56
-1.72
-3.67
4.58
18.98
31.65
35.29
27.11
10.36
-7.26
-17.61
-16.51
-5.99
7.06
14.89
13.19
3.33
-8.95
-16.83
-16.36
-8.68
0.80
5.64
2.42
-7.21
-17.53
-22.29
-18.43
-7.92
3.33
8.99
5.81
-4.27
-14.96
-19.19
-13.36
0.48
15.54
24.07
21.76
9.99
-4.90
-14.92
-14.96
-5.85
6.07
12.61
8.25
-6.27
-24.66
-38.33
-41.20
-33.12
-19.86
-10.01
-9.74
-19.35
-33.21
-43.16
-43.16
-32.71
-16.83
-2.83
4.06
3.75
0.67
0.50
6.16
15.87
24.25
25.82
18.73
6.21
-5.14
-9.01
-3.21
8.77
19.52
21.85
12.76
-4.64
-22.86
-33.91
-33.30
-22.12
-6.26
6.57
11.16
7.51
0.13
-4.99
-3.99
2.75
11.51
18.12
20.66
21.09
23.62
31.46
43.99
56.24
61.32
54.65
37.22
15.83
-0.03
-3.34
6.54
23.40
37.43
40.40
29.88
10.39
-9.25
-20.45
-19.56
-9.53
2.11
7.59
3.19
-8.87
-22.42
-31.04
-31.80
-27.02
-22.76
-24.96
-35.71
-51.48
-64.66
-67.83
-58.07
-39.03
-18.89
-5.67
-2.67
-6.89
-11.20
-8.80
2.70
19.74
34.63
39.90
32.74
16.47
-1.54
-13.92
-16.77
-11.37
-2.80
3.40
4.51
2.15
0.67
4.19
13.75
26.40
36.44
38.32
30.24
15.37
0.15
-9.32
-10.48
-5.47
0.45
1.80
-3.87
-14.27
-23.90
-27.42
-23.08
-13.76
-5.31
-2.98
-7.74
-15.38
-18.96
-13.43
1.09
18.98
32.35
35.10
26.09
9.99
-5.43
-13.39
-11.71
-3.42
5.73
10.51
9.05
3.90
0.08
1.83
9.46
18.84
23.96
20.30
7.99
-7.43
-17.88
-17.40
-5.88
10.78
24.00
27.01
18.35
2.55
-12.66
-20.70
-19.78
-13.46
-7.90
-7.90
-13.92
-21.48
-24.06
-17.30
-2.07
15.58
27.76
28.84
18.53
2.27
-11.79
-17.28
-13.02
-3.30
5.22
7.43
2.90
-3.97
-6.80
-1.33
11.73
26.85
36.75
36.16
24.90
8.27
-6.00
-12.10
-9.15
-1.34
4.88
4.77
-1.86
-10.60
-15.29
-11.92
-1.09
12.17
21.11
20.84
11.29
-2.65
-13.95
-17.24
-11.54
-0.49
9.92
14.84
13.06
7.37
2.61
2.71
8.42
16.79
22.83
22.36
14.58
2.55
-8.47
-13.95
-12.52
-6.92
-2.19
-2.71
-9.84
-20.97
-30.87
-34.76
-31.17
-22.83
-15.10
-12.94
-18.04
-27.32
-34.69
-34.69
-25.89
-11.78
1.06
6.58
3.13
-5.32
-11.69
-10.30
-0.17
14.37
25.90
28.43
21.23
9.08
-0.90
-3.38
2.40
12.13
19.33
19.56
13.00
3.80
-2.36
-1.75
5.26
14.19
19.36
17.26
8.11
-3.96
-13.06
-14.72
-8.63
1.27
9.07
9.64
2.08
-9.36
-17.57
-16.79
-6.02
10.05
23.33
27.16
20.28
7.54
-3.11
-5.28
2.40
15.41
26.12
28.37
20.80
7.09
-6.07
-12.93
-11.73
-5.74
-0.84
-1.93
-10.13
-21.83
-30.75
-31.64
-23.99
-12.33
-3.68
-3.72
-12.85
-25.54
-33.67
-31.35
-18.28
-0.21
14.29
18.93
13.16
1.81
-7.77
-10.28
-5.13
3.17
8.14
5.26
-5.53
-19.52
-29.70
-30.63
-21.58
-7.04
5.52
9.77
4.66
-4.94
-10.90
-6.39
9.51
31.08
49.07
55.93
49.86
35.35
20.27
11.25
10.36
14.54
17.91
15.25
5.26
-8.55
-19.39
-21.00
-10.93
7.28
25.44
35.20
32.87
21.56
9.39
4.54
9.93
21.44
30.65
30.02
17.64
-1.58
-19.04
-27.36
-24.69
-15.22
-6.80
-6.13
-14.61
-27.65
-37.25
-36.59
-24.22
-5.55
10.57
16.91
11.77
0.16
-9.60
-11.27
-4.53
5.53
11.51
8.45
-2.97
-17.06
-26.81
-27.90
-20.69
-10.14
-2.76
-2.75
-10.06
-20.65
-28.57
-29.14
-21.90
-10.34
0.03
4.58
2.46
-2.90
-6.30
-4.02
4.21
14.42
20.88
19.78
11.33
-0.06
-7.96
-7.50
1.43
14.47
24.83
26.95
19.94
8.17
-1.50
-3.51
3.15
14.14
22.53
22.95
14.45
0.93
-11.16
-16.56
-14.06
-6.67
0.30
2.33
-1.84
-9.65
-16.08
-16.84
-10.78
-0.83
7.49
9.14
2.99
-7.31
-15.14
-14.99
-6.12
6.48
15.26
14.80
5.42
-6.38
-12.32
-7.55
6.48
22.68
32.53
31.40
20.68
6.20
-5.23
-9.82
-8.30
-4.57
-3.13
-6.73
-14.91
-24.55
-31.14
-30.66
-21.89
-7.51
6.77
14.64
12.90
4.19
-4.06
-4.10
7.38
26.10
42.17
46.36
36.01
16.95
0.17
-5.31
1.78
14.75
23.65
21.52
9.01
-6.94
-17.98
-19.43
-12.75
-4.41
-1.34
-7.26
-20.81
-36.35
-46.94
-47.78
-38.29
-22.72
-8.40
-2.00
-6.04
-16.94
-26.26
-25.27
-10.23
15.10
40.99
56.81
57.57
46.18
30.83
19.83
16.38
16.84
14.69
5.40
-10.11
-25.44
-32.98
-28.65
-13.96
4.88
20.02
26.20
22.62
12.65
2.30
-3.04
-1.02
6.56
14.33
16.02
8.34
-6.64
-21.84
-28.69
-22.56
-6.24
11.44
20.41
15.63
1.20
-12.50
-15.54
-4.45
14.68
30.02
31.96
18.90
-1.91
-18.81
-23.50
-15.90
-2.97
5.65
4.00
-6.72
-20.12
-28.70
-28.30
-20.20
-9.75
-2.82
-3.33
-11.37
-23.31
-33.81
-37.97
-33.41
-22.18
-9.53
-1.32
-1.32
-7.93
-15.16
-16.35
-7.80
8.29
24.73
33.85
32.08
21.76
9.94
3.60
5.27
12.27
18.41
18.33
11.17
0.75
-6.90
-7.13
0.31
11.51
20.93
24.38
21.59
15.82
11.63
12.01
16.75
22.41
24.68
20.76
10.66
-2.38
-13.75
-19.52
-18.04
-10.92
-2.37
2.69
0.84
-7.64
-18.67
-26.49
-26.92
-20.16
-10.99
-5.73
-8.30
-17.20
-26.12
-28.06
-19.84
-4.31
11.05
18.73
15.87
5.32
-5.95
-11.29
-8.28
0.36
8.86
11.59
6.70
-3.05
-12.24
-15.43
-10.50
0.18
11.33
17.23
14.83
5.54
-6.02
-14.30
-15.65
-10.62
-3.09
2.19
1.85
-3.46
-9.63
-11.87
-7.26
3.18
14.53
21.35
20.88
14.56
7.62
5.47
10.18
19.36
27.35
28.46
20.52
6.15
-8.56
-17.13
-16.38
-8.08
2.19
7.72
4.78
-4.75
-14.89
-18.55
-11.91
2.68
18.30
27.47
26.31
16.91
5.73
-0.71
0.56
7.47
14.28
15.33
8.08
-5.45
-19.48
-27.66
-26.34
-16.57
-4.02
4.19
3.74
-4.38
-13.85
-16.92
-9.39
6.61
23.57
32.74
29.13
14.51
-4.08
-18.24
-22.75
-18.38
-10.66
-6.69
-10.58
-20.74
-30.91
-33.61
-24.63
-6.24
13.93
26.97
27.42
16.52
1.54
-8.53
-8.02
2.62
17.06
27.19
27.81
19.33
7.54
-0.48
-0.30
7.19
16.40
20.69
16.34
4.72
-8.31
-15.90
-14.41
-5.55
4.75
9.63
5.57
-5.14
-15.55
-17.71
-7.28
13.68
37.14
53.07
54.48
40.95
18.78
-2.69
-16.04
-19.50
-17.39
-16.98
-23.67
-37.35
-52.15
-59.70
-53.88
-34.62
-8.26
15.57
29.02
29.92
22.51
14.51
12.14
16.06
21.21
20.37
9.40
-9.27
-27.64
-36.66
-32.00
-16.83
-0.02
8.87
5.04
-8.93
-24.70
-33.03
-28.81
-13.89
4.59
17.95
20.74
13.54
1.57
-8.26
-11.09
-6.70
1.13
6.99
6.79
0.24
-9.48
-17.27
-18.97
-13.81
-4.65
3.71
6.85
3.69
-3.75
-11.90
-17.60
-20.45
-22.22
-24.95
-29.23
-32.74
-31.70
-23.20
-7.10
12.83
30.63
40.91
40.96
32.34
19.86
9.31
5.10
8.07
15.19
21.50
22.35
16.86
8.10
1.35
0.81
6.35
13.60
16.86
12.53
1.89
-9.73
-16.18
-13.81
-3.81
8.69
17.36
17.52
8.85
-4.59
-16.32
-20.37
-14.61
-1.69
12.35
21.54
23.68
21.23
19.50
22.60
30.14
37.16
37.10
25.65
4.25
-20.66
-40.57
-49.02
-44.92
-32.50
-18.99
-10.54
-8.97
-11.32
-11.60
-5.22
7.69
21.91
29.81
26.10
11.53
-7.22
-21.14
-24.00
-16.02
-3.25
5.67
4.68
-6.41
-21.89
-33.08
-33.24
-21.00
-1.49
16.33
24.42
19.90
6.56
-7.44
-14.40
-11.27
-1.25
8.61
12.02
7.11
-2.72
-11.30
-13.86
-9.75
-2.80
1.46
-0.76
-8.93
-18.46
-23.45
-19.90
-8.43
6.12
17.24
20.35
15.20
6.10
-0.54
0.07
8.80
21.89
33.18
37.42
33.09
23.46
14.53
11.69
16.63
26.36
35.09
37.64
32.39
22.17
12.14
6.59
6.52
8.87
8.85
2.33
-11.20
-28.13
-42.59
-48.84
-44.60
-32.08
-16.72
-4.83
-0.04
-1.99
-6.96
-10.33
-9.57
-5.74
-2.55
-4.26
-12.44
-24.85
-36.19
-40.72
-35.87
-23.35
-8.66
1.70
4.00
-1.06
-8.34
-11.83
-8.13
1.31
11.17
15.68
12.45
4.07
-3.60
-4.96
1.56
12.72
22.40
25.11
19.45
9.11
0.96
1.11
11.48
27.89
42.26
46.83
38.73
21.72
4.18
-5.68
-4.56
4.26
13.29
15.49
8.33
-5.34
-19.08
-27.13
-27.24
-21.47
-14.56
-10.86
-11.59
-13.98
-12.99
-4.33
11.86
30.24
42.46
41.65
26.70
3.75
-16.82
-26.13
-21.24
-6.95
7.19
12.16
4.04
-13.89
-33.33
-45.35
-44.86
-33.03
-16.37
-2.99
1.84
-1.70
-8.44
-12.05
-9.24
-2.02
3.77
2.37
-7.57
-21.75
-32.76
-34.14
-24.60
-8.78
5.31
10.66
5.17
-6.74
-16.47
-15.92
-1.92
21.06
43.29
54.70
50.79
35.15
17.11
6.32
6.60
14.35
21.41
20.59
10.46
-4.28
-15.52
-17.28
-8.99
4.40
14.83
15.51
4.31
-14.97
-33.97
-44.02
-40.23
-24.33
-3.99
11.83
17.38
13.75
7.42
5.78
12.50
24.72
35.40
37.49
28.23
10.87
-7.66
-20.17
-23.14
-18.06
-9.86
-4.22
-3.94
-7.83
-11.15
-9.01
0.42
14.42
26.66
30.99
25.05
11.72
-2.22
-10.26
-9.52
-2.35
5.29
7.58
2.26
-7.82
-16.59
-18.03
-10.15
3.45
15.33
18.47
10.83
-3.11
-14.64
-16.28
-6.55
8.77
20.12
19.87
7.06
-12.12
-27.90
-32.43
-24.04
-7.81
7.56
14.37
10.18
-1.12
-11.35
-13.02
-3.43
13.40
28.79
34.65
28.08
13.40
-0.88
-6.91
-2.52
8.00
16.97
17.90
9.42
-4.81
-18.00
-24.50
-22.28
-13.64
-4.13
0.65
-2.60
-12.26
-22.80
-27.08
-20.49
-4.36
14.64
27.29
27.93
17.22
2.39
-7.81
-8.33
-0.41
9.15
13.29
8.51
-2.70
-14.37
-20.39
-18.20
-10.36
-2.25
0.58
-3.69
-12.51
-19.51
-18.51
-7.42
10.12
25.54
30.67
21.94
3.83
-13.86
-21.42
-14.99
0.72
16.15
21.98
15.49
0.92
-12.99
-19.09
-15.61
-6.34
1.93
4.13
-0.98
-9.96
-17.71
-19.66
-14.43
-4.65
4.76
8.35
3.77
-7.36
-19.10
-24.81
-20.72
-8.52
4.94
11.87
7.75
-4.88
-18.40
-24.00
-17.61
-2.21
14.08
22.89
20.92
11.18
1.12
-2.95
0.86
8.90
14.97
14.28
6.36
-4.89
-14.02
-16.97
-13.20
-5.42
2.14
5.92
4.47
-1.27
-8.44
-13.56
-14.01
-9.41
-2.21
3.46
3.72
-2.27
-11.39
-17.46
-14.90
-2.50
15.11
29.50
33.44
25.57
11.89
1.95
3.26
15.65
31.41
39.30
31.79
10.18
-15.47
-31.89
-30.70
-13.05
10.42
26.52
27.03
13.76
-3.37
-12.51
-7.57
8.04
23.67
27.88
15.85
-7.77
-31.53
-44.28
-41.43
-27.81
-13.78
-8.98
-16.09
-29.40
-38.35
-34.21
-15.56
10.28
31.11
36.60
23.87
-0.42
-23.71
-33.93
-26.22
-5.04
18.04
31.25
29.05
15.32
0.76
-3.41
7.54
28.50
47.32
51.53
36.04
6.35
-23.77
-39.84
-34.40
-11.54
15.72
32.53
30.80
13.70
-5.97
-13.45
-0.82
27.87
58.27
73.75
64.65
34.51
-1.54
-24.81
-23.61
0.35
32.54
54.18
52.85
30.09
0.21
-17.99
-12.56
14.17
46.81
65.96
60.36
33.50
1.68
-16.72
-12.54
8.38
29.45
34.23
16.79
-14.92
-45.04
-59.91
-56.46
-42.56
-30.96
-30.50
-41.38
-56.26
-66.16
-66.24
-57.72
-45.99
-36.64
-32.70
-34.21
-39.24
-45.03
-48.26
-45.41
-34.13
-15.31
5.61
20.43
22.51
11.51
-5.68
-18.74
-20.39
-11.54
-0.47
2.92
-5.12
-19.60
-29.97
-27.91
-13.26
5.75
18.30
18.31
8.08
-4.02
-9.75
-6.03
3.48
11.47
11.41
1.02
-16.74
-35.27
-47.47
-49.00
-40.22
-26.34
-14.32
-8.98
-9.32
-8.90
0.18
21.48
50.98
78.26
92.27
87.61
67.60
42.50
23.54
17.62
24.07
35.96
43.77
40.25
24.07
0.61
-20.71
-31.46
-28.76
-17.12
-5.00
0.88
0.59
1.03
10.88
33.45
63.05
87.26
93.82
77.90
45.18
9.20
-15.92
-22.33
-11.80
6.03
19.04
19.12
6.18
-11.96
-24.15
-22.34
-6.30
16.03
33.46
37.83
28.61
12.16
-2.87
-11.15
-12.92
-12.94
-16.42
-26.05
-40.91
-57.37
-70.87
-77.41
-75.07
-64.82
-50.94
-39.49
-35.38
-38.71
-43.79
-42.10
-28.24
-4.23
20.39
34.34
32.31
19.04
6.62
6.35
20.77
41.32
53.79
47.84
24.54
-3.62
-20.16
-15.16
8.49
36.63
52.72
48.07
26.87
3.12
-8.58
-1.95
17.61
37.04
44.51
36.39
18.87
2.69
-4.27
-2.05
2.24
-0.21
-13.66
-35.30
-57.29
-71.88
-75.71
-70.74
-62.26
-54.90
-50.85
-49.50
-49.14
-47.92
-44.49
-37.71
-26.96
-13.06
0.91
10.43
12.15
6.67
-0.85
-3.25
4.13
19.27
34.14
38.87
28.73
8.00
-11.74
-18.89
-9.22
10.36
25.98
25.40
6.87
-18.89
-34.28
-25.71
7.63
52.65
89.77
104.61
96.28
77.27
64.40
68.09
85.92
104.99
111.06
97.67
69.73
39.14
16.86
6.19
2.27
-3.77
-18.35
-42.18
-70.59
-96.30
-112.74
-116.32
-107.42
-90.44
-72.19
-59.50
-55.25
-56.37
-54.73
-42.53
-17.67
13.00
37.49
45.68
36.90
20.57
10.26
14.51
31.62
50.86
60.36
54.67
37.90
19.56
8.00
5.06
6.35
4.71
-4.65
-22.00
-43.53
-63.38
-75.77
-76.74
-65.62
-46.16
-25.69
-12.31
-9.87
-14.90
-17.56
-7.95
17.02
49.80
76.32
84.54
73.10
52.45
38.03
39.99
56.75
76.58
86.33
80.30
63.34
46.08
36.62
34.94
33.81
24.77
4.55
-22.97
-49.91
-69.61
-80.00
-82.86
-81.32
-77.86
-74.12
-71.89
-73.16
-78.15
-83.49
-82.77
-70.26
-45.88
-17.38
2.92
5.64
-8.93
-30.37
-44.08
-40.63
-21.95
-0.10
11.06
5.44
-10.93
-24.08
-21.56
-1.45
26.06
45.04
44.34
25.24
0.90
-12.28
-5.13
18.07
42.07
50.29
35.27
3.57
-28.02
-42.57
-33.14
-7.01
19.00
28.65
16.04
-10.98
-35.70
-42.66
-26.99
2.57
29.15
37.86
24.82
-0.18
-19.33
-17.20
10.09
52.05
89.55
105.31
93.45
62.81
31.93
18.68
30.44
60.04
89.89
101.74
86.81
50.81
10.50
-15.63
-17.83
-0.44
21.03
29.36
16.07
-13.22
-42.28
-54.25
-42.29
-14.39
11.14
16.77
-3.35
-39.24
-70.79
-79.55
-59.86
-22.48
11.75
24.09
8.97
-22.91
-51.06
-57.33
-36.61
0.19
32.93
44.20
29.67
0.81
-22.15
-22.45
3.11
41.83
73.00
80.12
60.89
28.13
1.56
-4.68
9.68
31.63
43.60
35.24
9.23
-20.98
-40.91
-43.93
-34.69
-24.38
-22.65
-31.30
-44.21
-52.73
-51.70
-42.32
-30.34
-21.91
-20.27
-25.11
-33.88
-42.92
-48.08
-45.02
-30.73
-6.00
23.32
47.80
59.68
57.80
49.33
45.11
52.38
69.21
84.84
87.40
71.93
45.01
20.05
8.79
13.11
24.26
28.95
18.09
-7.51
-38.74
-63.89
-75.45
-73.01
-62.08
-50.17
-43.40
-44.54
-52.21
-61.66
-66.48
-61.66
-46.60
-26.37
-9.36
-2.00
-3.84
-6.85
-0.40
20.79
51.76
78.75
87.68
73.81
45.88
21.36
15.57
32.27
61.14
84.94
90.59
77.15
55.65
40.51
39.91
50.45
60.36
58.10
40.49
14.67
-7.14
-15.85
-11.42
-2.11
1.16
-7.71
-26.89
-48.46
-63.59
-68.18
-63.82
-56.24
-50.87
-50.16
-53.02
-56.28
-57.21
-54.63
-49.50
-43.16
-37.15
-32.12
-28.56
-26.91
-27.11
-28.82
-30.35
-29.73
-25.11
-16.77
-6.95
0.79
3.31
-0.17
-7.93
-16.08
-21.28
-21.83
-18.78
-14.73
-12.22
-12.99
-17.37
-24.90
-34.17
-43.32
-49.84
-50.98
-45.07
-32.73
-17.83
-6.03
-2.68
-9.40
-22.92
-35.91
-40.39
-32.33
-13.87
7.19
21.78
24.19
15.60
3.55
-2.28
4.49
22.95
45.34
61.46
64.75
56.10
43.51
37.18
43.00
58.38
73.10
74.93
57.31
23.94
-11.87
-33.37
-29.37
-0.33
41.23
76.70
90.65
78.68
49.43
19.87
6.66
17.26
46.06
77.28
93.03
82.47
47.67
2.91
-32.54
-43.48
-26.90
7.05
40.20
55.60
46.26
17.92
-14.13
-33.96
-33.04
-15.12
6.89
18.20
10.83
-11.51
-36.03
-47.49
-37.32
-8.17
26.74
50.50
51.33
28.04
-9.14
-44.53
-64.42
-64.07
-48.60
-29.83
-19.32
-22.32
-36.61
-53.66
-64.56
-64.10
-53.68
-39.77
-30.12
-30.28
-40.41
-56.36
-71.06
-78.61
-76.38
-66.44
-54.02
-44.43
-40.89
-41.94
-43.05
-38.88
-27.04
-9.63
7.76
19.14
22.25
19.69
17.67
21.32
31.35
42.85
48.71
44.92
33.89
23.92
23.60
36.06
55.67
71.03
72.18
57.16
33.73
14.77
10.28
20.68
36.81
45.41
37.84
15.69
-10.30
-26.43
-24.45
-6.46
16.06
29.19
24.77
5.23
-17.15
-27.47
-16.92
11.32
42.84
59.68
50.47
17.63
-23.08
-50.54
-49.78
-20.62
22.25
56.66
65.09
43.84
3.76
-35.68
-57.19
-54.18
-32.58
-6.42
10.57
11.67
-0.81
-18.73
-33.77
-41.55
-42.85
-40.97
-38.10
-34.06
-27.02
-16.46
-4.82
3.17
3.51
-3.68
-13.26
-17.13
-9.41
9.63
32.64
48.08
46.92
27.63
-1.87
-27.26
-35.24
-20.49
10.92
43.79
61.88
56.11
30.09
-1.28
-19.83
-13.64
15.92
54.66
82.81
84.75
57.32
10.87
-36.42
-67.27
-73.48
-58.47
-33.87
-13.08
-4.48
-8.67
-20.24
-32.05
-39.63
-42.85
-44.27
-45.95
-46.98
-43.45
-31.63
-11.55
11.40
28.26
31.71
20.84
3.00
-9.22
-4.94
18.85
54.55
87.30
102.43
92.85
63.20
27.31
1.34
-4.11
10.53
34.62
53.02
53.81
34.62
3.25
-26.32
-41.48
-37.58
-19.88
-0.39
8.99
2.84
-15.31
-35.50
-47.45
-46.14
-34.12
-19.57
-11.21
-13.56
-25.12
-39.83
-50.98
-54.60
-50.69
-42.52
-34.02
-27.35
-22.79
-19.26
-15.78
-12.47
-9.92
-8.63
-7.92
-5.66
0.05
9.68
21.13
30.21
32.88
27.26
15.54
3.61
-1.82
3.60
18.74
36.98
49.16
47.94
32.22
8.53
-11.92
-18.14
-5.46
21.37
50.14
66.27
60.34
33.54
-2.68
-31.15
-37.79
-19.14
15.61
48.43
61.83
48.13
13.14
-26.49
-52.47
-54.44
-34.60
-5.81
16.25
21.72
10.60
-8.71
-25.52
-33.22
-32.09
-27.75
-26.36
-29.89
-35.32
-36.87
-30.41
-17.06
-2.74
4.88
1.28
-11.43
-25.53
-31.78
-25.06
-7.83
11.35
22.48
20.44
8.39
-4.17
-7.00
4.28
25.20
45.11
53.26
45.33
26.46
8.27
2.06
12.04
32.47
51.06
55.98
42.68
17.01
-7.90
-19.08
-11.01
10.99
33.73
43.56
33.79
8.62
-19.03
-34.85
-31.08
-10.91
13.43
27.47
22.49
0.38
-27.16
-45.40
-44.80
-26.26
-0.67
17.57
18.52
2.21
-21.44
-38.63
-39.72
-24.56
-2.55
13.36
14.24
0.08
-20.26
-34.60
-34.82
-21.59
-3.69
7.48
4.74
-10.58
-29.38
-39.85
-34.54
-14.78
9.91
27.04
28.06
13.15
-8.61
-23.96
-22.70
-3.29
25.86
50.75
59.08
46.88
21.08
-4.37
-15.89
-7.73
14.55
37.40
46.90
36.63
11.56
-14.82
-27.90
-20.16
4.46
32.82
49.66
45.89
23.24
-6.87
-30.00
-36.29
-25.76
-7.72
5.13
3.90
-11.50
-32.45
-47.08
-46.90
-31.61
-9.23
8.80
13.80
4.69
-11.81
-25.17
-27.04
-15.85
2.40
17.66
21.56
12.09
-5.22
-20.41
-24.91
-16.39
0.14
15.20
20.60
14.12
0.55
-11.34
-14.06
-5.74
9.12
22.45
27.36
22.06
10.50
0.08
-2.57
4.68
18.56
32.21
39.15
36.84
27.92
18.54
14.89
19.35
29.16
37.99
39.64
31.58
16.41
0.24
-10.67
-13.21
-8.98
-2.90
-0.41
-4.44
-14.24
-26.30
-36.44
-42.03
-42.99
-41.29
-39.48
-38.91
-39.22
-38.74
-35.82
-30.05
-22.79
-16.60
-13.74
-14.72
-17.99
-20.94
-21.38
-18.93
-15.19
-12.44
-11.93
-12.88
-12.78
-9.43
-2.84
4.45
8.47
6.65
-0.25
-8.10
-11.45
-6.69
5.45
20.16
30.89
32.84
25.71
13.79
3.65
0.85
6.90
18.73
30.36
35.86
32.60
22.48
10.69
2.97
2.50
8.16
15.37
18.74
15.39
6.60
-2.81
-7.48
-4.49
4.69
14.88
20.22
17.18
6.64
-6.80
-17.31
-20.84
-17.04
-9.30
-2.64
-0.99
-5.02
-11.87
-16.62
-15.38
-7.55
3.50
11.89
12.72
4.97
-7.73
-18.85
-22.81
-18.19
-8.36
0.48
3.16
-1.20
-8.86
-13.75
-11.12
-0.71
13.04
23.47
25.34
18.06
6.01
-3.93
-6.03
0.85
12.53
22.11
23.92
16.87
5.31
-3.92
-5.46
1.25
11.55
18.62
17.68
8.87
-2.75
-10.36
-9.72
-1.44
9.01
14.74
11.59
0.62
-12.49
-20.51
-19.16
-9.47
2.87
10.53
9.04
-0.60
-12.97
-21.21
-21.25
-14.18
-5.07
0.12
-1.70
-8.86
-16.32
-18.99
-14.53
-5.15
4.04
8.29
5.69
-1.53
-8.30
-10.01
-5.03
4.48
13.38
16.62
11.91
0.71
-12.26
-21.50
-23.81
-19.49
-12.34
-7.74
-9.58
-18.30
-30.86
-41.94
-46.89
-43.78
-33.81
-20.73
-8.55
0.64
7.00
12.28
18.30
25.26
31.66
35.27
34.39
29.26
22.32
16.71
15.03
17.95
23.73
29.34
31.91
30.00
24.29
16.91
9.98
4.82
1.38
-1.26
-3.73
-5.68
-5.87
-2.77
4.19
13.86
23.72
30.75
32.77
29.58
22.78
14.96
8.49
4.39
2.16
0.51
-1.77
-5.03
-8.44
-10.79
-11.23
-9.76
-7.56
-6.12
-6.39
-8.36
-11.01
-12.82
-12.82
-11.07
-8.62
-6.95
-7.04
-8.66
-10.63
-11.46
-10.26
-7.45
-4.49
-3.06
-4.08
-6.96
-9.82
-10.63
-8.34
-3.57
1.58
4.64
4.15
0.43
-4.56
-8.23
-8.81
-6.11
-1.61
2.46
4.31
3.55
1.16
-1.12
-1.99
-1.16
0.56
1.93
2.13
1.30
0.38
0.37
1.62
3.27
3.69
1.49
-3.54
-10.02
-15.42
-17.34
-14.95
-9.42
-3.59
-0.60
-2.21
-7.88
-15.02
-20.30
-21.30
-17.80
-11.77
-6.13
-3.29
-3.89
-6.42
-8.29
-7.28
-2.58
4.62
11.87
16.77
18.07
16.07
12.52
9.64
8.78
10.28
13.38
16.80
19.86
22.92
26.88
32.34
38.95
44.60
46.55
42.87
33.82
22.22
12.55
8.45
10.51
16.03
20.15
18.64
10.48
-1.28
-11.44
-15.45
-11.83
-3.45
4.38
6.95
2.78
-5.86
-13.99
-17.23
-14.66
-8.84
-4.26
-4.67
-10.43
-18.16
-23.15
-22.15
-15.14
-6.01
0.03
-0.50
-7.44
-17.10
-23.92
-23.99
-17.32
-7.40
0.50
2.09
-3.23
-12.08
-19.20
-20.26
-13.97
-3.39
6.08
9.79
6.25
-2.16
-10.14
-12.91
-8.95
-0.32
8.59
13.42
12.52
7.65
2.32
-0.37
0.71
3.63
5.03
2.45
-4.14
-12.11
-17.15
-15.94
-8.30
2.86
12.90
17.48
15.23
8.38
1.05
-3.09
-2.61
0.70
3.25
2.40
-1.95
-7.43
-10.42
-8.45
-2.27
4.51
7.66
4.59
-3.79
-12.99
-17.45
-13.99
-3.46
9.24
17.56
17.11
8.24
-4.18
-13.25
-13.73
-5.03
8.33
19.31
21.79
13.82
-1.17
-16.03
-23.74
-20.95
-9.60
4.01
12.62
12.10
3.51
-8.00
-15.91
-16.01
-8.67
1.92
10.59
13.91
11.82
7.03
2.71
0.18
-1.50
-4.47
-9.93
-16.34
-19.42
-14.51
0.02
20.80
39.87
48.23
40.74
19.69
-5.77
-23.59
-24.89
-8.52
18.21
43.03
54.65
47.98
26.09
-2.12
-26.69
-41.05
-44.33
-40.35
-34.25
-29.07
-24.72
-19.06
-10.80
-1.58
3.99
1.39
-10.24
-26.09
-37.09
-34.19
-13.75
19.45
53.88
76.20
77.49
57.79
26.17
-3.65
-20.02
-18.03
-1.52
19.37
33.61
34.71
22.85
3.61
-15.76
-30.48
-40.36
-48.19
-56.24
-63.28
-64.38
-53.46
-28.41
5.79
37.87
55.43
50.99
26.57
-6.34
-32.28
-39.29
-24.43
5.49
37.44
58.55
62.03
49.19
27.27
4.94
-11.40
-20.04
-23.31
-24.82
-26.74
-28.80
-28.95
-25.23
-17.71
-9.42
-4.42
-5.27
-10.87
-16.64
-16.47
-6.89
10.01
26.88
35.10
29.63
12.38
-7.83
-20.00
-17.43
-1.64
18.50
31.68
30.38
15.54
-3.96
-16.33
-13.62
4.22
29.17
49.11
54.17
41.86
18.19
-5.64
-18.78
-16.03
-0.55
17.93
28.53
24.89
7.88
-14.99
-34.18
-43.17
-41.95
-35.81
-31.35
-32.19
-36.90
-40.29
-37.57
-28.28
-16.92
-9.91
-11.28
-19.14
-26.27
-24.18
-9.01
15.30
38.35
48.83
40.94
18.15
-8.05
-24.10
-21.59
-1.60
26.14
48.35
55.11
44.55
22.97
0.96
-12.46
-13.96
-6.58
3.23
9.82
11.47
10.25
9.59
11.01
12.47
9.50
-1.12
-18.23
-35.47
-44.01
-37.27
-15.18
14.60
39.52
48.32
36.65
9.38
-21.65
-43.14
-46.59
-32.20
-8.09
14.30
25.82
23.37
10.31
-6.20
-19.41
-26.32
-28.04
-27.73
-27.68
-27.69
-25.36
-18.23
-6.34
6.74
15.23
14.57
4.30
-11.16
-24.15
-27.38
-17.56
2.49
25.01
41.16
45.03
36.15
19.58
3.29
-5.63
-4.50
4.32
15.54
24.29
28.63
30.09
31.82
35.63
39.60
38.82
28.80
8.99
-15.70
-36.46
-44.59
-36.00
-13.77
12.85
33.29
40.63
34.53
20.56
6.68
-1.32
-2.92
-2.58
-5.94
-15.57
-28.67
-38.44
-37.84
-23.93
-0.39
23.59
37.94
36.81
21.35
-1.55
-23.07
-36.75
-41.18
-39.90
-37.78
-37.26
-36.46
-30.59
-15.62
8.00
33.98
52.11
53.68
36.69
8.08
-19.14
-32.08
-24.28
0.68
30.64
50.91
51.56
32.21
1.57
-27.37
-43.56
-42.59
-28.21
-9.27
5.19
10.28
6.16
-3.60
-14.94
-25.51
-35.17
-44.52
-52.59
-56.00
-50.53
-34.31
-10.04
14.80
30.54
29.99
12.71
-13.53
-35.69
-41.44
-25.16
8.64
46.65
72.67
75.16
53.30
17.66
-14.75
-28.66
-17.90
11.50
44.31
63.82
60.35
36.02
3.12
-22.89
-31.52
-21.87
-1.86
17.44
28.24
29.73
26.49
23.87
23.43
21.82
14.15
-1.20
-19.53
-31.14
-26.79
-3.82
30.86
62.93
77.68
67.56
36.33
-2.53
-32.44
-41.81
-29.22
-3.55
21.00
32.14
25.17
3.99
-22.18
-44.04
-56.55
-59.98
-57.97
-54.19
-49.58
-42.35
-30.15
-12.94
5.44
18.27
19.62
7.95
-12.00
-30.77
-38.51
-29.84
-6.59
22.61
46.19
55.19
47.16
26.73
2.24
-18.87
-33.27
-42.27
-49.35
-56.82
-63.21
-63.55
-52.21
-27.05
7.76
42.14
64.09
65.29
45.73
14.39
-14.38
-27.53
-19.74
4.17
32.38
52.58
58.21
50.64
36.45
22.17
10.25
-1.50
-16.76
-35.98
-53.98
-61.35
-49.60
-16.80
29.68
74.80
101.87
99.84
68.63
19.47
-29.83
-62.85
-71.46
-58.20
-33.04
-7.15
12.86
26.68
37.51
47.48
54.48
52.71
37.14
8.40
-25.19
-50.22
-54.57
-33.94
5.46
48.93
79.52
85.30
64.33
24.74
-19.75
-56.59
-79.31
-88.40
-88.18
-82.51
-71.64
-52.95
-24.57
11.02
45.51
67.41
67.81
45.84
10.34
-23.19
-39.73
-31.82
-2.99
33.73
61.80
68.63
51.10
16.12
-23.48
-55.63
-74.06
-79.59
-76.99
-70.60
-61.09
-45.75
-21.93
9.00
39.86
59.63
58.90
35.26
-3.88
-43.85
-69.11
-70.22
-47.80
-11.85
23.19
45.18
49.18
38.43
21.00
4.53
-7.62
-16.96
-26.52
-36.69
-43.01
-38.00
-15.85
22.83
69.31
109.17
128.30
119.10
84.19
35.06
-13.55
-50.26
-71.24
-79.88
-82.14
-81.33
-75.24
-58.04
-25.31
20.55
68.49
102.35
108.26
81.88
32.16
-22.12
-60.51
-70.03
-50.32
-12.63
26.69
54.10
63.82
58.13
43.38
25.27
6.07
-14.86
-38.00
-60.72
-76.48
-77.52
-59.28
-24.19
17.69
52.06
66.54
56.65
28.30
-4.28
-25.07
-23.78
-1.11
31.17
55.85
58.71
35.85
-4.72
-47.61
-77.76
-87.31
-77.85
-57.49
-35.12
-15.90
-0.22
13.52
25.52
32.74
30.30
15.54
-8.52
-32.38
-43.70
-33.02
1.05
49.87
97.59
127.26
128.08
99.67
52.21
2.05
-35.20
-50.90
-46.02
-29.24
-11.70
-1.03
1.26
-1.46
-5.09
-8.61
-15.04
-28.38
-49.05
-71.18
-84.01
-77.55
-48.74
-4.66
39.47
66.97
67.42
41.57
0.31
-40.93
-69.27
-79.41
-74.15
-60.81
-45.84
-30.60
-11.64
15.76
52.34
91.64
121.29
128.73
108.11
64.48
12.19
-31.28
-53.12
-50.31
-29.87
-4.29
14.94
22.49
20.52
15.54
13.16
13.90
12.83
3.55
-16.21
-40.66
-57.70
-55.26
-28.75
14.94
59.87
88.67
90.84
67.28
28.59
-11.05
-40.56
-55.73
-59.17
-56.63
-52.73
-47.94
-38.54
-19.55
11.00
48.55
82.02
98.16
88.31
53.88
6.32
-38.25
-66.86
-75.34
-68.62
-55.77
-43.88
-34.34
-24.11
-10.00
7.21
21.76
25.63
13.30
-14.46
-49.51
-78.91
-89.88
-75.42
-37.90
11.11
55.50
81.89
85.96
73.84
57.42
46.60
43.08
40.03
28.10
3.36
-27.98
-52.21
-56.32
-36.26
0.15
37.27
60.27
62.61
47.88
25.74
5.17
-10.23
-22.58
-36.33
-53.79
-72.76
-87.02
-89.23
-74.18
-41.36
3.89
51.25
88.60
106.24
101.25
79.14
51.12
28.30
15.66
9.49
0.65
-18.40
-46.80
-74.14
-86.08
-73.21
-37.72
6.99
43.75
61.37
60.76
52.93
50.77
59.91
74.86
82.50
70.89
37.21
-9.87
-55.06
-84.68
-93.15
-84.20
-66.98
-49.92
-36.51
-25.15
-11.92
5.60
26.18
45.06
55.82
53.05
34.54
2.67
-35.75
-71.10
-94.37
-100.86
-92.32
-75.85
-59.87
-48.81
-40.40
-27.55
-3.86
30.50
66.93
92.38
96.83
80.19
52.97
30.26
22.46
28.87
38.36
37.15
18.41
-12.48
-40.97
-52.43
-41.10
-13.47
15.85
32.80
31.30
15.16
-5.50
-20.64
-25.18
-20.38
-11.86
-5.82
-5.87
-11.27
-17.84
-20.45
-15.97
-5.41
6.47
13.81
12.99
4.85
-6.06
-14.37
-16.99
-14.68
-10.95
-9.49
-11.91
-16.62
-20.07
-18.96
-12.31
-2.19
6.97
10.77
7.58
0.07
-5.80
-4.24
6.50
22.27
35.01
37.46
27.68
10.49
-5.23
-11.61
-5.90
8.38
23.62
32.00
29.09
15.81
-1.91
-15.69
-18.50
-8.57
9.31
25.89
32.60
27.03
14.72
5.73
7.43
19.03
31.27
32.54
17.24
-9.13
-32.36
-38.22
-21.41
10.67
42.09
57.69
51.60
29.45
3.37
-16.16
-26.18
-31.20
-38.11
-50.00
-63.54
-71.22
-66.73
-49.32
-24.46
-0.85
14.01
16.83
8.72
-6.45
-23.91
-39.04
-47.66
-46.68
-35.40
-16.52
4.25
20.76
29.78
32.69
34.14
38.08
44.01
46.45
38.43
17.32
-11.45
-35.85
-43.73
-30.40
-2.16
26.79
42.63
40.32
26.21
13.30
12.12
23.52
38.08
42.75
30.12
4.18
-21.51
-32.36
-21.79
4.67
32.76
48.23
44.82
26.66
4.04
-13.90
-24.39
-31.02
-39.34
-51.64
-64.71
-71.83
-67.23
-49.71
-23.33
4.47
26.02
35.81
31.62
14.93
-9.17
-32.66
-46.92
-46.09
-30.36
-6.42
15.61
27.82
29.29
26.24
27.28
36.73
50.56
58.41
50.65
25.96
-6.05
-29.69
-32.67
-13.71
16.26
40.76
47.78
36.78
18.24
5.95
7.70
20.38
32.22
30.97
12.08
-18.09
-46.06
-59.48
-54.22
-36.08
-16.67
-5.82
-5.74
-10.44
-10.07
2.14
25.07
49.95
65.15
62.86
43.41
15.15
-10.21
-24.00
-25.11
-19.81
-17.41
-24.19
-39.25
-54.75
-60.30
-49.27
-23.02
9.50
36.31
48.62
45.07
31.37
16.19
5.37
-1.47
-9.62
-24.71
-47.50
-71.73
-86.50
-82.09
-55.99
-15.62
24.53
49.50
51.21
32.28
4.67
-16.48
-20.36
-5.41
20.76
45.86
59.33
57.00
41.92
21.56
3.10
-10.07
-18.52
-24.79
-30.35
-34.01
-32.66
-23.91
-8.71
7.74
18.10
16.50
2.18
-19.47
-38.70
-45.74
-35.63
-10.82
19.80
44.77
55.25
48.69
29.45
6.19
-12.83
-23.37
-26.27
-25.57
-25.11
-25.74
-25.00
-19.18
-6.82
8.95
21.35
23.33
12.00
-8.96
-30.26
-41.19
-35.07
-12.97
16.71
42.06
53.33
47.33
28.26
4.93
-14.33
-25.77
-31.10
-35.10
-41.44
-49.54
-54.52
-50.04
-32.83
-5.88
21.88
39.48
39.46
22.04
-4.43
-27.20
-35.40
-25.39
-2.34
22.61
38.48
40.12
30.53
18.70
13.93
19.89
32.24
40.93
36.31
15.49
-15.03
-41.69
-50.69
-35.34
-0.31
39.99
68.25
72.79
53.37
21.09
-7.71
-20.30
-14.23
1.85
13.84
10.71
-8.62
-34.13
-50.12
-43.95
-13.41
31.32
72.33
92.81
85.14
54.37
15.14
-15.98
-28.46
-22.56
-7.98
1.95
-2.33
-21.70
-48.41
-70.45
-77.66
-66.55
-41.19
-10.28
17.55
37.67
50.21
58.10
63.73
66.60
63.48
50.83
27.96
-1.61
-31.59
-56.29
-73.53
-85.20
-94.82
-103.82
-109.07
-103.53
-80.28
-37.67
17.87
72.79
111.67
124.02
109.20
76.96
42.78
20.24
14.60
20.33
24.73
15.29
-13.00
-54.11
-93.95
-117.32
-115.52
-90.02
-50.81
-10.41
22.51
46.51
65.86
85.61
106.75
124.36
129.85
116.20
82.60
35.98
-12.09
-50.83
-74.83
-85.58
-88.69
-89.06
-87.23
-79.02
-59.07
-26.14
13.75
48.36
64.57
55.20
23.86
-15.28
-43.23
-44.66
-15.16
36.14
89.90
124.66
125.84
91.85
34.31
-27.47
-74.80
-96.90
-93.82
-74.08
-48.93
-26.35
-8.71
5.46
17.44
25.06
23.18
7.79
-19.35
-48.72
-66.49
-61.41
-31.58
13.43
56.74
82.48
83.69
65.34
40.54
22.31
15.99
16.81
13.79
-2.51
-32.81
-66.95
-88.52
-83.33
-47.45
9.54
67.80
105.54
108.12
74.03
14.57
-51.54
-105.75
-136.18
-140.06
-122.10
-90.30
-51.76
-11.02
28.85
63.85
87.65
92.78
74.78
36.20
-11.56
-51.39
-67.48
-52.72
-12.69
36.44
75.49
91.33
82.91
60.40
38.43
27.41
27.74
30.59
24.15
1.68
-33.28
-68.74
-90.76
-90.98
-71.07
-41.09
-13.17
5.49
15.89
25.33
41.34
65.54
91.09
105.18
95.68
58.00
-0.91
-64.37
-112.26
-129.28
-111.26
-66.51
-11.58
36.27
66.28
77.02
73.86
63.50
49.07
29.05
0.87
-34.20
-67.75
-86.35
-78.09
-39.90
18.84
78.67
118.32
124.40
97.34
50.41
2.41
-31.45
-45.71
-45.02
-38.78
-34.16
-31.17
-23.49
-3.56
30.88
73.16
109.54
125.68
114.13
78.47
31.72
-10.66
-38.41
-50.66
-54.58
-59.10
-68.07
-76.77
-74.49
-51.54
-6.39
51.20
102.96
129.91
120.96
77.72
13.24
-54.61
-111.01
-149.13
-170.16
-178.96
-178.63
-167.26
-139.56
-91.58
-25.91
46.38
108.24
142.79
140.11
101.24
37.37
-35.03
-100.36
-148.52
-176.14
-184.66
-176.54
-152.71
-112.56
-56.43
11.22
80.20
136.11
164.92
158.61
119.71
61.52
4.15
-32.93
-38.36
-13.01
31.13
76.74
108.92
120.67
113.23
92.49
63.98
30.20
-8.22
-49.00
-84.96
-104.77
-97.74
-60.20
0.42
66.97
118.79
140.59
128.77
92.17
46.50
6.05
-22.85
-43.13
-62.45
-86.17
-111.96
-130.13
-129.19
-103.21
-56.60
-2.96
41.40
65.53
68.81
60.24
52.05
52.12
59.34
64.62
57.12
31.78
-6.21
-42.89
-62.27
-54.79
-22.75
20.35
56.50
72.06
63.99
39.86
11.99
-10.37
-25.54
-38.49
-55.00
-75.34
-91.66
-91.37
-64.61
-11.18
57.02
119.61
156.08
154.17
114.71
50.55
-19.53
-78.16
-114.85
-127.72
-121.22
-101.84
-74.36
-40.51
-0.55
43.51
85.75
116.24
124.26
103.07
54.27
-11.28
-76.83
-125.72
-147.42
-140.78
-112.89
-74.28
-33.47
6.15
45.44
85.57
123.84
152.14
159.86
139.39
91.74
27.94
-34.77
-80.27
-100.33
-97.25
-80.92
-62.16
-46.46
-31.72
-11.59
18.16
54.55
86.98
102.34
92.54
60.46
19.96
-10.24
-15.69
6.56
46.26
84.80
104.34
95.85
62.21
14.84
-33.38
-74.70
-108.46
-137.86
-164.35
-183.39
-185.07
-159.59
-104.32
-27.94
50.88
110.79
136.89
127.02
91.91
48.86
12.93
-9.56
-22.04
-32.85
-48.09
-66.28
-78.31
-72.76
-43.44
5.41
59.44
100.17
113.58
96.63
58.02
12.85
-25.33
-50.71
-66.10
-78.27
-91.23
-101.65
-99.70
-74.84
-23.36
47.27
119.74
173.89
195.37
181.70
142.36
93.00
47.37
11.45
-17.33
-45.48
-76.89
-108.09
-128.62
-126.63
-96.39
-43.39
16.25
62.34
79.76
65.30
28.34
-14.90
-49.80
-69.65
-76.63
-77.43
-76.73
-73.02
-59.30
-28.39
20.92
80.34
134.10
165.41
163.93
130.67
77.33
20.41
-26.49
-58.26
-79.06
-97.71
-120.89
-147.77
-169.67
-174.93
-156.13
-115.12
-63.07
-15.09
17.23
31.23
33.44
34.61
42.70
58.20
74.16
80.95
72.68
51.28
26.07
8.75
7.26
21.77
45.06
67.08
80.49
84.51
84.58
88.24
99.71
116.39
129.05
126.30
100.48
52.51
-7.69
-65.42
-108.01
-130.64
-137.83
-139.69
-145.17
-156.23
-166.57
-165.85
-146.52
-109.38
-64.15
-24.69
-1.75
2.57
-4.54
-11.53
-9.55
2.37
17.10
24.24
16.97
-3.29
-26.95
-41.39
-37.59
-14.68
20.04
55.62
83.32
100.75
112.02
123.92
140.71
160.91
177.31
180.79
165.32
131.79
88.11
45.60
13.61
-4.66
-12.91
-18.34
-26.67
-37.96
-46.44
-44.30
-27.02
2.77
35.36
58.42
63.08
48.47
22.40
-2.99
-17.67
-19.23
-14.40
-15.47
-33.29
-70.80
-120.60
-168.45
-200.61
-210.84
-202.96
-187.39
-174.19
-166.57
-159.29
-142.80
-110.20
-62.52
-9.21
36.86
66.26
78.00
79.55
81.80
92.51
111.69
131.56
141.13
132.63
106.19
70.39
37.70
17.82
12.56
15.03
13.88
0.18
-27.22
-60.70
-88.41
-101.01
-96.91
-82.59
-68.15
-60.93
-60.99
-61.33
-52.69
-29.44
6.70
47.36
82.16
104.11
112.98
114.86
117.94
127.45
142.33
155.52
157.71
142.53
110.30
68.53
28.23
-1.39
-17.09
-22.28
-23.88
-27.30
-32.74
-34.96
-26.93
-4.91
28.21
63.20
88.77
96.87
86.82
65.30
42.50
26.48
19.01
15.06
6.43
-12.67
-41.25
-70.92
-89.95
-89.56
-69.05
-36.84
-6.55
9.70
7.24
-9.43
-30.08
-45.24
-51.97
-55.25
-64.38
-86.28
-119.81
-154.71
-176.28
-173.05
-143.46
-97.37
-51.35
-20.54
-11.27
-18.98
-32.31
-40.63
-40.11
-35.06
-33.56
-40.92
-54.88
-65.87
-62.34
-37.56
5.85
56.49
99.59
124.16
127.81
117.10
102.83
93.64
91.30
90.44
82.65
62.37
31.24
-1.89
-25.36
-30.72
-17.00
9.14
37.49
59.91
74.38
85.15
98.84
119.40
144.76
167.10
176.76
167.35
139.51
100.92
62.50
32.79
13.78
0.31
-16.25
-42.26
-77.31
-113.71
-140.37
-148.83
-137.63
-112.82
-84.32
-60.32
-43.18
-28.89
-10.67
15.74
48.23
78.08
93.69
86.40
55.26
8.31
-41.10
-80.70
-104.99
-117.20
-126.09
-139.71
-159.62
-179.35
-188.11
-177.48
-146.84
-104.54
-63.59
-34.85
-21.27
-16.89
-10.96
5.28
33.10
65.22
89.89
97.60
86.71
64.82
44.72
37.22
44.93
60.71
71.63
66.50
42.48
7.23
-25.33
-42.83
-41.23
-26.76
-11.75
-7.01
-15.44
-30.55
-40.87
-37.17
-17.78
10.83
38.48
57.54
67.30
73.78
85.30
106.78
136.40
166.05
185.65
188.42
174.35
150.19
125.66
108.13
98.65
91.21
76.09
45.41
-1.91
-58.57
-112.21
-151.59
-172.18
-178.18
-179.26
-184.36
-195.83
-207.90
-210.24
-194.61
-160.37
-115.66
-73.38
-44.35
-31.53
-28.72
-24.59
-9.70
17.53
49.26
72.26
75.10
54.86
19.14
-17.66
-41.99
-47.81
-38.83
-24.93
-15.21
-12.17
-10.14
0.57
26.94
68.11
114.72
153.21
172.48
168.98
147.72
118.45
90.14
66.71
46.36
24.56
-1.54
-29.98
-53.94
-65.30
-59.29
-37.90
-10.00
12.52
20.13
10.38
-10.94
-33.06
-46.22
-47.03
-40.30
-35.86
-42.30
-60.88
-83.76
-97.72
-91.24
-60.90
-13.23
38.68
82.24
111.29
128.09
139.98
153.34
168.28
177.35
168.98
134.05
71.74
-8.10
-88.48
-152.19
-188.92
-198.89
-190.73
-175.22
-158.55
-139.03
-109.54
-64.08
-4.11
59.37
109.75
132.60
123.21
88.99
45.39
7.82
-15.35
-25.30
-29.47
-34.97
-43.14
-48.37
-42.22
-19.51
17.17
57.59
88.56
100.69
93.19
74.38
57.07
51.57
60.13
75.37
84.00
74.02
41.27
-8.03
-60.67
-103.42
-129.65
-141.49
-146.81
-152.70
-160.02
-162.23
-149.67
-116.09
-63.46
-2.27
53.42
92.80
113.30
120.97
125.93
135.65
150.08
161.05
156.47
127.25
73.02
3.69
-64.56
-116.65
-145.09
-152.27
-147.38
-139.90
-133.75
-125.44
-107.40
-74.06
-26.65
25.97
71.35
99.43
107.36
100.39
87.98
78.17
73.14
68.42
56.35
31.57
-4.59
-43.43
-72.64
-82.62
-71.43
-45.96
-18.18
1.07
7.28
3.64
-2.19
-3.39
1.80
9.60
13.78
10.40
0.95
-7.92
-8.11
5.18
30.32
59.41
82.11
90.49
82.75
63.67
41.38
22.51
8.64
-4.13
-21.92
-48.29
-80.70
-110.54
-127.02
-122.57
-96.88
-57.16
-14.67
20.47
43.39
55.28
60.85
64.31
66.40
64.17
53.53
32.94
5.81
-19.92
-35.23
-34.64
-19.29
3.11
21.86
28.26
19.64
0.12
-22.26
-40.14
-50.47
-55.18
-58.59
-63.47
-68.23
-67.27
-54.37
-26.90
11.50
51.55
82.10
94.97
88.73
69.21
46.57
30.50
26.05
31.90
42.15
50.10
52.02
48.64
43.70
40.48
38.77
34.15
20.43
-6.17
-43.42
-82.64
-112.14
-122.59
-111.55
-84.48
-51.76
-23.43
-4.70
5.42
11.77
18.83
27.27
33.42
32.01
20.17
0.46
-19.34
-29.79
-24.76
-4.93
22.07
45.07
54.63
47.17
26.19
-0.18
-23.52
-38.94
-46.33
-48.54
-48.21
-45.21
-36.57
-18.84
8.49
41.15
70.59
87.34
85.14
64.14
31.11
-3.42
-29.90
-43.54
-45.73
-41.89
-37.58
-34.90
-31.60
-23.21
-6.94
15.31
36.81
48.95
46.05
28.95
5.50
-12.99
-17.25
-4.61
19.68
45.15
61.20
61.92
48.20
26.07
2.70
-17.46
-34.22
-49.95
-66.20
-81.02
-89.02
-84.41
-65.13
-35.25
-4.28
17.01
21.69
10.36
-8.89
-24.24
-25.73
-9.75
19.69
53.32
81.12
96.61
98.78
91.00
78.06
63.19
46.91
28.28
7.33
-13.05
-27.47
-30.76
-21.57
-4.49
10.92
14.11
-1.18
-33.08
-71.49
-102.26
-113.60
-101.52
-71.47
-35.49
-6.37
7.93
6.96
-3.57
-15.88
-24.13
-26.49
-24.12
-18.66
-10.18
2.85
21.47
43.81
64.28
75.27
70.94
50.91
21.77
-4.87
-17.25
-8.99
17.65
52.28
80.73
91.15
79.24
49.91
14.75
-13.52
-26.59
-23.72
-11.02
2.44
9.24
6.63
-3.53
-17.26
-31.29
-44.54
-57.28
-69.10
-77.48
-78.49
-69.55
-52.20
-32.83
-20.31
-21.35
-36.21
-57.58
-73.33
-72.49
-50.83
-13.35
27.82
58.99
71.31
64.63
47.26
31.61
28.15
40.54
64.36
89.55
105.54
106.19
92.43
71.10
51.20
39.20
36.15
37.94
38.26
32.48
20.30
5.37
-7.33
-14.75
-17.66
-19.77
-25.09
-34.93
-46.82
-56.12
-59.16
-55.92
-50.37
-48.10
-52.67
-63.15
-74.34
-79.92
-76.52
-66.01
-54.60
-49.01
-52.18
-61.10
-68.27
-66.23
-52.26
-30.31
-9.20
2.51
1.43
-8.36
-17.43
-16.30
-0.85
25.17
51.95
68.84
69.97
57.54
40.65
30.42
34.07
51.04
73.18
89.01
89.71
74.02
49.00
26.42
16.42
22.13
37.84
52.21
54.42
40.42
15.32
-9.24
-21.74
-17.06
0.41
19.23
27.20
18.29
-3.85
-27.96
-41.56
-37.98
-20.25
0.59
11.59
5.31
-15.80
-40.71
-56.06
-53.68
-35.24
-11.39
4.10
2.04
-17.00
-43.14
-62.80
-66.11
-52.12
-28.82
-8.39
-0.23
-5.92
-18.77
-28.06
-25.18
-8.33
16.90
40.87
55.22
57.12
50.21
41.74
38.07
41.08
47.45
51.01
46.46
32.45
12.22
-8.43
-24.23
-32.85
-35.38
-34.96
-34.79
-36.42
-39.41
-42.07
-42.49
-39.26
-31.84
-20.50
-6.41
8.48
21.90
31.88
37.64
39.87
40.15
39.81
38.88
36.20
30.37
21.06
9.70
-1.05
-9.07
-14.13
-18.28
-24.25
-33.34
-43.96
-51.92
-52.76
-44.64
-29.89
-13.82
-1.65
4.73
7.93
13.08
23.98
39.81
55.06
62.94
60.25
50.18
40.72
39.40
47.71
59.17
62.92
50.82
23.48
-9.17
-33.66
-41.32
-33.94
-22.61
-20.43
-33.58
-56.94
-77.08
-80.99
-64.53
-35.21
-7.35
6.96
5.44
-3.43
-6.64
4.24
27.14
50.46
60.36
49.61
22.16
-9.25
-31.11
-37.02
-30.94
-23.63
-24.99
-37.41
-54.47
-65.38
-62.06
-44.10
-18.48
5.16
20.35
26.67
28.68
31.97
39.57
50.73
62.29
70.73
73.47
69.09
57.32
39.75
20.21
4.09
-4.10
-3.95
-0.40
-1.52
-13.28
-34.98
-58.71
-74.01
-74.58
-62.76
-47.92
-39.98
-42.31
-49.40
-50.87
-39.07
-14.81
12.84
32.51
37.96
31.69
22.76
20.41
27.98
41.47
52.71
54.89
46.25
30.23
12.75
-1.33
-10.09
-14.33
-16.31
-18.70
-23.91
-33.45
-46.86
-61.03
-70.74
-70.84
-59.56
-40.29
-20.36
-6.75
-1.55
-0.40
4.58
18.92
41.22
63.13
74.66
70.92
55.96
40.40
34.42
40.81
53.03
59.67
52.21
30.64
3.63
-17.25
-24.76
-19.84
-10.15
-4.77
-8.97
-21.87
-37.95
-50.62
-55.45
-51.46
-40.92
-28.12
-17.83
-13.28
-14.50
-17.94
-18.06
-10.68
3.95
20.58
32.12
34.44
29.49
24.25
25.78
36.23
50.97
61.80
62.44
52.64
38.30
27.46
25.27
31.33
40.45
45.94
43.02
30.90
12.89
-5.16
-17.41
-20.76
-16.76
-11.31
-11.72
-22.23
-40.88
-60.10
-71.31
-70.35
-60.31
-49.41
-45.56
-51.17
-61.81
-69.35
-67.32
-54.74
-36.38
-19.74
-10.85
-11.28
-17.59
-23.53
-23.40
-15.19
-1.66
11.07
17.18
14.80
7.53
2.35
5.27
17.41
34.31
48.79
55.51
53.99
48.48
44.83
46.84
54.32
63.52
69.20
67.17
56.24
39.13
21.47
9.41
6.27
10.28
15.12
13.56
2.02
-16.61
-34.53
-43.74
-40.95
-29.41
-16.74
-10.13
-12.19
-19.78
-26.36
-26.13
-17.49
-4.12
7.03
9.54
1.29
-14.10
-29.07
-36.32
-33.12
-22.85
-12.96
-10.24
-16.70
-28.37
-38.02
-39.66
-31.83
-18.03
-4.42
3.51
3.47
-2.87
-10.91
-15.52
-13.65
-6.20
2.11
5.18
-0.47
-12.90
-25.28
-29.84
-23.11
-8.49
5.69
11.74
7.61
-1.74
-8.01
-5.23
6.59
22.05
34.30
39.29
37.54
33.02
30.29
32.10
38.57
47.45
55.00
57.33
52.16
40.40
26.43
16.19
13.72
18.24
24.28
25.01
16.86
2.33
-11.54
-17.79
-14.07
-4.03
5.26
7.90
2.51
-7.26
-15.34
-16.80
-10.41
0.82
11.12
14.77
8.99
-4.12
-18.51
-27.25
-26.63
-18.65
-9.93
-7.62
-14.84
-28.39
-40.78
-44.96
-38.58
-25.23
-12.00
-5.34
-7.66
-16.44
-26.06
-30.91
-28.27
-19.58
-9.77
-4.55
-7.21
-16.41
-26.86
-32.32
-29.50
-20.06
-9.55
-3.82
-5.35
-11.66
-17.05
-16.05
-6.81
7.74
21.61
29.09
27.75
19.67
10.06
4.17
4.38
9.12
14.09
14.91
9.83
1.03
-6.72
-8.65
-2.88
8.45
20.02
26.30
24.44
15.98
5.79
-0.79
-1.11
3.51
8.66
9.69
4.52
-4.71
-12.93
-14.81
-8.09
4.94
18.35
25.93
24.57
16.00
5.54
-1.17
-1.30
3.84
9.82
11.94
7.96
-0.19
-7.52
-8.84
-2.18
9.62
20.09
23.00
15.93
1.91
-12.24
-19.61
-16.90
-5.91
7.41
16.34
16.89
10.25
1.75
-2.44
0.72
9.37
18.00
20.95
15.70
4.50
-7.00
-12.78
-9.74
0.65
12.95
20.78
20.37
12.86
3.29
-2.57
-1.74
4.58
11.92
15.51
13.11
6.49
0.43
-0.03
7.37
20.34
32.85
38.53
34.25
22.05
8.04
-1.13
-1.80
4.88
13.68
18.32
14.94
4.45
-7.90
-15.55
-14.78
-7.14
1.31
3.54
-4.38
-20.91
-39.86
-53.67
-57.42
-51.29
-40.44
-32.03
-31.12
-37.54
-46.33
-51.08
-47.94
-37.74
-25.18
-15.65
-12.00
-12.80
-13.14
-7.69
6.03
25.66
44.89
56.96
58.51
51.35
41.37
35.07
36.13
43.58
52.50
56.69
52.08
39.09
22.63
9.25
3.36
4.70
8.44
8.05
-1.03
-18.51
-38.87
-54.17
-58.55
-51.80
-39.82
-31.22
-32.16
-42.70
-56.74
-65.69
-63.30
-49.03
-28.18
-8.66
3.46
7.23
6.94
8.78
16.75
30.00
43.35
50.50
47.74
36.21
21.67
11.44
10.16
17.00
25.88
28.94
21.17
3.34
-18.37
-35.55
-42.00
-36.93
-25.16
-14.28
-10.36
-14.56
-22.83
-28.77
-27.64
-19.13
-7.29
2.11
5.02
1.49
-4.39
-7.18
-3.43
6.18
17.15
23.98
23.41
16.27
7.12
1.63
3.25
11.21
20.98
26.84
25.18
16.64
5.86
-1.02
0.03
8.56
19.72
27.07
26.09
16.80
3.83
-6.09
-7.87
-0.99
10.18
18.85
19.73
11.83
-1.00
-12.25
-16.31
-11.74
-2.07
6.44
8.48
2.69
-7.69
-16.97
-20.32
-16.48
-8.40
-1.29
0.59
-3.58
-10.82
-16.36
-16.68
-11.51
-4.01
1.24
1.11
-4.11
-10.82
-14.18
-11.11
-2.24
8.13
14.32
12.55
3.30
-8.88
-17.76
-18.87
-12.00
-1.32
6.89
7.73
0.33
-11.64
-22.17
-26.13
-22.05
-12.82
-3.80
0.19
-2.43
-9.17
-15.21
-16.24
-10.91
-1.64
6.88
10.52
8.09
1.97
-3.35
-4.03
0.86
8.87
15.66
17.59
13.98
7.56
2.81
3.25
9.29
17.88
24.13
24.26
17.94
8.63
1.79
1.58
8.43
18.64
26.46
27.30
20.39
9.37
0.22
-2.19
3.13
12.59
20.10
20.54
12.55
-0.66
-13.12
-19.31
-17.42
-10.43
-4.35
-4.58
-12.99
-26.67
-39.46
-45.22
-41.26
-29.96
-17.28
-9.12
-8.03
-12.00
-15.82
-14.11
-4.44
11.13
26.98
37.08
38.36
32.15
23.10
16.31
14.53
16.70
18.69
16.02
6.79
-6.86
-19.99
-27.65
-27.64
-21.59
-13.84
-8.57
-7.16
-7.42
-5.11
2.96
16.55
31.57
41.94
42.99
34.15
19.56
5.98
-0.84
0.58
6.69
10.93
7.52
-5.20
-23.53
-40.43
-49.22
-47.21
-37.19
-25.61
-18.78
-19.35
-24.98
-30.01
-28.96
-19.77
-5.12
9.12
17.29
17.17
11.08
4.35
2.19
6.96
16.93
27.23
32.64
30.81
23.47
15.21
10.87
12.80
19.63
26.84
29.37
24.73
14.66
3.93
-2.47
-2.09
3.67
10.39
13.05
9.11
0.19
-9.06
-13.86
-12.09
-5.36
2.03
5.39
2.46
-5.08
-12.69
-15.82
-12.71
-5.15
2.64
6.25
3.57
-3.77
-11.39
-14.95
-12.66
-6.26
0.23
2.66
-0.76
-8.25
-15.31
-17.48
-13.12
-4.51
3.53
6.27
1.87
-7.36
-15.97
-18.61
-13.36
-3.05
6.42
9.47
3.98
-7.28
-18.05
-22.23
-17.59
-7.20
2.44
5.29
-0.88
-13.11
-24.87
-29.72
-25.10
-13.83
-2.47
2.60
-1.34
-11.93
-23.11
-28.49
-24.85
-14.03
-1.69
5.94
5.67
-1.03
-9.10
-12.88
-9.25
0.62
11.96
19.26
19.66
14.46
8.18
5.73
9.60
18.47
27.89
32.97
31.37
24.71
17.40
13.96
16.46
23.43
30.67
33.65
30.23
22.09
13.54
8.85
9.87
15.05
20.50
21.85
16.86
6.96
-3.70
-10.83
-12.42
-9.65
-6.08
-5.88
-11.17
-20.55
-29.94
-35.17
-34.24
-28.30
-20.84
-15.84
-15.27
-17.87
-20.17
-18.84
-12.59
-2.92
6.70
12.76
13.78
11.19
8.34
8.70
13.90
22.81
32.03
37.59
37.07
30.93
22.28
15.35
13.32
16.41
21.76
24.94
22.53
14.23
3.11
-5.98
-9.35
-6.78
-1.83
0.09
-4.91
-16.61
-30.67
-40.87
-42.72
-36.22
-26.14
-19.28
-20.46
-29.66
-42.14
-50.95
-51.04
-42.15
-29.11
-18.83
-16.33
-21.85
-30.77
-36.26
-33.38
-21.98
-6.91
4.97
8.64
3.98
-4.22
-9.23
-6.53
3.48
15.67
23.34
22.37
14.12
4.53
0.52
5.68
18.24
31.90
39.51
37.32
27.11
15.07
7.95
9.37
18.12
29.07
36.23
36.23
29.99
21.91
17.06
18.37
25.03
32.95
37.15
34.51
25.65
14.35
5.54
2.63
5.57
10.73
13.19
9.49
-0.42
-12.99
-22.81
-25.84
-21.80
-14.44
-9.21
-10.27
-18.00
-28.36
-35.20
-34.10
-25.27
-13.46
-5.35
-5.89
-15.00
-27.24
-35.11
-33.65
-23.23
-9.19
0.88
1.76
-5.92
-16.34
-22.12
-18.43
-5.72
10.31
22.08
24.73
18.50
8.06
-0.31
-2.35
1.70
7.48
9.77
5.60
-4.03
-14.28
-19.31
-15.60
-4.15
10.16
21.17
24.60
20.56
13.45
9.15
11.60
20.57
31.72
39.04
38.30
29.58
16.89
5.98
1.28
3.77
10.85
18.16
22.21
21.97
18.98
16.10
15.38
16.58
17.22
14.17
5.74
-6.68
-18.50
-24.24
-20.30
-7.08
11.01
27.44
36.77
37.19
30.87
22.36
15.81
12.90
12.15
10.33
4.63
-5.28
-16.84
-25.82
-28.69
-24.79
-16.95
-10.23
-8.93
-13.96
-22.30
-28.64
-28.60
-21.57
-11.34
-3.78
-3.37
-10.82
-22.29
-31.73
-34.38
-29.43
-20.15
-11.97
-9.47
-13.51
-20.82
-25.91
-24.40
-15.25
-1.74
10.43
16.44
15.09
9.32
4.51
5.25
12.67
23.66
32.83
35.49
30.36
20.48
11.48
8.40
12.66
20.99
26.96
24.71
12.45
-5.94
-22.81
-30.83
-27.53
-17.35
-9.51
-13.16
-32.08
-62.34
-94.17
-117.74
-128.57
-129.84
-130.01
-137.33
-154.05
-174.60
-188.80
-187.96
-169.83
-140.16
-109.11
-84.88
-69.02
-56.02
-37.27
-6.81
34.29
78.09
114.11
134.67
138.64
132.11
124.43
123.29
130.90
143.53
153.87
155.91
148.79
137.41
129.75
132.40
146.39
166.03
182.04
186.36
176.41
156.81
136.43
123.09
118.80
118.78
114.03
97.28
67.99
33.56
5.63
-6.21
0.03
16.66
30.61
30.39
12.35
-16.72
-43.67
-56.46
-51.19
-34.04
-18.03
-15.10
-29.14
-53.66
-75.56
-82.72
-71.05
-47.63
-26.71
-22.08
-39.40
-72.55
-107.17
-128.48
-129.51
-114.80
-97.51
-91.11
-101.18
-121.78
-138.81
-138.56
-115.91
-78.17
-40.88
-19.36
-19.87
-35.80
-51.58
-51.30
-27.70
13.82
58.15
88.91
97.12
85.88
67.92
57.89
63.78
82.20
101.04
106.92
93.77
67.24
41.55
31.37
43.27
71.23
99.68
111.81
98.41
63.00
19.68
-14.76
-29.88
-26.57
-15.64
-10.63
-19.26
-38.59
-56.91
-60.97
-44.33
-12.40
20.23
37.58
31.23
5.58
-24.72
-43.12
-40.62
-20.70
2.87
14.56
6.44
-17.23
-42.48
-54.29
-45.45
-21.29
3.68
14.09
2.59
-25.74
-56.68
-75.03
-73.07
-54.59
-32.20
-19.45
-23.21
-39.67
-57.22
-63.64
-53.58
-32.04
-11.29
-3.64
-13.79
-35.37
-54.41
-57.14
-38.11
-3.69
30.96
49.96
45.16
20.57
-10.16
-31.62
-35.20
-23.72
-9.14
-4.85
-17.07
-40.70
-62.08
-67.50
-51.71
-21.95
5.74
15.30
-0.14
-34.03
-70.50
-93.32
-94.92
-80.32
-63.42
-58.17
-70.48
-94.72
-117.66
-126.72
-117.48
-96.27
-76.05
-68.45
-76.73
-93.69
-105.95
-101.89
-78.54
-42.86
-7.84
15.01
21.94
18.33
14.74
20.13
36.49
57.72
73.98
77.89
69.15
55.39
47.47
52.89
71.52
95.44
113.02
115.88
103.39
82.64
64.56
57.41
62.02
72.12
78.26
73.47
57.62
37.25
21.14
15.42
20.01
28.99
34.93
33.19
24.58
15.24
12.59
21.04
39.92
63.56
84.60
98.36
104.84
108.71
116.29
131.45
152.97
175.14
190.01
191.98
181.31
164.01
149.43
145.01
151.68
162.66
166.49
152.49
117.03
66.48
14.36
-24.95
-43.57
-44.79
-41.01
-47.02
-71.85
-112.98
-158.16
-192.64
-207.49
-205.37
-198.64
-201.47
-221.25
-253.49
-284.51
-299.88
-293.02
-268.89
-240.90
-222.22
-217.62
-221.15
-219.89
-202.44
-165.87
-117.32
-69.98
-35.48
-17.56
-10.78
-4.04
12.57
42.18
79.69
114.97
138.63
147.33
145.53
142.41
146.35
160.34
180.23
197.70
205.18
200.24
187.08
173.65
167.06
169.71
178.25
185.86
186.60
178.83
166.17
155.31
151.67
155.69
162.21
162.52
149.46
121.95
86.01
52.65
31.73
26.21
29.91
29.90
13.15
-25.97
-81.76
-139.30
-181.52
-198.28
-191.91
-175.68
-167.08
-178.09
-208.51
-246.90
-277.59
-289.66
-283.58
-269.72
-261.03
-264.68
-276.91
-285.60
-278.16
-249.44
-204.85
-157.46
-119.69
-96.09
-81.30
-63.42
-31.98
15.67
72.71
126.32
164.52
182.41
184.19
180.18
180.96
191.42
208.21
222.24
223.85
208.68
180.78
150.25
127.82
119.09
121.04
124.19
118.00
97.02
64.54
30.71
7.04
-0.30
6.12
16.25
18.44
6.30
-17.50
-42.65
-57.09
-54.41
-37.83
-18.31
-8.36
-14.25
-31.94
-49.47
-53.90
-39.20
-10.37
19.68
37.41
36.42
21.40
4.58
-1.57
8.24
28.82
48.19
54.87
44.61
23.36
3.14
-4.82
3.55
22.68
41.12
48.34
40.59
23.30
7.28
2.43
12.17
31.39
49.63
57.23
50.55
34.28
18.36
12.17
19.26
34.77
47.84
47.69
29.51
-1.98
-34.58
-54.98
-55.73
-40.09
-20.80
-13.27
-27.32
-61.04
-101.30
-130.97
-138.15
-123.33
-99.36
-83.88
-89.38
-115.36
-148.26
-169.29
-165.27
-136.58
-97.70
-68.94
-65.01
-86.33
-118.55
-140.87
-137.79
-108.03
-65.34
-30.05
-17.20
-27.56
-47.41
-57.04
-42.63
-4.55
42.68
79.47
92.63
83.15
65.24
57.17
70.36
102.58
139.27
162.69
161.99
139.42
108.45
85.43
80.29
91.39
107.10
113.55
102.58
76.37
45.45
21.85
12.20
14.21
18.52
15.11
-0.90
-26.02
-50.87
-66.01
-67.07
-57.21
-44.87
-38.32
-41.14
-49.72
-55.94
-52.19
-35.73
-10.76
13.79
29.45
32.36
25.76
17.44
14.99
21.61
34.09
45.06
47.84
40.24
26.51
14.37
10.50
16.72
28.64
38.45
39.58
30.38
15.42
2.54
-1.72
4.12
15.20
23.36
21.95
9.91
-6.67
-18.04
-16.29
-0.21
23.23
42.26
46.71
33.51
8.74
-15.70
-28.85
-26.33
-12.41
2.75
9.38
3.42
-11.33
-26.01
-32.29
-27.27
-14.99
-3.93
-1.68
-10.31
-24.79
-35.91
-35.56
-21.54
0.87
21.84
32.39
29.48
18.05
7.80
7.83
21.25
43.11
63.26
72.00
65.64
48.79
31.78
24.74
31.82
49.05
66.78
75.46
71.28
57.89
43.99
37.68
41.23
50.20
56.06
51.81
36.67
16.79
1.88
-0.74
9.22
24.83
35.41
32.67
15.50
-9.30
-30.82
-40.37
-36.08
-23.57
-12.72
-11.53
-21.88
-38.68
-53.29
-59.04
-55.15
-47.00
-42.97
-48.99
-64.66
-82.97
-94.00
-90.38
-71.68
-44.94
-21.03
-8.93
-10.90
-21.35
-30.39
-29.38
-15.81
5.40
25.19
35.69
34.83
27.50
22.57
27.53
44.09
67.49
89.34
102.47
105.11
101.22
97.73
99.63
106.32
112.05
108.69
90.89
59.46
21.39
-13.62
-38.37
-51.72
-58.86
-68.38
-87.09
-116.15
-149.81
-178.24
-192.83
-190.72
-177.34
-163.76
-161.30
-175.38
-201.81
-228.84
-242.88
-236.16
-211.16
-178.85
-152.57
-139.89
-138.27
-136.75
-123.22
-92.42
-49.46
-7.57
19.62
26.01
16.61
4.87
4.97
23.96
57.96
94.45
119.84
127.01
119.79
110.41
112.37
132.71
167.35
203.86
228.25
233.06
221.39
204.24
193.98
196.81
209.67
222.77
225.87
214.68
192.78
169.18
152.15
144.22
141.25
134.96
118.45
90.19
55.00
21.07
-4.78
-20.87
-31.98
-46.55
-71.86
-109.85
-155.01
-196.99
-225.61
-236.11
-231.89
-222.38
-217.88
-223.42
-235.66
-244.57
-239.26
-214.64
-174.69
-130.85
-95.90
-76.93
-71.48
-69.13
-57.64
-30.44
9.14
49.46
76.88
83.74
73.08
56.56
47.80
54.31
73.01
92.56
100.49
91.02
68.68
45.62
34.18
39.35
55.81
70.89
72.13
54.40
23.14
-8.55
-27.12
-26.18
-10.48
6.66
10.47
-6.84
-41.27
-79.15
-104.90
-109.85
-97.18
-79.81
-72.34
-82.15
-104.26
-124.52
-127.81
-106.98
-67.55
-24.28
7.01
18.55
14.32
7.19
10.66
30.64
62.40
93.22
110.53
109.23
94.66
79.13
74.54
85.63
107.29
128.24
138.01
133.13
119.17
107.24
107.36
122.43
146.89
169.84
181.32
177.91
164.36
150.38
144.52
149.28
159.90
167.47
164.43
148.79
125.08
100.94
82.58
70.97
61.57
47.23
22.60
-12.42
-52.47
-89.39
-116.94
-134.08
-145.51
-159.25
-181.62
-213.48
-248.60
-276.50
-287.75
-279.29
-257.04
-233.06
-219.89
-223.40
-239.42
-255.58
-258.15
-240.38
-206.31
-169.11
-143.07
-135.08
-140.03
-143.92
-132.47
-100.00
-53.52
-8.52
20.31
27.78
21.54
17.33
29.44
62.11
107.21
149.09
173.72
176.78
165.71
154.99
157.28
176.12
204.18
227.71
234.79
221.96
196.06
169.71
154.12
153.21
161.79
169.65
167.60
153.14
131.24
111.19
100.86
102.02
109.85
115.53
111.90
96.84
74.38
51.18
32.21
17.48
1.71
-21.62
-56.19
-99.28
-142.59
-175.86
-192.69
-194.46
-189.63
-190.13
-204.51
-233.24
-267.28
-292.55
-296.84
-276.33
-238.21
-196.62
-165.79
-151.85
-150.21
-148.46
-134.34
-103.37
-61.46
-21.65
4.29
12.69
11.08
13.17
30.99
67.34
113.94
156.17
181.36
186.28
178.52
172.37
179.95
204.68
239.21
270.04
285.16
280.58
261.95
240.00
224.15
216.61
212.05
201.57
178.95
144.79
106.15
72.11
48.05
32.75
18.73
-2.78
-36.64
-80.52
-125.42
-160.24
-177.45
-177.40
-167.90
-160.66
-164.89
-182.57
-207.38
-228.35
-236.06
-227.98
-210.37
-194.46
-190.50
-201.31
-220.51
-236.07
-237.48
-222.16
-197.09
-174.71
-165.16
-169.71
-179.05
-178.56
-156.81
-112.81
-57.18
-6.77
24.69
33.96
29.63
26.63
37.19
63.93
98.55
127.19
138.50
130.43
111.26
94.46
90.88
102.56
121.91
136.58
136.90
121.27
97.15
76.45
68.82
76.39
92.63
106.56
109.06
98.36
80.95
67.58
66.62
78.61
95.63
105.63
99.70
77.54
48.10
24.42
15.86
22.58
35.39
41.37
31.57
6.58
-23.98
-46.90
-53.08
-42.52
-23.87
-9.22
-6.69
-15.71
-27.16
-29.00
-13.51
17.84
54.51
82.67
92.70
84.93
69.08
58.82
63.50
83.28
108.85
127.61
130.64
118.02
98.17
82.77
80.11
90.51
107.21
120.32
123.13
115.39
102.84
92.59
88.40
87.64
83.22
67.50
37.40
-3.25
-45.37
-79.59
-101.30
-113.21
-123.95
-143.07
-175.58
-218.41
-261.40
-291.87
-301.08
-288.42
-261.98
-234.18
-215.37
-208.16
-206.28
-198.66
-176.52
-139.13
-94.51
-54.74
-28.47
-15.20
-5.36
13.72
49.61
99.56
151.67
191.76
211.26
212.12
204.51
199.82
203.29
210.85
212.01
196.86
162.29
114.14
64.05
23.13
-4.04
-21.28
-38.35
-65.08
-105.70
-155.73
-203.62
-235.70
-243.00
-225.50
-192.73
-158.43
-133.87
-121.36
-113.74
-98.71
-66.64
-16.40
42.88
97.26
135.09
153.58
158.70
160.57
165.97
173.94
176.13
162.64
128.69
78.30
22.92
-24.61
-56.90
-75.49
-89.51
-109.46
-140.45
-177.96
-209.68
-221.48
-205.17
-162.96
-106.73
-51.79
-9.30
19.11
40.62
65.37
99.40
140.52
179.31
205.14
212.41
203.83
187.93
173.11
161.85
148.72
123.79
79.13
14.79
-59.48
-127.66
-174.63
-193.26
-187.24
-168.59
-150.49
-140.29
-135.48
-126.08
-101.22
-56.30
3.38
64.93
114.49
144.23
155.90
158.32
160.89
167.02
171.74
164.58
136.45
85.82
20.84
-43.92
-94.62
-124.86
-138.34
-146.03
-159.24
-182.75
-211.31
-232.29
-232.27
-204.61
-153.25
-91.07
-33.06
10.86
40.61
64.30
91.97
128.70
171.12
209.06
231.89
234.73
221.23
200.79
182.41
168.65
154.12
128.69
84.36
21.15
-51.24
-117.14
-161.82
-178.42
-170.46
-149.42
-127.81
-112.78
-102.34
-87.79
-59.69
-14.47
42.71
99.74
143.90
167.84
172.82
166.40
157.00
148.01
135.96
112.61
70.98
10.67
-60.14
-127.50
-177.76
-204.08
-209.24
-204.15
-201.82
-210.41
-228.45
-246.00
-249.82
-231.38
-191.74
-141.80
-95.92
-64.25
-46.80
-34.24
-14.34
19.70
64.77
109.35
140.89
153.82
152.84
149.74
155.83
174.59
199.89
219.99
224.86
212.15
187.98
162.66
144.20
133.60
124.65
107.92
76.41
29.64
-25.33
-77.13
-115.61
-136.85
-144.94
-149.86
-161.59
-184.20
-212.36
-233.64
-234.95
-210.08
-163.43
-108.11
-58.66
-23.13
0.83
23.34
55.01
99.55
150.92
196.62
224.80
230.76
218.96
199.38
181.22
167.43
153.43
130.58
92.31
38.85
-21.89
-77.74
-118.72
-142.15
-153.94
-164.60
-182.72
-209.05
-234.95
-246.32
-231.15
-186.75
-121.76
-52.48
5.10
42.59
62.40
74.71
90.30
113.96
141.91
164.16
170.84
157.66
128.62
93.28
61.32
36.84
17.01
-5.49
-36.32
-74.62
-111.39
-133.48
-130.42
-100.38
-51.94
-0.23
40.47
63.48
72.07
75.92
84.53
100.78
119.05
128.59
119.68
89.58
44.01
-5.79
-49.20
-81.32
-104.71
-126.34
-152.06
-181.37
-206.42
-215.37
-198.82
-155.67
-94.42
-29.67
24.87
62.66
86.29
104.53
125.72
152.23
178.90
196.17
196.09
176.73
143.54
106.03
72.37
45.03
19.99
-10.23
-51.54
-103.78
-159.12
-204.64
-228.14
-224.16
-196.78
-157.65
-119.58
-89.74
-66.02
-39.64
-1.89
48.92
105.13
153.31
181.75
187.31
176.55
161.27
150.81
146.35
140.11
120.45
79.28
17.87
-52.71
-116.05
-158.38
-174.72
-170.76
-158.34
-148.59
-145.02
-141.94
-128.20
-94.76
-40.98
23.79
84.46
128.05
149.40
152.88
147.82
142.07
136.77
126.66
103.84
64.13
10.88
-45.24
-91.30
-118.54
-126.85
-124.61
-123.78
-133.16
-152.76
-173.62
-182.24
-168.07
-129.34
-74.59
-17.60
29.03
60.62
81.27
100.16
124.92
156.89
190.02
214.87
224.20
216.72
197.34
173.01
148.18
121.52
87.49
40.16
-21.54
-91.20
-155.97
-202.23
-221.83
-216.19
-195.81
-174.67
-163.22
-162.32
-163.47
-153.63
-123.30
-72.11
-9.88
49.25
93.63
120.27
134.95
147.65
165.91
190.23
214.44
229.53
229.72
215.58
193.56
171.27
152.78
135.73
112.80
76.27
23.19
-41.51
-106.13
-157.48
-187.52
-197.33
-196.81
-198.82
-212.15
-236.20
-261.00
-272.84
-262.25
-229.56
-185.00
-142.98
-114.00
-98.34
-86.36
-64.45
-23.64
34.40
97.82
151.06
183.39
194.97
196.09
200.48
217.00
244.49
272.84
289.49
287.09
267.50
240.20
215.94
200.32
190.90
179.51
157.67
122.14
76.96
31.21
-5.85
-29.85
-43.44
-54.48
-71.38
-98.23
-132.01
-163.92
-183.96
-186.57
-174.18
-156.54
-145.87
-150.44
-169.52
-193.45
-209.21
-207.98
-190.49
-167.09
-151.92
-154.48
-173.63
-197.55
-210.34
-201.35
-171.75
-133.87
-104.35
-93.99
-101.39
-113.57
-113.78
-91.54
-48.64
1.82
43.52
66.24
72.04
73.40
85.59
117.31
165.48
217.07
256.65
275.24
274.50
265.41
260.77
267.72
283.54
297.98
299.51
282.10
248.76
208.92
173.02
146.15
125.91
104.27
73.34
30.78
-18.56
-64.75
-98.51
-116.29
-122.71
-127.61
-140.64
-165.61
-197.53
-225.37
-237.80
-230.21
-207.31
-181.46
-165.77
-166.87
-181.55
-198.36
-204.52
-193.22
-167.96
-140.05
-122.28
-121.11
-132.01
-142.16
-137.52
-111.76
-70.27
-27.93
-0.62
4.19
-8.34
-23.03
-23.94
-3.61
32.36
69.13
91.60
93.38
80.92
69.16
72.73
97.21
136.05
174.55
198.24
201.10
188.21
172.29
165.83
174.00
192.18
209.13
214.36
204.09
183.43
162.62
150.78
150.57
156.88
160.59
153.90
134.92
108.12
80.95
59.12
43.03
27.61
5.38
-28.54
-73.20
-121.14
-161.81
-186.96
-195.29
-193.35
-192.05
-200.81
-221.54
-247.00
-264.13
-261.43
-235.65
-194.31
-152.16
-123.13
-112.51
-113.70
-112.52
-95.54
-58.34
-8.16
40.31
73.83
88.47
91.60
96.93
115.74
149.84
190.34
223.00
236.41
228.04
204.76
177.61
154.87
136.77
115.89
82.38
30.88
-34.58
-100.91
-151.90
-176.33
-173.75
-154.38
-133.39
-122.27
-122.50
-125.30
-117.43
-89.61
-42.47
13.54
63.86
97.70
113.20
116.75
117.56
121.02
125.13
121.62
101.59
61.52
6.72
-49.85
-93.94
-116.59
-118.98
-111.08
-105.92
-111.79
-127.02
-140.75
-139.06
-113.18
-65.00
-6.38
47.01
84.06
103.44
112.70
122.20
137.41
155.32
165.59
157.18
125.20
74.42
17.74
-30.60
-61.89
-77.25
-86.28
-100.69
-127.17
-162.53
-194.57
-208.51
-194.66
-154.06
-97.56
-40.57
4.95
35.97
57.60
78.23
102.49
127.61
144.49
143.43
120.51
80.51
35.23
-2.72
-26.55
-38.03
-46.08
-60.55
-85.75
-117.02
-142.22
-148.52
-129.28
-88.54
-39.16
3.75
30.62
42.47
49.12
62.58
89.34
126.01
161.49
183.19
184.23
166.83
139.70
111.99
87.42
62.42
29.25
-17.95
-77.82
-140.60
-191.60
-218.03
-215.46
-189.67
-154.03
-122.19
-101.40
-89.21
-75.69
-50.33
-8.67
44.07
96.01
135.01
155.26
160.30
159.92
163.74
175.47
190.89
201.29
199.09
182.70
157.47
131.93
112.40
98.78
84.45
60.20
19.86
-35.38
-96.50
-150.60
-186.88
-202.08
-201.41
-195.73
-195.05
-202.75
-213.68
-216.87
-202.20
-166.37
-115.41
-61.53
-16.49
14.52
35.36
55.65
84.12
122.97
165.94
202.24
222.44
223.58
210.35
191.02
172.11
154.13
131.66
97.28
46.99
-16.02
-81.33
-135.76
-169.43
-180.84
-177.25
-170.95
-172.41
-184.30
-199.92
-206.82
-194.19
-159.32
-109.79
-59.38
-20.34
3.26
17.48
33.87
61.75
102.19
146.80
182.92
200.59
197.67
180.24
157.58
135.98
114.93
88.06
48.29
-6.48
-69.87
-128.70
-168.52
-180.22
-164.37
-130.36
-91.43
-57.91
-32.57
-11.00
13.90
45.79
81.17
110.32
122.35
111.27
79.85
38.44
-0.17
-27.18
-41.47
-48.81
-57.06
-70.19
-84.91
-92.05
-81.69
-49.49
-0.03
54.62
100.50
128.12
136.29
130.83
119.58
106.90
91.11
66.08
26.19
-28.71
-91.01
-147.53
-185.08
-196.58
-184.08
-157.36
-128.29
-104.53
-85.59
-64.21
-31.79
15.12
71.48
125.62
165.12
183.21
181.81
169.53
155.55
143.85
130.74
107.44
66.21
6.12
-64.36
-130.04
-175.48
-192.01
-181.31
-153.95
-123.33
-98.68
-80.62
-62.11
-34.25
7.17
57.79
106.15
139.62
150.73
140.77
118.56
94.43
74.48
57.27
35.78
3.02
-42.08
-91.82
-132.32
-150.31
-140.06
-107.01
-65.09
-29.50
-8.64
0.01
7.24
24.79
57.41
99.26
137.22
158.30
156.89
137.54
111.37
88.71
72.79
58.09
34.48
-5.99
-63.03
-126.81
-181.70
-213.33
-215.09
-190.64
-151.53
-111.11
-77.96
-52.56
-28.80
1.01
40.06
84.40
124.44
150.16
156.59
146.26
127.02
106.97
89.35
71.23
46.06
8.92
-38.73
-87.94
-125.42
-139.37
-125.38
-88.33
-40.18
5.95
41.50
65.43
81.80
95.24
105.72
107.77
93.34
57.49
3.62
-56.27
-106.16
-133.06
-133.55
-114.42
-88.89
-69.10
-59.94
-57.67
-53.44
-39.46
-14.68
14.88
39.33
51.02
49.39
40.63
34.07
36.25
46.90
59.76
66.22
60.85
44.60
23.96
7.44
0.72
3.64
11.07
15.80
12.67
1.63
-12.93
-24.58
-28.42
-24.01
-14.96
-7.18
-5.37
-10.09
-17.95
-23.63
-22.91
-15.71
-5.81
1.22
1.32
-5.08
-13.65
-18.56
-15.93
-6.50
4.96
12.42
11.98
4.43
-5.53
-12.26
-12.27
-6.36
1.22
5.49
3.49
-3.76
-12.11
-16.88
-15.44
-8.74
-0.66
4.40
3.89
-1.28
-7.26
-9.78
-6.35
2.00
11.37
17.24
16.96
11.31
4.32
0.56
2.72
9.96
18.26
22.89
21.15
13.73
4.60
-1.57
-2.23
1.84
6.79
8.26
4.22
-3.89
-11.81
-15.01
-11.68
-3.74
4.16
7.36
4.06
-3.60
-10.96
-13.33
-8.85
0.51
10.15
15.37
14.03
7.63
0.27
-3.83
-2.63
2.44
7.47
8.37
3.44
-5.48
-13.91
-17.36
-14.01
-6.04
1.36
3.05
-3.10
-14.67
-26.01
-31.43
-28.29
-18.39
-6.83
1.24
3.30
0.81
-2.05
-1.23
4.76
13.95
22.32
26.27
24.71
19.89
16.05
16.69
22.73
31.52
38.40
39.22
32.57
20.76
8.73
0.94
-1.02
0.25
-0.77
-9.11
-26.04
-47.83
-66.70
-75.09
-69.68
-53.20
-33.39
-18.37
-12.12
-12.48
-12.67
-5.78
10.66
32.82
52.91
63.61
62.40
52.68
41.15
33.32
30.21
27.66
19.46
1.87
-23.59
-49.97
-68.17
-71.95
-60.99
-41.01
-20.89
-7.58
-2.38
-1.32
2.52
14.13
33.05
53.72
68.18
70.64
60.91
44.31
27.95
17.07
11.51
6.26
-4.67
-24.57
-50.93
-75.97
-90.84
-90.27
-75.14
-52.77
-32.40
-20.15
-16.16
-14.46
-7.10
10.37
36.21
63.02
81.59
86.45
78.87
65.24
53.82
49.31
50.26
50.62
43.45
25.44
-0.44
-26.47
-44.77
-50.88
-46.80
-39.32
-35.58
-39.32
-48.57
-56.53
-56.05
-44.10
-23.13
-0.63
15.44
21.11
17.93
11.61
8.49
11.12
17.11
21.00
17.53
5.39
-11.34
-25.81
-31.88
-27.47
-16.05
-4.25
1.99
0.33
-6.55
-12.61
-12.64
-4.81
7.92
19.36
23.80
19.35
8.64
-2.44
-8.06
-6.11
1.25
8.98
11.97
8.43
1.04
-5.26
-5.86
0.68
11.24
20.56
24.06
20.26
11.81
3.80
0.15
1.83
6.27
8.63
5.42
-3.45
-14.74
-23.28
-24.89
-19.26
-9.58
-0.94
2.23
-0.87
-7.13
-11.82
-11.00
-3.95
6.00
14.08
16.56
12.71
5.57
-0.15
-1.32
2.24
7.39
9.47
5.74
-3.07
-13.21
-19.60
-18.89
-11.68
-1.64
6.07
7.69
3.28
-3.49
-7.90
-6.44
0.81
9.96
16.13
15.90
9.25
-0.13
-7.18
-8.74
-4.84
1.04
4.00
1.20
-6.60
-15.50
-20.43
-18.19
-9.65
1.22
9.27
11.09
7.18
1.40
-1.61
0.89
7.92
15.15
17.87
13.57
3.67
-7.15
-13.63
-13.03
-6.47
1.61
6.16
4.61
-1.65
-8.15
-9.92
-4.87
5.01
14.64
18.43
13.59
2.07
-10.78
-18.81
-18.28
-10.30
0.28
7.72
8.49
3.32
-3.30
-6.20
-2.92
5.25
13.46
16.31
11.21
0.01
-12.21
-19.38
-18.09
-9.76
0.77
7.91
8.32
3.14
-2.96
-4.96
-0.65
8.24
16.38
18.40
12.10
-0.19
-12.83
-19.58
-17.44
-8.29
2.63
9.64
9.77
4.57
-1.08
-2.29
2.99
12.76
21.71
24.68
19.72
9.15
-1.92
-8.12
-7.31
-1.72
3.85
4.83
-0.43
-9.28
-16.36
-16.93
-9.43
3.59
16.36
23.30
22.00
14.21
4.54
-1.85
-2.64
0.34
2.89
0.94
-6.81
-17.51
-25.70
-26.80
-19.65
-7.23
4.43
9.83
7.23
-0.67
-8.55
-11.39
-7.65
-0.32
5.25
4.56
-3.38
-15.09
-24.29
-25.75
-18.12
-4.68
8.33
15.09
13.61
6.58
-0.84
-4.02
-1.66
3.42
6.40
3.84
-4.14
-13.70
-19.31
-16.98
-6.65
7.61
19.73
24.61
20.80
11.18
1.20
-4.26
-3.57
0.75
3.92
2.17
-4.68
-12.98
-17.29
-14.02
-3.89
8.38
16.63
16.54
8.14
-4.20
-14.32
-17.62
-12.97
-3.24
6.32
11.17
9.95
5.00
0.70
1.07
6.84
14.33
17.46
11.33
-4.57
-25.34
-42.52
-48.55
-40.96
-23.36
-2.90
13.59
23.27
28.14
32.32
38.03
43.39
43.30
32.48
9.53
-20.75
-48.97
-65.13
-63.43
-44.53
-15.43
14.24
36.88
50.21
57.14
62.56
69.35
75.11
72.68
54.53
18.35
-29.72
-75.90
-104.38
-104.84
-77.71
-33.54
12.63
48.30
68.73
77.18
80.07
81.08
78.27
65.74
38.07
-4.41
-53.41
-95.69
-119.08
-118.15
-96.45
-64.58
-34.67
-14.40
-3.94
2.57
12.68
30.77
54.69
76.56
87.26
81.52
60.87
32.95
7.32
-9.85
-19.36
-27.77
-42.79
-67.79
-98.79
-125.40
-136.38
-126.16
-98.23
-63.16
-32.82
-14.12
-5.27
2.20
17.32
43.59
76.84
107.65
126.68
129.94
120.67
106.46
93.91
84.73
75.17
58.69
30.70
-7.69
-48.66
-81.34
-96.42
-90.49
-67.53
-36.82
-8.25
12.55
25.82
36.34
49.07
65.07
79.54
83.85
70.18
36.11
-12.77
-64.56
-105.91
-127.94
-129.60
-117.13
-99.77
-84.05
-70.28
-53.17
-26.41
11.65
54.91
91.17
107.84
98.57
67.32
26.25
-10.58
-34.40
-45.60
-52.13
-63.28
-82.85
-105.90
-120.67
-115.33
-84.91
-34.78
21.73
69.80
100.03
112.01
112.08
107.69
101.59
90.30
67.18
28.47
-21.91
-71.75
-105.56
-112.12
-90.13
-48.95
-3.62
32.72
54.53
64.86
71.01
78.11
85.07
84.94
69.50
35.53
-11.59
-59.22
-92.93
-103.24
-89.66
-60.21
-26.41
2.76
24.56
41.78
58.50
75.43
87.57
85.95
63.33
19.70
-35.45
-86.17
-116.67
-118.51
-94.45
-56.72
-20.61
2.71
10.56
8.11
3.83
3.91
8.66
13.16
11.31
0.36
-16.80
-33.13
-41.37
-37.94
-24.99
-9.14
2.30
5.08
-0.16
-8.80
-15.07
-14.95
-8.18
2.06
11.27
16.56
18.51
20.71
27.90
43.20
65.85
90.91
111.62
122.73
122.92
114.97
103.19
90.29
75.24
53.95
22.52
-18.60
-62.55
-98.05
-114.16
-105.61
-75.83
-36.00
0.11
22.20
27.28
19.11
4.08
-13.34
-33.11
-58.26
-90.92
-128.13
-160.62
-176.60
-167.66
-133.98
-85.20
-36.93
-3.89
6.22
-4.66
-27.24
-50.97
-69.38
-82.25
-93.52
-106.80
-121.36
-131.24
-127.70
-104.15
-60.28
-2.68
58.07
112.50
156.41
191.43
223.15
257.79
298.36
342.67
384.00
413.36
422.40
405.92
365.95
307.57
238.64
168.48
105.50
54.93
17.35
-11.30
-36.64
-63.80
-95.06
-128.48
-159.33
-182.67
-195.58
-198.75
-193.75
-182.53
-167.25
-151.55
-140.58
-139.83
-152.18
-175.17
-200.44
-215.50
-209.53
-178.64
-128.00
-68.97
-13.59
30.31
61.08
80.80
91.19
90.70
75.26
42.14
-5.15
-55.29
-92.56
-103.63
-83.95
-40.26
12.01
55.79
79.76
82.16
69.59
51.25
33.15
15.10
-7.62
-39.39
-79.00
-117.47
-141.09
-137.86
-104.00
-46.51
19.30
76.31
112.56
125.15
119.28
103.27
83.06
59.60
30.39
-6.34
-47.29
-82.84
-100.34
-90.20
-51.79
4.94
63.25
106.62
125.62
121.06
102.05
80.13
63.17
52.41
44.23
34.78
24.18
17.47
22.00
41.62
72.42
102.25
115.09
98.49
50.22
-19.51
-91.92
-147.35
-173.45
-169.33
-144.07
-110.74
-79.62
-54.46
-33.41
-13.53
4.62
15.32
10.57
-14.24
-55.24
-99.19
-128.10
-127.28
-92.55
-32.45
35.66
93.57
129.77
142.87
139.39
127.66
112.56
93.61
67.58
33.29
-4.57
-35.65
-48.50
-36.63
-3.05
39.73
74.38
86.24
69.83
30.99
-16.36
-57.13
-81.68
-89.02
-84.83
-76.32
-67.18
-55.90
-37.98
-10.77
22.38
51.76
65.05
53.55
17.38
-32.90
-80.14
-108.12
-108.39
-83.56
-44.54
-4.14
29.34
55.14
77.42
99.19
117.72
124.05
107.86
64.47
-0.07
-69.80
-125.17
-151.53
-145.33
-114.70
-74.32
-37.82
-11.82
5.28
19.76
36.29
53.29
62.80
55.08
25.38
-21.11
-69.87
-102.63
-105.89
-77.21
-26.10
31.09
78.94
108.93
121.23
121.05
113.37
99.10
75.13
38.00
-11.28
-64.43
-107.87
-127.92
-117.18
-78.50
-24.08
29.64
69.41
90.12
95.51
94.05
92.47
91.01
83.56
62.08
22.85
-29.00
-80.45
-116.07
-125.14
-106.74
-69.67
-27.58
7.65
30.87
44.44
54.40
65.21
75.84
79.85
68.83
38.02
-9.46
-62.43
-105.78
-127.42
-123.74
-100.68
-69.68
-40.87
-17.85
3.01
28.18
60.59
95.38
121.08
125.75
103.99
61.12
10.88
-31.27
-55.60
-62.08
-58.44
-54.15
-54.13
-55.77
-51.07
-32.16
2.56
45.64
82.96
99.58
86.96
47.38
-6.57
-57.14
-89.06
-95.57
-79.93
-51.66
-20.62
8.06
34.69
61.58
88.39
109.37
114.75
96.30
53.14
-5.76
-64.79
-108.95
-130.68
-132.87
-125.71
-120.18
-121.30
-125.11
-121.37
-99.59
-55.65
5.06
69.94
125.01
161.01
176.44
176.26
167.09
152.45
130.62
96.29
45.46
-19.83
-89.69
-149.37
-185.40
-191.75
-172.48
-139.38
-105.79
-79.66
-60.08
-39.04
-7.58
37.52
90.24
138.10
168.67
176.08
163.63
141.05
118.20
99.15
80.45
54.07
13.42
-41.17
-100.86
-151.26
-179.23
-178.93
-154.19
-116.03
-76.87
-44.38
-18.39
7.33
39.80
81.40
127.02
166.76
191.53
198.27
191.38
179.19
168.16
158.44
143.55
114.21
64.41
-3.98
-80.58
-150.18
-199.29
-222.06
-222.17
-209.94
-196.35
-186.86
-178.81
-163.62
-132.62
-83.52
-23.08
35.87
80.90
106.68
116.99
120.82
125.20
129.88
127.10
106.74
64.01
4.51
-56.56
-100.40
-113.18
-92.49
-47.97
3.70
46.79
73.23
84.57
88.20
90.97
93.68
90.16
71.64
33.65
-18.71
-71.15
-106.09
-111.08
-85.33
-39.93
7.89
43.21
59.82
61.59
57.70
55.59
55.88
51.96
34.85
0.16
-47.09
-93.22
-121.75
-121.47
-92.16
-44.71
4.27
40.15
56.08
54.69
44.16
32.13
21.16
8.03
-12.92
-44.49
-82.36
-115.52
-130.71
-119.13
-81.33
-27.63
26.57
67.67
89.13
92.90
86.07
75.12
61.85
43.26
14.67
-25.40
-71.85
-113.52
-137.46
-134.83
-105.21
-57.15
-4.13
41.42
72.62
89.25
95.18
93.74
84.64
64.47
29.86
-18.58
-73.77
-123.49
-154.47
-157.86
-132.90
-87.25
-33.40
16.94
57.12
86.84
109.34
126.72
136.31
131.34
105.23
57.38
-3.38
-60.66
-97.07
-101.94
-76.25
-31.84
14.61
49.63
68.49
75.54
79.35
85.65
92.49
90.84
70.37
27.23
-31.08
-87.63
-123.70
-127.95
-101.78
-57.85
-12.95
20.27
37.68
42.83
41.76
37.76
28.97
10.50
-21.37
-65.03
-111.75
-148.04
-160.59
-141.99
-94.55
-29.84
35.91
88.58
121.59
137.21
142.50
143.16
139.04
124.48
93.25
44.78
-12.44
-63.25
-92.65
-92.84
-66.81
-26.54
13.43
42.77
59.13
67.43
75.00
85.72
96.32
97.63
79.63
38.15
-20.84
-82.54
-130.06
-152.87
-151.95
-138.35
-125.56
-120.72
-120.18
-112.69
-87.56
-42.61
13.26
64.29
95.98
101.98
86.21
59.36
32.37
11.14
-5.21
-22.11
-44.90
-74.44
-104.95
-125.34
-124.01
-94.90
-41.59
23.21
82.95
124.92
145.77
151.31
150.73
149.32
144.43
127.80
92.44
39.73
-18.56
-65.05
-85.21
-74.49
-40.15
3.15
41.11
66.06
78.86
85.97
93.70
103.46
109.97
104.21
78.71
32.69
-25.60
-81.58
-120.98
-137.09
-134.28
-125.45
-124.29
-136.66
-156.41
-168.78
-159.54
-123.58
-68.34
-9.34
38.51
68.51
83.67
91.89
98.87
103.54
98.81
76.66
34.01
-24.24
-86.39
-138.46
-169.61
-175.95
-161.60
-136.16
-110.07
-89.61
-73.71
-54.77
-23.57
24.13
83.48
141.78
184.76
204.36
203.04
191.39
180.42
173.82
165.31
142.84
97.49
31.15
-42.26
-103.13
-136.24
-138.39
-119.07
-93.94
-75.40
-66.25
-59.78
-45.93
-18.62
20.02
60.65
92.20
107.81
107.79
98.40
87.71
80.55
75.68
66.25
43.64
2.30
-55.86
-120.18
-174.48
-203.82
-201.65
-173.08
-132.27
-94.50
-67.67
-48.38
-25.64
10.51
60.99
115.33
156.87
172.14
158.42
124.72
85.61
52.53
28.14
6.91
-18.69
-50.88
-83.44
-104.61
-103.78
-77.79
-33.17
16.79
58.14
81.95
86.76
77.36
61.08
43.58
26.26
6.43
-20.30
-56.55
-99.97
-142.15
-170.86
-175.06
-150.39
-102.15
-43.53
10.41
49.65
73.19
87.06
98.12
107.64
109.42
93.61
54.36
-3.41
-63.56
-105.16
-112.82
-84.50
-32.56
23.06
65.08
86.61
92.02
91.08
90.70
89.82
80.57
54.97
12.33
-37.45
-77.70
-93.29
-78.54
-40.09
6.71
45.64
66.74
69.10
58.37
41.74
23.73
4.99
-15.33
-36.30
-53.45
-59.90
-50.05
-23.27
14.37
51.55
75.61
77.21
53.75
10.47
-41.23
-87.57
-117.00
-123.77
-109.50
-81.85
-51.17
-26.18
-11.00
-4.57
-2.82
-1.89
-0.67
-0.92
-4.99
-12.58
-19.25
-17.86
-2.42
27.73
66.14
101.06
120.40
117.63
94.61
60.42
26.63
1.66
-12.29
-18.16
-19.94
-18.54
-10.93
6.81
34.59
65.16
85.30
81.69
48.32
-8.71
-72.41
-121.61
-140.03
-123.24
-80.03
-27.90
14.90
36.71
35.78
18.67
-4.75
-26.56
-43.50
-56.21
-66.55
-74.68
-78.42
-74.99
-63.33
-45.60
-26.69
-12.12
-5.43
-6.73
-12.76
-18.33
-18.57
-10.31
7.14
32.16
61.57
91.37
117.02
133.41
135.59
120.02
86.50
39.76
-10.33
-50.85
-69.87
-61.19
-27.50
19.64
63.45
88.09
84.92
56.06
13.47
-26.32
-49.65
-51.46
-36.43
-15.30
1.74
10.43
13.13
15.37
20.08
24.46
21.58
5.88
-21.11
-49.19
-63.32
-51.76
-12.87
42.64
95.84
127.81
127.77
97.25
48.35
-2.47
-41.59
-62.81
-67.45
-60.80
-47.61
-29.61
-6.32
21.81
50.40
70.68
72.58
49.83
4.41
-52.28
-103.46
-133.87
-136.60
-115.88
-84.40
-56.00
-38.19
-28.50
-16.74
7.40
46.58
91.93
126.21
132.18
101.98
42.13
-28.82
-88.59
-121.01
-122.23
-100.11
-68.13
-37.65
-13.25
7.12
27.33
47.80
63.20
64.81
45.99
7.69
-39.88
-81.17
-102.39
-98.11
-73.52
-40.82
-12.26
6.31
17.27
27.99
44.07
64.20
79.28
77.32
50.98
3.44
-50.80
-91.59
-101.93
-75.73
-20.62
45.29
101.04
131.06
130.30
104.31
64.91
24.24
-9.84
-34.33
-48.97
-53.19
-44.96
-22.42
12.62
52.18
82.85
90.51
66.84
14.49
-52.34
-112.57
-146.66
-144.58
-109.60
-56.06
-2.38
36.96
56.63
59.88
53.93
44.08
30.92
11.78
-14.53
-43.55
-65.06
-67.76
-46.16
-4.98
41.38
74.93
82.41
61.64
22.53
-17.48
-41.61
-41.19
-18.76
14.32
44.26
61.53
64.51
57.83
47.61
36.50
22.16
-0.03
-31.78
-67.86
-96.47
-104.68
-85.64
-43.44
7.79
49.92
69.20
62.56
38.55
12.65
-0.75
4.64
24.79
48.68
65.30
70.07
66.94
64.98
71.35
85.49
98.05
95.61
68.70
18.29
-43.21
-97.60
-129.65
-134.18
-117.25
-91.09
-66.56
-47.62
-30.87
-10.25
16.34
43.23
58.53
50.31
14.00
-43.03
-102.84
-143.79
-149.59
-116.20
-53.55
18.58
78.86
112.34
115.05
93.33
58.88
22.78
-8.29
-31.92
-47.16
-51.66
-41.55
-14.21
27.65
73.84
108.42
115.59
86.81
25.78
-51.64
-122.67
-166.06
-169.76
-134.82
-73.75
-4.77
55.15
95.43
113.00
109.79
89.27
54.19
7.10
-47.30
-100.06
-138.77
-151.53
-132.53
-85.80
-24.75
32.85
72.45
88.37
85.13
73.39
62.99
57.37
52.33
39.79
14.26
-22.05
-58.85
-82.48
-83.00
-59.20
-18.96
25.23
62.54
88.12
103.13
110.89
112.31
103.83
79.44
35.81
-23.02
-84.22
-129.78
-143.54
-118.68
-61.72
8.87
68.97
97.92
86.31
39.48
-25.05
-85.27
-123.38
-131.91
-114.82
-83.52
-50.33
-23.45
-5.47
4.36
6.72
0.95
-13.40
-33.62
-52.14
-58.50
-44.76
-11.16
31.89
67.48
80.04
63.36
24.56
-18.78
-46.89
-47.34
-20.42
21.85
62.62
88.52
95.36
88.02
75.89
66.44
61.23
56.70
48.26
35.13
22.21
17.42
26.28
46.94
69.11
78.02
61.72
17.52
-45.45
-109.33
-154.98
-170.00
-153.72
-116.33
-73.25
-37.59
-14.66
-1.22
10.45
26.50
47.27
66.79
76.51
70.72
50.79
24.80
3.45
-5.87
-3.14
4.73
8.52
3.02
-9.33
-19.35
-16.56
3.87
37.23
70.41
88.24
81.17
50.90
9.67
-25.76
-42.52
-37.47
-17.70
4.64
19.59
24.56
24.66
27.81
38.18
52.21
59.76
49.92
18.20
-28.98
-76.15
-105.70
-106.67
-80.09
-38.16
2.09
27.31
33.34
25.45
12.92
2.41
-6.17
-18.61
-40.98
-73.64
-108.01
-129.58
-124.96
-89.47
-30.78
33.46
83.21
104.74
96.08
66.61
31.47
3.94
-10.21
-13.08
-10.71
-7.27
-1.64
11.46
36.78
72.84
109.65
131.55
123.72
79.73
5.78
-80.55
-156.62
-203.26
-211.40
-184.21
-133.99
-75.99
-22.31
21.23
53.61
74.97
83.43
75.01
46.88
1.93
-48.82
-89.00
-103.62
-86.13
-42.06
13.20
61.23
88.93
93.61
82.54
67.85
59.33
59.48
63.59
64.09
56.55
43.22
31.94
30.87
42.34
60.03
71.40
64.17
33.50
-14.34
-63.95
-97.75
-104.21
-82.86
-43.78
-2.25
28.36
41.74
39.32
26.71
8.84
-12.92
-40.06
-73.21
-108.10
-134.51
-139.57
-114.11
-58.72
14.36
84.61
130.97
140.40
113.12
62.01
6.70
-35.17
-54.88
-54.21
-42.00
-27.51
-15.28
-4.43
7.64
20.35
27.96
22.36
-0.81
-36.93
-72.04
-88.30
-72.93
-25.67
39.73
100.45
134.00
127.69
83.77
17.94
-47.78
-94.63
-114.22
-110.16
-93.97
-77.64
-67.46
-62.73
-58.78
-52.35
-44.87
-41.41
-46.35
-59.09
-72.77
-77.53
-66.27
-38.99
-3.25
29.41
48.98
51.50
40.20
23.24
9.52
4.59
8.74
17.68
25.35
27.15
22.25
13.31
4.47
-1.29
-3.79
-5.08
-7.41
-10.89
-12.72
-8.83
3.28
22.15
42.19
56.07
58.39
48.70
32.09
16.91
10.82
17.15
33.48
53.04
68.09
73.49
68.73
57.37
44.55
34.08
26.71
20.33
11.91
-0.12
-14.38
-26.98
-33.56
-31.72
-22.59
-10.60
-1.53
0.31
-5.47
-15.00
-21.55
-18.30
-1.08
30.33
72.61
120.53
168.55
211.25
242.97
257.74
250.32
218.58
166.23
103.64
45.65
6.61
-5.51
7.09
32.35
52.83
52.78
24.69
-27.50
-90.40
-147.39
-186.04
-203.19
-204.53
-199.66
-195.24
-190.61
-178.85
-152.30
-108.98
-55.49
-4.43
31.79
47.00
43.68
30.17
15.09
2.89
-7.46
-19.99
-37.79
-59.84
-80.87
-93.62
-92.76
-77.75
-53.44
-27.95
-8.70
1.23
4.78
8.89
20.47
42.19
70.45
97.19
113.85
115.90
104.89
87.14
70.12
58.59
52.69
48.88
42.80
32.17
18.25
4.85
-4.27
-7.67
-7.21
-6.98
-11.01
-20.93
-34.91
-48.62
-57.59
-59.57
-55.81
-50.25
-47.13
-48.37
-52.06
-53.43
-47.58
-32.52
-10.88
11.12
26.58
31.48
26.65
17.10
8.93
5.80
6.74
7.01
1.34
-12.11
-29.48
-42.63
-43.43
-28.51
-1.98
26.14
44.84
47.44
34.81
13.87
-7.15
-23.76
-37.39
-53.23
-75.28
-101.74
-123.92
-130.07
-111.61
-68.48
-10.22
47.97
91.92
114.43
117.03
107.11
92.33
76.20
57.11
31.41
-2.00
-38.60
-68.79
-82.21
-73.02
-43.04
-1.10
40.95
73.45
92.33
99.42
100.09
99.26
98.33
94.25
81.44
55.03
14.55
-33.90
-78.65
-106.33
-107.43
-80.70
-34.19
18.20
62.88
92.15
106.05
109.27
106.04
96.24
75.80
40.96
-6.34
-55.99
-92.53
-101.98
-79.06
-30.24
28.56
79.50
110.49
119.19
111.76
97.46
82.62
67.49
47.47
17.76
-21.68
-63.86
-96.97
-110.11
-99.37
-70.94
-39.07
-19.53
-22.06
-45.67
-79.38
-108.45
-122.36
-120.01
-109.16
-100.59
-100.53
-106.20
-107.39
-93.04
-58.71
-9.87
40.22
77.25
92.79
87.60
69.52
47.91
28.24
10.04
-10.85
-37.26
-66.58
-90.00
-96.20
-77.60
-35.38
19.43
69.78
99.59
100.54
75.33
35.39
-5.18
-36.27
-55.30
-65.88
-73.07
-78.27
-77.40
-63.73
-33.31
10.47
56.36
89.43
98.00
79.13
40.22
-4.76
-42.10
-64.38
-72.54
-73.27
-73.59
-75.66
-74.82
-62.42
-31.33
18.91
80.37
139.81
184.84
209.66
217.20
216.18
214.87
215.57
212.88
196.97
159.77
100.64
28.56
-41.15
-93.44
-120.11
-122.95
-111.52
-96.95
-85.43
-75.28
-58.95
-29.70
12.21
57.12
89.41
95.00
69.06
19.42
-36.90
-81.72
-104.18
-104.85
-93.36
-81.19
-74.09
-69.12
-57.18
-30.58
10.20
54.11
83.65
83.49
48.75
-11.19
-76.53
-125.77
-145.20
-134.14
-103.33
-67.92
-39.20
-19.63
-3.66
16.34
43.29
71.74
90.00
86.58
57.34
9.08
-43.16
-83.43
-102.63
-102.30
-92.31
-83.94
-82.34
-83.11
-75.15
-47.95
0.86
62.52
120.65
159.21
170.42
157.81
132.97
107.76
87.24
67.61
39.83
-3.19
-60.40
-121.05
-168.96
-190.23
-180.08
-144.93
-98.85
-56.14
-24.52
-2.50
17.69
43.37
75.32
105.89
122.62
115.09
81.22
29.57
-24.54
-66.07
-87.12
-89.62
-82.35
-74.48
-69.54
-63.80
-49.19
-20.25
20.32
60.66
84.29
78.15
39.85
-19.98
-82.15
-127.59
-145.92
-139.09
-118.20
-95.76
-78.22
-63.09
-42.01
-8.41
35.95
79.38
105.30
101.10
66.05
13.41
-34.89
-58.28
-46.80
-4.90
52.06
106.01
144.48
164.43
170.29
168.23
160.85
145.74
118.92
80.19
36.70
1.64
-12.00
1.29
35.09
72.42
92.55
80.13
31.90
-41.76
-121.01
-184.56
-217.61
-216.25
-186.83
-141.35
-91.57
-44.88
-4.15
29.69
54.54
66.24
60.97
39.40
9.66
-13.92
-16.48
9.76
60.38
118.99
163.41
174.83
145.96
83.98
7.34
-62.11
-107.68
-123.17
-112.90
-87.25
-56.52
-26.76
0.31
24.37
43.24
52.03
46.15
25.81
-1.10
-20.65
-19.22
9.14
57.89
109.31
141.38
136.89
91.00
13.45
-74.98
-150.30
-193.94
-198.35
-168.12
-116.26
-58.13
-5.89
33.77
58.87
69.47
65.72
48.47
21.39
-7.59
-27.35
-28.04
-6.95
28.31
61.48
74.31
55.28
5.92
-58.57
-115.38
-143.53
-132.75
-87.44
-24.33
34.85
72.24
80.32
63.25
33.25
4.13
-14.30
-18.63
-10.52
6.48
29.86
57.96
88.10
114.55
128.46
121.41
90.67
42.87
-6.88
-40.50
-45.54
-21.84
17.43
51.40
60.78
36.71
-15.11
-77.03
-127.43
-149.86
-138.90
-100.78
-48.92
2.60
44.06
71.24
83.37
80.27
61.02
25.52
-22.38
-72.94
-111.68
-124.26
-103.10
-51.92
14.03
73.06
105.43
101.49
65.65
14.36
-31.26
-54.64
-50.46
-25.55
5.88
30.15
40.78
40.01
35.32
33.38
35.75
39.12
39.24
35.64
33.16
39.18
57.93
85.73
110.61
117.03
93.32
38.11
-37.67
-114.45
-171.71
-195.94
-185.02
-147.51
-97.27
-46.78
-2.77
34.22
66.39
93.76
111.40
110.77
84.23
30.62
-41.45
-115.21
-171.61
-196.48
-186.04
-147.37
-94.20
-40.21
6.16
43.06
72.74
96.26
110.22
107.31
80.67
29.59
-36.80
-101.11
-143.81
-151.26
-121.54
-65.00
0.53
57.44
94.77
110.29
108.10
93.72
70.21
37.82
-3.31
-49.30
-90.67
-114.54
-110.01
-73.98
-14.05
53.27
108.56
137.03
134.01
105.51
64.49
24.34
-6.52
-26.35
-37.45
-41.84
-38.05
-21.71
10.49
55.95
104.04
138.70
144.70
114.69
53.25
-24.18
-97.47
-149.76
-173.41
-171.06
-151.82
-125.13
-95.60
-61.83
-19.82
31.46
86.28
132.40
156.01
148.50
111.71
57.75
3.59
-36.59
-57.34
-62.72
-61.85
-62.02
-63.53
-59.59
-41.18
-4.11
46.49
96.87
130.90
138.08
118.83
83.97
48.34
22.84
9.37
1.38
-10.40
-31.01
-56.94
-77.50
-80.95
-61.69
-24.10
19.09
53.51
70.72
72.28
67.93
68.88
80.17
96.91
106.59
96.02
59.21
1.71
-61.19
-111.41
-136.28
-133.64
-111.26
-81.22
-52.79
-28.20
-3.30
27.38
64.51
100.79
122.87
117.52
78.66
11.85
-66.86
-136.81
-180.62
-190.43
-169.44
-128.64
-80.80
-35.18
4.58
38.87
67.82
87.90
91.77
71.83
25.50
-40.51
-110.35
-163.81
-184.13
-164.61
-111.47
-41.10
26.72
76.26
100.70
102.19
88.01
65.54
38.92
9.29
-22.36
-51.67
-70.36
-69.42
-44.22
1.32
54.66
99.59
123.66
123.89
107.47
87.06
73.30
68.85
67.46
58.32
32.92
-9.36
-60.12
-106.06
-135.94
-145.96
-140.96
-130.35
-121.70
-115.57
-104.73
-79.01
-32.46
31.22
98.40
151.01
175.01
166.92
135.30
95.51
61.39
38.61
23.25
6.23
-19.24
-51.81
-81.32
-94.14
-81.12
-43.58
6.47
52.32
81.16
90.09
86.49
82.17
84.93
92.95
95.53
79.43
37.34
-26.42
-96.09
-150.78
-173.60
-158.55
-112.41
-50.94
8.09
51.50
74.10
77.52
66.50
45.27
16.13
-19.07
-56.22
-87.22
-101.35
-89.58
-49.74
10.37
74.06
121.40
136.90
116.07
67.24
8.04
-42.34
-71.10
-76.15
-64.82
-48.20
-34.40
-24.75
-14.79
0.69
22.40
44.45
57.03
52.11
28.83
-4.78
-35.62
-52.47
-51.65
-38.61
-23.80
-15.79
-15.53
-15.77
-5.71
21.47
62.60
104.00
126.92
116.18
68.00
-7.06
-87.73
-150.18
-177.28
-164.37
-119.66
-59.63
-1.85
41.24
64.80
70.20
61.40
41.80
13.78
-19.50
-51.78
-73.30
-73.95
-48.52
-0.95
55.28
101.55
121.82
109.71
71.36
22.22
-20.29
-44.78
-50.29
-44.69
-38.63
-38.37
-42.00
-41.17
-27.31
1.82
39.15
71.08
84.25
72.51
40.38
0.18
-34.67
-56.48
-66.31
-71.23
-78.00
-87.11
-91.13
-78.48
-41.08
19.32
89.44
148.87
178.66
169.47
125.88
63.92
3.81
-38.84
-58.35
-59.02
-50.13
-39.42
-28.67
-14.22
8.44
39.25
71.08
92.25
92.76
70.36
32.86
-5.34
-31.11
-39.48
-36.03
-33.14
-42.29
-66.86
-99.24
-124.13
-126.25
-98.16
-44.08
21.87
82.07
122.82
138.89
133.48
113.87
86.35
53.41
14.64
-29.76
-75.47
-112.79
-129.91
-118.46
-78.70
-20.99
37.50
80.21
98.48
95.00
81.76
72.79
76.12
89.30
100.77
96.35
67.15
15.03
-47.84
-104.44
-140.70
-151.25
-140.07
-116.36
-88.42
-59.22
-26.43
13.19
58.63
101.80
129.93
132.01
105.55
59.59
11.26
-22.48
-33.66
-27.25
-18.19
-23.02
-50.41
-96.05
-144.27
-175.46
-175.51
-141.99
-84.31
-18.32
41.44
87.62
120.57
144.59
162.61
173.02
170.69
151.45
116.64
74.65
37.78
16.02
11.38
16.14
16.11
-2.26
-45.05
-107.24
-174.42
-228.62
-256.04
-252.35
-223.43
-181.39
-137.98
-98.92
-62.79
-24.41
19.50
66.36
108.24
136.59
148.03
147.13
143.77
146.86
157.65
167.63
162.19
128.45
62.97
-24.80
-115.20
-185.90
-220.90
-216.44
-181.58
-133.15
-87.71
-54.49
-32.86
-15.27
6.37
34.95
66.05
90.66
100.48
92.68
71.13
43.29
15.73
-9.12
-32.88
-57.95
-83.50
-103.51
-108.99
-92.59
-53.72
-0.41
53.44
94.46
116.27
122.42
123.85
131.83
150.79
174.85
190.46
183.78
148.56
90.33
24.28
-31.96
-67.20
-81.76
-86.73
-97.30
-124.22
-167.49
-215.53
-250.77
-258.48
-234.40
-186.80
-132.29
-87.26
-59.52
-45.07
-31.62
-6.50
35.71
90.00
144.03
185.30
207.78
214.05
212.04
208.91
206.31
199.78
182.66
151.40
108.71
62.55
21.64
-9.70
-33.87
-58.26
-90.08
-131.28
-175.89
-211.87
-226.84
-214.43
-178.08
-129.68
-83.75
-50.09
-28.93
-11.74
12.86
51.42
100.65
148.49
180.59
188.32
173.54
147.11
121.95
105.03
93.10
74.95
38.84
-19.28
-91.51
-160.12
-205.74
-216.77
-195.14
-155.20
-115.91
-90.83
-81.02
-75.19
-57.04
-15.70
46.55
113.97
165.24
184.60
170.12
134.15
95.52
68.42
54.45
42.69
17.62
-29.89
-95.11
-160.25
-202.96
-207.89
-174.78
-118.17
-59.06
-13.70
13.87
31.68
52.12
82.02
116.85
142.35
142.94
111.38
54.02
-11.86
-66.91
-99.29
-109.49
-107.68
-105.74
-108.96
-112.90
-106.78
-81.12
-34.66
23.92
80.32
122.04
144.08
149.84
146.86
141.00
132.57
117.07
89.33
48.15
-1.44
-49.35
-84.18
-97.59
-87.18
-56.80
-15.07
27.75
63.05
86.46
98.44
103.08
104.75
105.06
101.34
87.87
59.35
15.08
-38.61
-89.69
-125.25
-137.34
-126.82
-102.64
-76.61
-56.68
-42.64
-27.15
-1.88
35.19
75.91
104.54
105.81
74.19
18.29
-42.56
-87.96
-106.37
-99.42
-78.37
-55.44
-36.01
-16.92
8.88
44.32
83.25
111.70
115.22
87.39
34.55
-26.20
-74.79
-96.91
-89.27
-59.22
-19.97
16.03
41.56
55.91
62.74
65.87
65.91
59.23
39.97
4.14
-45.97
-100.48
-144.53
-164.33
-153.86
-118.07
-70.55
-26.79
3.30
19.23
27.66
35.66
44.24
46.62
32.59
-3.56
-56.96
-112.11
-149.78
-156.70
-131.95
-86.52
-36.60
5.40
36.10
60.29
85.21
114.23
143.95
166.19
172.84
160.44
131.97
95.35
59.77
32.00
14.04
2.78
-7.95
-23.96
-46.96
-72.24
-89.89
-89.49
-66.30
-25.26
20.17
54.22
66.36
55.94
30.74
0.89
-27.28
-53.28
-79.58
-106.41
-128.24
-134.97
-117.38
-73.20
-10.06
56.35
108.24
132.57
125.89
95.32
54.96
19.44
-2.33
-10.47
-12.47
-17.38
-28.92
-42.30
-46.68
-32.39
2.18
48.40
91.46
118.40
124.32
113.66
95.78
78.27
62.80
45.57
21.40
-11.54
-49.00
-81.60
-98.58
-92.64
-63.78
-20.29
24.12
55.70
66.51
57.71
37.95
17.42
1.33
-12.95
-33.15
-65.33
-107.47
-148.11
-171.29
-165.11
-128.17
-70.54
-8.75
42.31
75.29
91.65
98.51
102.73
106.58
106.30
94.62
65.23
17.58
-40.75
-96.16
-134.35
-147.13
-136.45
-113.20
-90.69
-76.67
-68.72
-56.29
-28.48
17.79
74.16
124.45
153.11
153.15
129.11
93.49
59.14
33.07
14.47
-2.57
-23.48
-48.66
-72.30
-84.79
-77.93
-50.08
-8.38
33.61
61.82
68.19
54.39
29.80
5.18
-14.16
-30.85
-52.16
-82.99
-119.89
-150.64
-159.92
-137.75
-85.48
-16.17
51.27
100.44
123.78
124.16
111.35
95.31
80.52
64.38
40.03
2.48
-45.97
-94.24
-126.62
-130.27
-101.90
-49.69
10.51
62.72
97.45
114.10
118.40
116.92
112.38
102.57
82.88
50.64
8.91
-32.77
-61.54
-66.78
-45.55
-4.99
40.36
74.89
88.60
80.81
58.72
31.87
6.57
-16.48
-40.30
-66.96
-93.72
-112.54
-113.41
-90.07
-44.37
13.00
66.19
100.64
108.85
92.78
61.53
25.83
-7.19
-36.23
-63.64
-90.77
-113.94
-124.50
-113.06
-75.75
-18.43
43.75
91.94
111.59
98.65
60.82
13.15
-29.45
-58.44
-73.56
-79.98
-82.64
-81.74
-72.34
-48.02
-6.83
44.97
93.55
122.80
121.60
89.32
36.68
-19.08
-61.63
-81.81
-79.87
-63.15
-40.48
-17.32
6.11
32.77
63.97
95.60
117.91
119.33
92.47
39.29
-28.01
-91.02
-132.02
-140.70
-117.71
-73.52
-23.24
19.78
48.71
64.16
70.56
71.28
65.30
47.92
14.79
-32.79
-85.15
-126.69
-141.99
-123.21
-74.45
-10.98
47.35
84.63
95.11
84.04
62.51
40.47
21.79
4.45
-14.93
-35.69
-50.79
-49.77
-25.38
20.35
74.31
116.87
130.75
109.40
60.20
0.72
-49.61
-77.80
-81.47
-67.26
-45.37
-23.58
-4.06
15.60
37.90
61.06
77.71
77.77
54.12
8.12
-48.72
-98.10
-122.53
-113.15
-74.00
-20.25
29.08
60.19
69.93
65.28
56.64
50.29
44.35
30.84
2.12
-42.03
-91.62
-130.24
-143.07
-124.50
-80.83
-26.62
23.17
59.88
83.23
98.74
111.52
121.72
123.61
108.98
72.74
17.60
-45.35
-100.37
-133.12
-136.37
-112.40
-71.33
-26.31
12.11
39.50
57.86
71.82
84.01
91.75
88.08
65.88
23.55
-31.82
-85.84
-122.89
-133.50
-118.77
-89.39
-58.91
-36.19
-21.02
-5.49
19.34
56.18
98.22
131.85
144.03
129.73
94.61
51.76
13.99
-12.75
-31.54
-50.97
-78.58
-114.99
-152.25
-177.40
-178.92
-152.41
-103.00
-42.81
14.36
58.98
88.68
107.48
121.39
133.47
141.21
137.46
115.04
72.04
15.08
-42.32
-85.23
-103.81
-97.33
-73.49
-43.27
-14.97
9.18
32.73
59.99
91.00
119.39
134.52
126.79
93.25
40.58
-17.18
-64.68
-92.19
-99.56
-94.89
-88.74
-87.37
-89.00
-85.22
-66.84
-30.97
15.63
58.97
84.96
86.36
66.45
36.29
8.44
-9.70
-18.84
-25.84
-37.80
-56.50
-76.59
-87.97
-81.43
-54.22
-12.52
30.75
62.00
73.06
64.51
44.11
21.85
4.54
-7.05
-17.33
-31.44
-50.46
-69.70
-80.91
-77.14
-57.20
-27.21
1.42
17.22
13.98
-5.92
-33.01
-55.01
-62.25
-51.36
-26.13
5.00
33.40
53.97
65.97
71.26
71.63
67.16
56.60
39.69
19.33
2.45
-2.31
10.87
41.02
79.35
111.89
124.86
110.64
71.51
19.18
-30.44
-64.13
-76.79
-72.62
-61.45
-52.16
-47.01
-40.97
-25.82
3.51
44.70
88.49
123.53
142.34
144.90
137.60
128.16
120.06
109.90
89.62
52.29
-2.55
-66.96
-127.10
-169.80
-188.62
-186.90
-175.66
-167.48
-169.65
-179.98
-188.17
-182.03
-154.89
-109.72
-57.48
-10.89
22.48
44.07
62.27
86.27
119.93
158.66
191.69
207.96
202.60
179.57
149.26
122.35
103.72
89.97
71.82
40.11
-8.17
-66.81
-122.04
-158.80
-167.52
-148.46
-110.85
-67.41
-27.95
4.43
32.76
61.54
91.38
116.38
126.05
110.83
68.31
6.58
-57.62
-105.19
-122.88
-108.99
-73.03
-30.45
5.31
28.35
40.93
49.02
56.04
59.29
51.34
25.88
-16.47
-65.52
-104.76
-118.59
-100.08
-54.80
1.13
48.38
72.66
70.13
47.41
16.87
-10.10
-28.23
-39.27
-48.22
-57.86
-65.61
-64.57
-48.01
-14.61
28.77
68.76
91.06
86.94
57.51
13.16
-31.00
-61.61
-72.34
-65.65
-49.75
-32.96
-19.00
-5.76
11.64
35.57
61.86
79.74
76.61
45.41
-9.81
-73.64
-124.98
-145.76
-128.72
-80.47
-18.23
38.18
74.57
86.79
80.00
63.95
47.38
34.35
24.73
17.41
13.66
17.58
33.18
60.10
90.84
111.91
109.65
77.62
21.28
-42.55
-92.26
-110.96
-94.29
-52.48
-5.71
25.59
30.03
9.45
-23.45
-52.81
-67.79
-67.02
-56.67
-44.69
-34.77
-24.59
-8.87
14.74
41.47
59.93
57.85
29.63
-19.01
-72.09
-110.47
-120.98
-102.42
-65.53
-26.35
2.50
17.79
25.64
36.02
54.92
79.37
98.33
98.86
73.86
27.27
-26.79
-70.57
-90.98
-85.41
-61.80
-32.99
-9.48
5.58
16.39
29.56
47.86
66.62
75.54
64.68
31.38
-16.24
-61.86
-88.19
-85.13
-54.05
-6.75
40.33
73.58
87.22
83.78
70.56
54.61
39.02
23.03
4.92
-14.18
-28.77
-30.80
-14.21
20.50
64.46
102.57
119.26
105.25
61.79
0.80
-59.37
-101.19
-114.84
-100.87
-68.52
-30.42
3.27
28.25
45.09
55.31
57.72
47.97
21.87
-19.76
-67.80
-106.39
-119.29
-98.32
-48.58
12.69
62.42
81.79
64.38
18.52
-36.86
-80.89
-99.05
-88.30
-56.45
-16.68
19.11
44.22
57.46
60.86
56.31
44.28
25.40
3.06
-15.69
-22.15
-10.26
18.71
54.71
81.70
84.66
56.39
1.84
-62.88
-116.45
-141.29
-130.41
-89.43
-33.95
17.61
51.68
63.59
57.48
42.10
26.14
14.86
9.99
11.66
20.70
38.51
64.98
95.75
121.48
129.75
110.56
61.91
-7.30
-78.99
-131.76
-149.74
-129.31
-80.91
-24.70
17.39
31.09
15.06
-19.62
-55.95
-78.75
-80.55
-63.36
-35.21
-4.75
22.30
43.82
59.09
66.50
62.72
45.20
15.59
-18.55
-45.56
-54.35
-40.61
-10.21
22.28
39.65
30.10
-6.62
-58.18
-104.51
-126.80
-115.59
-74.54
-18.27
34.62
69.87
82.43
76.48
60.95
44.18
30.25
19.30
10.62
5.53
7.95
21.83
46.98
76.62
98.22
98.61
70.34
16.75
-47.94
-103.65
-132.85
-128.13
-94.40
-45.61
2.35
39.01
62.67
78.13
90.77
101.72
106.22
96.52
67.68
22.32
-28.90
-70.96
-91.00
-83.88
-54.38
-14.76
20.96
42.68
47.53
39.35
24.73
8.22
-10.08
-32.94
-62.28
-94.79
-120.85
-128.04
-107.49
-59.81
3.03
61.38
95.71
94.84
60.69
7.48
-44.76
-78.45
-85.42
-68.48
-37.63
-3.76
26.36
51.94
74.76
94.47
106.10
101.44
74.23
25.96
-32.03
-82.21
-108.28
-102.57
-69.30
-21.90
23.81
56.91
75.07
83.34
88.83
95.00
98.49
90.71
63.16
13.78
-49.73
-111.87
-156.11
-172.67
-163.23
-139.34
-115.37
-99.66
-90.47
-77.68
-50.21
-4.34
52.85
106.72
142.70
153.82
143.52
122.42
100.95
83.01
64.75
38.01
-2.91
-55.56
-108.55
-145.93
-154.50
-130.16
-80.20
-19.94
34.47
72.75
93.97
104.60
112.43
120.30
123.77
113.59
81.63
27.42
-39.40
-102.41
-145.68
-160.91
-151.23
-128.78
-107.46
-95.18
-90.34
-83.34
-63.15
-24.63
27.95
83.15
128.32
156.23
168.29
172.30
176.45
183.65
189.67
185.51
163.40
121.88
67.43
11.73
-34.10
-64.92
-83.91
-99.90
-122.04
-154.30
-192.18
-224.18
-237.59
-224.96
-188.00
-137.12
-86.36
-45.90
-17.46
5.47
32.70
70.76
118.02
165.23
200.67
216.36
212.10
194.88
173.82
154.23
134.54
107.84
67.00
10.45
-54.91
-115.62
-157.96
-174.81
-169.69
-155.14
-145.91
-151.18
-169.38
-189.23
-196.32
-181.80
-147.83
-106.54
-73.51
-59.16
-62.69
-72.89
-74.98
-59.18
-26.33
13.03
45.07
61.41
64.21
64.78
76.63
107.24
153.19
201.58
237.22
250.76
242.94
223.50
204.28
191.76
183.29
169.09
138.46
87.02
20.33
-48.18
-103.84
-137.86
-151.53
-154.73
-159.54
-173.30
-194.21
-211.94
-213.64
-191.15
-145.89
-87.95
-31.47
12.86
42.90
64.69
87.65
118.10
154.95
189.57
211.11
212.68
195.21
166.93
138.09
114.56
94.31
69.19
30.31
-25.09
-90.34
-151.06
-192.16
-205.20
-193.10
-168.65
-147.61
-140.91
-148.76
-160.96
-163.10
-144.90
-105.79
-55.00
-6.40
29.62
51.34
65.52
82.12
107.43
139.29
168.02
181.98
174.12
146.16
107.73
70.51
41.73
20.64
-0.27
-29.53
-70.40
-117.59
-158.64
-180.12
-174.36
-144.00
-100.47
-58.41
-28.23
-10.99
1.02
18.87
49.76
92.30
136.86
170.76
185.39
180.47
163.46
144.19
128.25
113.43
91.25
53.03
-3.36
-70.30
-132.57
-174.61
-188.01
-175.63
-149.64
-124.67
-110.15
-105.41
-100.96
-84.88
-50.26
0.46
56.56
104.77
136.14
149.91
152.25
151.19
150.64
147.38
133.14
99.82
45.65
-21.63
-86.75
-132.78
-148.77
-134.27
-99.30
-58.81
-25.50
-4.10
9.35
22.89
41.75
63.43
77.80
72.93
42.41
-9.17
-67.16
-113.56
-135.90
-132.87
-113.71
-92.08
-77.61
-70.31
-61.86
-41.51
-3.65
47.46
99.49
138.07
154.10
148.06
128.55
106.50
88.46
73.32
53.28
19.98
-29.19
-87.60
-140.93
-173.43
-175.49
-147.87
-101.14
-50.16
-6.83
24.61
47.48
68.00
89.64
109.30
119.04
110.63
80.80
34.53
-16.73
-60.26
-87.67
-98.34
-98.75
-97.72
-100.53
-105.52
-104.20
-86.43
-47.16
9.66
71.19
120.96
146.65
145.29
123.66
93.59
64.91
40.70
17.65
-10.06
-44.91
-82.14
-111.06
-120.07
-102.58
-61.41
-8.04
42.33
77.21
91.85
90.07
80.08
68.61
56.73
39.34
9.93
-33.16
-83.21
-125.72
-144.84
-131.19
-86.69
-23.94
39.77
90.29
121.59
136.04
140.26
139.06
131.73
113.25
78.07
25.40
-37.39
-96.41
-136.26
-146.44
-126.31
-85.13
-37.70
2.27
27.74
39.91
44.52
46.55
45.82
36.81
13.27
-26.25
-74.89
-118.69
-142.67
-137.83
-105.36
-56.09
-4.75
37.12
65.47
83.77
98.72
114.18
127.44
130.17
112.71
70.70
9.51
-56.75
-110.41
-138.15
-136.89
-114.33
-83.90
-57.45
-39.13
-24.63
-5.99
22.18
57.49
90.25
108.58
104.74
79.51
41.99
4.48
-23.72
-40.06
-49.01
-57.69
-70.09
-83.65
-89.51
-77.38
-42.05
12.42
73.04
122.89
148.74
146.79
123.22
90.10
58.24
31.85
8.11
-19.29
-54.36
-94.03
-128.38
-145.08
-135.47
-99.81
-47.70
6.30
49.11
74.77
86.07
90.60
94.58
98.21
94.72
75.05
34.59
-22.52
-83.19
-131.29
-155.41
-154.09
-135.70
-113.38
-96.94
-87.68
-78.38
-58.22
-20.29
32.98
90.57
137.78
163.67
166.38
152.78
133.27
115.07
97.71
74.30
37.34
-15.10
-75.40
-128.48
-158.54
-156.67
-124.85
-75.18
-23.37
18.38
46.02
63.78
79.13
96.65
114.23
123.63
115.10
83.86
34.02
-22.19
-69.62
-97.10
-102.41
-92.05
-76.62
-63.97
-54.93
-43.38
-21.30
14.70
58.94
97.45
114.47
100.11
56.33
-3.13
-59.13
-95.88
-107.60
-99.57
-83.10
-67.71
-55.73
-41.69
-17.55
20.61
68.44
114.31
144.90
152.19
137.30
109.48
80.28
57.29
40.45
23.12
-3.27
-43.17
-93.22
-142.70
-178.66
-192.59
-184.87
-164.98
-146.29
-138.90
-143.86
-152.60
-152.38
-133.86
-97.18
-51.93
-11.79
13.53
23.81
27.96
38.12
61.99
98.16
137.05
166.79
180.10
178.30
170.01
165.77
171.73
186.10
200.37
204.50
192.66
166.36
133.28
102.48
78.89
60.38
39.09
6.69
-40.08
-96.11
-149.31
-186.75
-200.82
-193.68
-175.92
-160.56
-156.02
-160.86
-164.58
-153.64
-119.35
-63.20
3.01
63.45
106.07
128.58
138.03
145.21
156.93
171.49
179.36
169.51
136.64
85.26
28.19
-20.32
-52.03
-68.88
-81.20
-100.86
-133.70
-174.76
-210.15
-224.02
-206.64
-159.80
-96.00
-31.91
19.23
53.34
75.26
93.28
112.60
131.00
139.83
129.53
95.68
43.13
-15.74
-66.45
-99.25
-113.13
-114.83
-113.58
-114.78
-116.28
-109.88
-86.92
-44.20
12.61
71.30
118.89
147.82
159.22
160.62
160.26
161.23
159.24
145.22
111.38
56.70
-10.51
-75.50
-123.40
-145.73
-144.01
-127.86
-109.18
-95.24
-85.12
-71.27
-45.43
-5.00
43.79
87.93
113.93
114.35
91.66
56.38
21.46
-4.06
-18.90
-28.19
-38.77
-53.53
-68.30
-73.74
-60.53
-25.70
23.88
73.73
107.96
116.46
99.70
67.22
32.01
3.13
-18.18
-37.16
-60.36
-88.90
-116.29
-130.34
-120.01
-82.13
-23.81
39.54
91.16
119.86
124.00
110.49
89.49
68.80
50.08
29.80
3.46
-29.73
-63.82
-88.20
-92.43
-71.96
-31.54
16.27
56.55
78.42
79.30
64.82
43.97
23.35
3.92
-18.23
-47.48
-83.11
-117.45
-138.05
-133.94
-102.08
-49.54
8.88
57.74
87.60
98.27
96.80
91.47
86.14
77.51
58.31
22.59
-28.45
-84.57
-129.88
-149.52
-136.72
-95.73
-39.83
15.18
57.63
83.55
95.90
99.51
96.43
84.09
57.56
14.52
-40.59
-95.91
-136.03
-148.43
-129.34
-85.55
-31.61
16.46
47.54
58.91
55.29
44.30
31.39
17.08
-1.52
-26.53
-55.06
-78.04
-83.70
-63.92
-19.53
38.38
92.34
126.08
131.28
110.61
75.50
39.87
13.91
0.39
-4.26
-5.37
-5.77
-3.65
5.35
23.51
47.11
65.72
66.22
39.63
-13.26
-80.28
-141.88
-179.14
-181.73
-151.49
-100.65
-45.13
2.19
36.04
58.12
72.33
80.36
79.63
65.40
35.72
-4.42
-42.79
-64.55
-59.46
-27.26
21.45
69.67
101.92
110.42
97.47
72.33
45.00
21.15
0.04
-22.69
-49.77
-78.23
-99.04
-101.15
-78.37
-34.22
17.25
56.46
66.93
42.66
-8.47
-68.01
-114.85
-134.41
-123.34
-89.34
-45.75
-4.71
27.21
49.54
64.38
73.02
74.22
66.07
49.58
30.72
19.31
24.15
47.69
82.79
114.45
125.96
106.21
55.65
-13.30
-80.20
-124.99
-135.31
-110.89
-62.78
-7.73
38.47
66.89
76.34
71.38
57.01
35.59
6.86
-29.55
-69.80
-105.10
-123.90
-117.42
-84.45
-32.88
23.20
69.89
99.11
111.00
111.56
108.02
103.35
94.64
75.68
41.26
-7.33
-61.21
-106.19
-128.86
-122.39
-89.68
-41.79
7.43
47.17
73.56
88.60
96.68
99.42
93.68
73.80
35.73
-17.68
-75.69
-122.50
-143.85
-133.27
-95.05
-42.06
10.45
51.31
77.20
91.23
98.77
101.65
96.22
75.89
35.98
-20.51
-82.03
-131.89
-155.70
-147.66
-113.24
-65.92
-20.28
14.61
38.17
55.66
73.09
91.18
103.99
101.76
76.88
30.05
-28.52
-82.27
-115.75
-121.01
-101.01
-66.77
-31.24
-2.86
17.33
33.46
50.01
66.40
76.09
69.57
40.36
-9.48
-68.63
-120.06
-148.69
-147.55
-120.66
-80.11
-39.49
-7.44
15.63
35.10
57.42
83.89
109.02
122.77
116.11
86.92
41.70
-6.72
-45.57
-67.44
-73.18
-69.27
-62.81
-56.63
-47.41
-28.84
3.57
47.23
92.00
123.50
129.71
107.10
62.27
9.40
-36.69
-66.47
-78.96
-79.58
-75.15
-68.86
-58.11
-37.52
-3.46
40.88
85.01
114.80
118.92
94.72
49.59
-1.98
-45.44
-71.86
-81.06
-79.03
-72.98
-66.15
-55.85
-36.32
-3.45
40.08
84.18
114.61
119.70
96.21
51.40
-0.12
-43.31
-68.89
-76.87
-73.88
-68.00
-62.85
-55.50
-39.08
-8.45
34.43
79.59
112.12
119.34
96.91
51.50
-2.12
-47.98
-75.79
-85.05
-82.94
-79.22
-79.24
-80.72
-75.42
-55.32
-19.08
25.06
62.00
77.00
63.20
25.84
-20.35
-58.38
-77.00
-75.28
-60.86
-43.94
-30.48
-18.99
-2.49
25.09
63.06
101.98
127.24
126.34
95.80
43.90
-12.93
-57.79
-81.01
-83.54
-74.49
-64.59
-59.55
-56.89
-48.16
-25.00
14.71
63.95
109.13
136.31
137.76
115.45
79.28
41.32
9.84
-13.90
-34.19
-56.03
-79.90
-99.83
-105.73
-89.31
-49.27
6.34
63.13
106.49
127.89
127.69
113.36
94.17
75.43
56.62
32.92
0.71
-38.43
-75.86
-99.39
-98.97
-72.18
-26.20
25.22
67.66
92.18
98.13
91.76
80.58
68.68
53.77
29.72
-8.68
-60.48
-116.58
-162.69
-185.30
-178.17
-144.85
-96.87
-47.47
-5.64
27.16
55.08
82.95
111.02
133.28
140.11
123.82
83.88
28.70
-27.29
-69.81
-90.67
-90.73
-77.50
-60.16
-43.95
-28.05
-7.40
21.95
58.40
93.08
112.86
106.65
71.04
13.64
-49.75
-101.34
-128.70
-128.91
-108.60
-78.54
-48.01
-20.43
6.21
35.52
67.67
96.60
112.17
105.16
73.25
23.39
-30.56
-74.56
-100.93
-111.98
-117.12
-126.99
-146.11
-169.30
-183.97
-176.87
-142.14
-85.07
-20.58
34.86
71.03
89.03
99.00
113.01
137.19
168.07
194.95
206.99
200.16
179.80
157.33
143.01
140.03
142.48
139.48
121.72
86.99
41.48
-3.44
-37.79
-58.04
-69.04
-80.79
-102.86
-138.50
-181.87
-220.54
-241.36
-237.59
-211.93
-175.65
-141.45
-116.79
-99.22
-78.98
-45.67
4.12
63.53
118.41
154.90
167.12
159.82
144.92
133.89
130.71
129.70
119.34
89.55
38.04
-27.30
-91.55
-139.50
-162.42
-161.44
-145.55
-126.13
-110.13
-96.47
-77.68
-45.64
2.00
58.95
112.53
150.33
166.32
163.69
151.63
138.87
128.10
114.45
89.18
46.04
-13.43
-78.86
-134.89
-167.76
-171.43
-149.78
-114.21
-77.97
-49.83
-30.34
-13.02
10.85
45.97
89.34
131.37
160.73
170.66
162.12
142.62
120.78
100.71
79.61
50.06
6.05
-51.59
-112.96
-162.60
-186.81
-180.25
-148.86
-106.82
-69.12
-44.32
-30.96
-20.06
-1.74
27.67
62.68
91.19
100.91
85.92
49.85
3.72
-39.50
-71.03
-89.20
-98.63
-105.83
-114.24
-121.51
-120.36
-102.75
-65.06
-11.15
48.58
101.58
139.16
160.11
169.98
176.33
183.21
188.34
184.47
164.45
126.16
75.10
22.27
-21.14
-49.54
-65.34
-77.40
-95.43
-123.90
-158.47
-187.75
-198.95
-185.02
-148.48
-100.42
-54.06
-17.98
8.14
31.31
59.07
92.86
125.63
145.25
141.39
111.91
64.47
13.04
-29.01
-55.06
-67.34
-74.36
-84.80
-102.34
-122.81
-136.21
-131.88
-104.42
-57.01
-0.80
50.11
84.72
99.75
99.73
92.63
84.02
73.46
55.02
22.48
-24.85
-78.72
-124.52
-147.73
-141.38
-109.50
-64.77
-21.82
10.27
31.32
47.85
66.90
90.13
111.75
121.41
110.43
77.15
29.17
-19.79
-56.39
-73.66
-73.77
-65.53
-58.72
-57.66
-58.73
-52.30
-29.17
13.28
68.08
121.87
160.93
178.18
175.89
163.08
149.20
138.50
127.47
108.26
73.72
22.94
-36.85
-92.68
-132.22
-149.35
-147.62
-137.78
-132.00
-136.63
-148.21
-154.77
-142.92
-105.61
-47.37
17.91
73.33
108.32
122.88
126.44
130.70
142.15
157.82
168.19
162.97
137.93
97.52
52.65
14.14
-12.56
-30.51
-48.45
-75.36
-114.60
-161.00
-202.25
-224.90
-220.73
-191.45
-147.29
-102.25
-66.30
-40.84
-18.74
9.98
50.99
100.79
148.34
180.50
189.75
177.75
153.72
127.96
105.55
83.54
54.17
11.05
-45.10
-104.65
-152.86
-177.19
-173.11
-146.36
-109.39
-74.40
-47.36
-25.44
-0.53
34.54
80.03
127.64
164.30
178.70
167.45
136.46
97.44
61.50
33.33
9.92
-16.26
-51.21
-94.60
-138.08
-168.64
-174.56
-151.31
-103.96
-45.44
9.58
50.56
75.37
89.12
99.59
111.13
121.76
123.87
109.37
74.87
25.04
-29.15
-75.24
-105.36
-119.07
-122.88
-125.13
-130.47
-136.52
-135.31
-117.80
-80.19
-26.69
31.50
81.79
115.82
132.82
138.09
137.86
134.37
124.06
100.33
59.05
3.30
-55.66
-102.40
-123.96
-115.98
-84.46
-42.59
-4.47
21.19
33.88
39.54
45.17
53.63
61.46
60.69
43.93
9.42
-36.16
-80.13
-109.19
-115.60
-100.36
-72.23
-42.03
-16.96
3.01
23.47
50.42
84.60
118.99
141.68
142.02
116.96
72.86
22.68
-20.71
-50.41
-68.01
-80.62
-95.77
-115.66
-135.51
-145.33
-135.83
-103.64
-54.30
0.13
46.16
74.87
85.40
83.87
78.33
73.45
67.93
55.52
30.09
-9.69
-57.16
-100.32
-126.65
-129.45
-110.33
-78.59
-45.51
-18.59
1.92
21.94
48.48
83.99
123.28
155.69
170.29
162.12
134.58
97.70
62.13
33.62
10.24
-14.84
-48.15
-90.25
-133.45
-164.44
-170.76
-147.39
-99.74
-41.83
10.90
48.36
70.29
84.26
99.60
120.45
142.78
156.47
151.60
124.68
81.00
32.09
-10.91
-42.69
-65.91
-87.83
-114.57
-145.94
-174.03
-186.63
-173.84
-133.78
-74.46
-10.76
42.61
77.19
93.86
100.51
105.78
113.13
118.20
111.22
83.34
32.95
-31.10
-92.29
-133.66
-145.84
-131.36
-102.79
-75.23
-58.18
-50.59
-42.90
-24.05
10.46
54.71
95.21
118.22
117.22
96.00
65.67
37.35
15.87
-1.87
-23.45
-54.25
-92.39
-127.61
-145.59
-135.08
-93.96
-31.26
36.35
91.87
125.05
135.83
132.46
124.88
118.60
111.16
94.37
60.38
7.78
-54.83
-111.95
-147.58
-153.06
-130.50
-91.62
-50.65
-17.25
7.40
29.31
55.54
88.31
121.68
144.80
147.75
127.57
90.56
48.93
14.28
-8.80
-24.01
-40.95
-68.01
-106.74
-149.55
-182.39
-191.74
-170.94
-124.34
-64.91
-8.54
33.61
59.69
75.86
91.17
110.36
130.76
142.94
136.95
108.36
61.84
9.55
-34.83
-62.38
-73.00
-73.80
-74.03
-78.86
-85.59
-84.89
-66.33
-25.42
32.64
93.91
141.90
165.21
162.43
141.63
114.48
89.18
66.30
40.03
3.62
-44.33
-96.56
-139.86
-161.23
-154.72
-124.41
-82.16
-41.53
-11.11
8.56
23.38
40.24
61.17
80.94
89.30
76.72
40.27
-13.19
-68.91
-110.29
-125.89
-113.88
-81.78
-41.68
-4.17
26.05
50.74
74.27
98.52
119.46
128.01
114.70
75.41
15.56
-51.02
-107.35
-140.71
-147.73
-134.50
-111.99
-89.20
-68.71
-46.60
-17.02
21.91
64.54
98.94
112.58
99.14
62.62
16.13
-24.16
-46.53
-48.52
-36.43
-20.22
-7.10
2.28
12.92
30.55
56.04
82.91
99.47
94.64
64.24
14.26
-40.83
-84.01
-103.06
-95.11
-67.05
-30.93
2.22
27.13
45.38
61.85
79.41
95.04
100.13
84.92
44.60
-16.12
-83.62
-140.78
-174.50
-180.99
-166.31
-141.59
-116.56
-94.29
-70.92
-39.78
2.60
52.36
98.82
129.21
135.39
117.89
85.75
51.55
24.69
7.16
-6.27
-23.06
-46.85
-73.62
-92.56
-91.40
-63.34
-11.68
50.99
107.84
145.19
157.85
150.06
131.02
108.79
85.58
57.78
20.23
-27.98
-79.72
-121.40
-139.06
-125.66
-85.59
-33.03
14.78
45.55
56.71
54.65
48.97
45.73
43.89
36.49
16.38
-18.19
-60.33
-96.59
-112.80
-100.68
-62.04
-7.65
47.51
91.17
118.08
130.71
134.98
135.39
131.47
118.40
90.83
47.73
-5.03
-56.28
-94.61
-114.01
-116.98
-113.08
-113.78
-125.84
-147.21
-167.75
-174.38
-157.81
-117.78
-63.18
-7.40
38.06
68.93
88.39
103.10
117.08
128.04
128.00
108.12
65.03
4.61
-58.52
-106.76
-126.98
-115.87
-81.13
-36.95
3.01
31.64
50.34
65.64
83.26
102.61
116.30
113.45
86.42
36.54
-25.04
-81.69
-118.80
-130.31
-120.69
-101.29
-83.30
-71.37
-61.59
-44.88
-13.74
32.13
83.97
127.82
151.27
149.44
127.27
95.84
66.01
42.30
21.52
-3.87
-39.41
-83.04
-124.52
-149.62
-147.39
-116.34
-65.25
-9.07
38.59
71.57
92.45
108.81
126.70
146.05
159.84
158.62
136.41
94.93
43.82
-3.80
-37.83
-56.19
-65.52
-76.77
-98.59
-131.46
-166.22
-188.41
-185.39
-153.27
-98.70
-35.93
20.36
61.89
89.04
108.51
127.38
147.96
166.36
175.30
169.19
147.87
117.26
85.88
60.04
40.39
21.37
-4.89
-43.45
-92.30
-141.95
-179.52
-195.24
-188.02
-166.38
-144.30
-134.09
-139.79
-155.00
-166.71
-162.90
-139.45
-102.62
-65.43
-40.26
-31.41
-32.72
-31.16
-14.44
21.56
70.05
116.78
148.16
158.84
154.42
147.67
150.69
167.58
191.97
211.19
213.96
196.58
164.74
129.40
99.79
78.05
58.65
32.56
-6.46
-57.42
-111.53
-156.59
-183.41
-190.72
-185.93
-181.03
-186.08
-203.36
-225.72
-239.99
-233.98
-203.15
-153.01
-96.80
-48.37
-15.32
4.58
21.01
44.71
80.73
125.17
167.48
196.70
207.87
204.75
196.90
193.56
197.77
204.40
203.62
187.28
154.04
110.48
67.38
33.40
10.26
-7.64
-29.70
-62.72
-106.29
-151.80
-185.85
-196.58
-179.13
-138.13
-85.37
-34.30
5.68
32.80
51.52
67.96
84.48
96.92
96.81
76.12
33.42
-23.46
-79.95
-120.68
-136.55
-127.88
-103.39
-74.33
-48.58
-27.28
-5.96
20.25
51.89
82.85
102.53
101.51
76.65
34.04
-13.43
-51.88
-72.87
-76.98
-71.97
-67.54
-68.51
-71.56
-67.64
-47.66
-9.65
38.49
81.94
106.11
104.03
79.54
44.55
12.32
-9.43
-21.08
-29.21
-40.49
-56.60
-71.98
-76.24
-60.29
-21.68
32.39
87.70
128.99
146.47
139.76
116.85
88.53
62.23
38.22
11.49
-23.62
-67.15
-110.76
-140.98
-145.51
-120.18
-71.78
-15.24
33.28
63.65
75.33
75.30
72.01
69.08
63.11
46.01
11.32
-40.32
-99.33
-150.33
-178.95
-178.42
-152.48
-113.29
-74.89
-46.29
-27.42
-10.23
15.42
55.11
105.35
155.26
191.97
207.51
202.88
186.60
168.81
155.00
142.71
123.78
90.21
39.99
-20.22
-77.96
-121.11
-144.35
-151.51
-152.83
-158.81
-173.45
-191.62
-201.47
-190.86
-154.48
-96.89
-30.96
28.64
72.19
98.56
113.83
125.97
139.23
151.49
156.10
146.69
121.81
86.41
49.79
20.32
1.22
-11.17
-24.85
-46.86
-78.56
-113.23
-138.68
-142.84
-119.96
-74.07
-17.29
35.73
74.57
97.19
109.27
118.70
129.63
139.06
138.28
118.47
76.62
18.85
-41.71
-90.62
-118.71
-125.48
-118.03
-105.71
-94.28
-83.08
-66.09
-37.69
2.36
46.25
80.61
92.85
77.17
38.26
-10.76
-54.38
-81.50
-89.59
-84.17
-73.58
-63.54
-53.86
-39.09
-14.08
21.45
60.09
89.16
96.71
77.43
36.14
-14.33
-58.80
-86.42
-94.38
-87.49
-73.64
-58.99
-45.13
-29.37
-8.86
15.59
37.52
46.76
34.75
0.11
-48.52
-94.78
-121.48
-118.53
-87.28
-39.66
8.52
45.35
67.44
79.81
90.30
103.09
115.13
117.42
101.04
63.31
11.31
-40.80
-78.17
-92.76
-86.71
-70.68
-57.05
-52.39
-53.66
-50.18
-30.39
10.38
66.41
123.73
167.30
188.49
188.54
176.09
161.10
148.44
135.59
114.91
79.18
26.98
-35.25
-95.47
-141.41
-166.01
-170.22
-161.39
-148.50
-136.88
-125.17
-106.93
-75.79
-30.80
21.35
68.46
98.41
105.08
91.13
66.02
40.52
21.04
7.22
-6.56
-26.07
-52.08
-78.03
-92.27
-83.69
-48.39
7.08
67.39
114.84
137.01
131.86
107.01
74.39
43.33
16.14
-10.55
-41.31
-76.37
-109.19
-128.73
-125.18
-95.55
-46.43
8.47
54.09
80.23
85.15
75.02
58.77
42.76
27.60
9.05
-17.14
-50.39
-82.95
-102.40
-97.86
-66.33
-14.96
41.24
86.23
109.61
110.26
94.96
73.31
52.10
32.46
10.95
-16.58
-50.05
-82.91
-104.10
-102.77
-74.52
-25.00
31.13
75.59
94.22
83.20
50.33
10.66
-20.77
-35.85
-35.27
-25.79
-14.82
-5.60
3.80
16.61
32.73
46.30
47.30
27.55
-12.93
-63.52
-106.03
-122.64
-104.85
-58.03
0.48
48.32
68.52
56.59
21.42
-19.51
-48.99
-57.87
-47.24
-25.68
-3.01
15.63
31.22
47.43
65.50
80.61
83.10
64.32
23.40
-29.60
-76.17
-97.59
-84.39
-41.03
15.69
64.14
87.76
81.81
53.59
17.61
-12.44
-29.79
-35.40
-34.92
-33.03
-29.65
-20.07
0.55
32.16
66.87
90.68
90.01
59.11
4.23
-57.58
-105.71
-125.15
-112.46
-75.90
-30.03
12.40
45.56
70.67
91.61
109.31
118.97
112.45
83.69
34.00
-25.84
-79.25
-110.67
-112.19
-86.48
-44.90
-1.41
33.74
57.29
72.27
83.75
94.06
100.40
95.79
73.32
30.93
-25.70
-84.19
-129.79
-151.51
-146.44
-120.34
-84.25
-48.87
-19.89
3.36
25.17
48.76
71.81
86.13
81.53
51.98
0.80
-58.99
-109.87
-137.73
-138.23
-118.12
-90.31
-66.13
-49.15
-34.18
-12.23
22.35
66.48
108.81
135.66
138.33
117.97
84.63
51.41
27.17
12.34
0.08
-18.54
-48.06
-84.37
-116.10
-129.86
-117.23
-79.48
-27.21
24.64
63.61
84.88
91.93
92.32
91.48
88.68
76.98
48.35
0.23
-60.28
-117.51
-153.71
-157.26
-128.19
-78.10
-24.08
19.79
48.45
66.46
82.92
103.83
126.97
142.32
137.69
106.08
51.09
-13.71
-70.29
-104.09
-109.86
-92.46
-62.87
-31.60
-3.94
20.76
45.77
71.93
94.83
105.59
95.25
60.37
6.44
-53.08
-101.85
-127.45
-126.41
-104.70
-73.82
-44.40
-21.30
-2.49
17.60
42.69
70.57
92.56
97.41
77.46
33.79
-22.96
-76.76
-113.48
-126.94
-120.66
-104.62
-88.37
-75.37
-61.65
-39.42
-3.42
43.52
89.87
120.36
123.58
98.18
54.05
7.23
-28.38
-47.14
-53.24
-56.30
-63.68
-74.98
-81.48
-71.32
-37.18
17.63
79.60
130.82
157.30
155.32
132.10
100.38
70.68
46.39
23.10
-6.38
-45.30
-88.95
-125.61
-141.98
-130.41
-93.41
-42.43
7.63
45.59
68.32
80.48
89.37
99.10
107.62
107.35
90.09
52.32
-1.62
-60.56
-110.81
-141.96
-151.16
-143.18
-127.56
-112.67
-101.09
-88.33
-66.09
-27.95
25.60
85.29
137.16
169.27
177.48
166.81
147.71
128.70
110.93
88.23
51.64
-2.94
-69.81
-133.89
-177.27
-187.45
-163.64
-117.24
-65.51
-23.27
3.83
20.60
37.23
61.71
94.19
126.81
147.94
149.15
130.03
98.31
65.10
38.97
21.61
7.55
-11.32
-40.12
-76.88
-112.31
-133.59
-130.80
-102.18
-54.97
-2.86
40.34
66.27
74.75
71.40
63.32
54.12
42.07
22.97
-5.52
-40.18
-71.48
-87.51
-79.96
-48.69
-1.90
47.20
86.89
111.62
123.38
128.17
131.37
133.77
130.62
115.09
82.94
36.02
-17.21
-65.06
-98.29
-114.77
-120.44
-125.95
-140.28
-165.27
-193.70
-213.46
-214.74
-196.16
-167.01
-142.08
-133.18
-142.40
-160.59
-172.66
-166.57
-139.95
-100.24
-59.77
-27.73
-5.09
14.92
41.63
80.28
128.25
176.08
212.36
229.84
229.01
217.78
207.30
206.28
216.60
232.09
241.75
235.49
209.59
169.41
126.56
92.54
72.55
61.86
48.73
21.51
-24.14
-81.77
-136.96
-175.71
-192.37
-192.86
-191.22
-200.91
-226.02
-257.93
-279.46
-274.54
-237.24
-175.87
-108.79
-54.81
-23.39
-10.56
-2.44
15.71
50.40
96.61
141.57
172.68
185.34
185.27
183.80
190.37
206.75
225.61
235.32
227.00
199.63
160.24
120.05
88.06
66.34
49.62
29.32
-1.15
-42.09
-86.70
-124.77
-148.44
-156.28
-154.49
-153.37
-161.45
-180.54
-204.47
-222.23
-224.17
-207.87
-179.80
-151.97
-135.85
-135.74
-145.81
-153.53
-146.69
-120.15
-79.42
-37.46
-7.15
6.33
8.31
11.21
26.42
56.51
93.06
121.52
129.74
115.77
89.82
68.81
67.08
88.83
125.70
161.71
182.22
181.45
165.18
146.81
139.34
147.91
167.59
187.15
195.96
190.00
173.66
155.24
140.91
130.56
117.59
93.45
53.60
1.04
-54.75
-102.37
-134.36
-150.99
-159.72
-170.80
-191.87
-223.59
-258.33
-283.43
-287.25
-264.88
-221.10
-168.49
-120.94
-86.19
-62.13
-38.51
-3.86
46.70
107.49
164.81
204.32
218.83
212.13
195.96
182.38
176.35
173.22
162.34
134.53
88.57
32.70
-19.77
-57.99
-79.42
-90.88
-103.84
-127.05
-160.98
-196.83
-220.83
-221.53
-196.03
-151.53
-101.57
-59.29
-30.85
-12.80
4.80
31.62
70.85
116.71
157.36
181.59
184.88
171.16
149.80
129.22
111.95
93.20
64.94
21.62
-35.01
-95.32
-145.45
-173.77
-176.42
-158.92
-132.96
-110.28
-96.43
-87.96
-75.30
-48.91
-5.67
48.54
101.53
141.32
162.27
167.37
165.36
164.66
168.17
171.63
166.55
145.87
108.38
59.95
10.48
-31.59
-63.46
-89.38
-117.22
-153.10
-196.43
-238.67
-267.01
-271.21
-249.85
-212.20
-173.70
-148.10
-139.96
-141.68
-138.46
-117.07
-74.08
-18.24
33.80
66.85
75.64
67.58
57.97
61.28
83.23
117.78
151.45
171.68
173.93
163.91
153.62
153.75
167.00
186.63
200.97
200.64
184.19
158.85
135.63
122.32
118.69
117.33
108.64
86.98
54.13
18.34
-11.20
-29.95
-40.45
-50.75
-69.96
-102.95
-147.42
-194.39
-232.45
-252.69
-252.68
-237.90
-218.96
-206.09
-203.82
-208.62
-210.52
-198.68
-167.83
-121.51
-70.00
-24.65
8.54
32.09
54.72
85.06
125.27
169.34
206.62
228.30
232.51
225.33
216.08
210.83
208.39
201.13
180.18
141.24
88.02
30.89
-18.30
-52.27
-71.35
-82.60
-95.68
-117.38
-147.65
-179.25
-201.37
-204.71
-186.26
-151.37
-111.23
-77.13
-54.37
-40.00
-24.69
1.15
41.01
89.32
134.30
164.76
176.40
173.75
166.78
163.92
165.98
165.18
150.44
114.61
59.93
-2.06
-56.15
-91.50
-107.29
-112.42
-119.88
-138.72
-168.51
-198.69
-213.93
-202.57
-162.78
-103.92
-41.63
9.81
44.01
63.97
77.86
92.31
107.61
117.62
113.97
92.01
54.86
12.41
-23.58
-45.38
-53.02
-53.56
-56.18
-66.44
-82.26
-94.32
-91.07
-65.05
-17.70
40.49
94.59
132.38
149.91
152.29
149.50
149.84
154.91
159.06
153.39
131.60
94.10
48.23
4.43
-29.49
-52.45
-70.00
-90.62
-120.15
-157.48
-193.93
-217.26
-217.52
-192.46
-148.79
-98.78
-54.57
-22.41
-0.43
18.76
42.42
72.12
101.94
120.71
117.69
88.72
39.79
-15.35
-61.09
-87.01
-91.58
-81.44
-66.05
-51.36
-36.54
-15.54
17.45
62.64
112.72
155.44
179.77
181.50
165.33
141.74
120.64
105.88
93.26
73.31
37.48
-16.02
-79.69
-139.46
-181.11
-196.72
-187.76
-163.42
-134.84
-108.85
-84.55
-55.59
-15.73
35.20
89.39
133.51
155.31
149.94
122.50
84.92
49.19
21.24
-1.09
-25.31
-57.93
-98.61
-138.42
-163.71
-163.14
-133.81
-83.11
-25.49
24.42
58.29
77.11
88.40
100.41
116.30
131.94
138.03
125.62
92.01
43.45
-7.44
-47.99
-71.99
-82.22
-88.38
-100.59
-122.68
-149.03
-167.23
-164.94
-137.23
-89.38
-34.48
13.13
45.25
63.21
75.36
90.96
113.77
139.75
159.31
162.74
145.78
112.18
71.33
32.99
2.12
-23.11
-48.96
-81.13
-119.87
-158.25
-184.96
-190.64
-173.76
-142.41
-110.56
-90.92
-87.80
-94.59
-97.73
-84.86
-52.86
-10.04
28.65
50.18
51.31
40.39
32.37
39.85
65.65
101.32
132.88
149.29
148.99
140.49
136.76
147.04
171.22
199.81
220.06
223.70
211.35
191.31
173.71
163.60
157.65
145.85
118.10
70.94
10.48
-50.28
-98.21
-126.84
-139.51
-147.40
-163.09
-193.41
-235.36
-277.18
-304.07
-305.24
-278.99
-233.23
-181.26
-134.94
-98.85
-69.08
-36.96
4.79
56.78
111.67
157.67
184.82
190.42
180.36
165.09
153.46
147.80
142.73
128.96
99.22
53.29
-0.81
-50.46
-85.05
-101.17
-104.22
-105.10
-113.61
-132.37
-154.58
-167.42
-159.57
-128.33
-81.75
-34.50
0.06
17.46
24.20
32.98
54.29
89.19
128.16
156.84
164.52
150.09
122.09
92.94
70.98
55.94
39.86
13.13
-28.52
-80.14
-128.89
-159.74
-162.44
-135.93
-88.66
-34.57
12.76
45.24
61.81
66.67
64.97
58.88
46.14
22.53
-13.77
-58.10
-98.95
-122.15
-117.62
-84.71
-33.51
20.04
62.19
87.40
99.29
106.36
114.40
121.67
119.57
97.87
51.84
-13.05
-82.04
-137.17
-164.70
-160.64
-131.34
-89.48
-47.95
-14.55
9.96
29.84
49.72
70.37
86.92
91.28
76.84
43.39
-1.02
-42.90
-69.59
-75.50
-64.77
-48.36
-37.10
-34.84
-36.22
-29.88
-6.26
35.51
85.52
127.66
147.98
142.06
116.65
84.87
57.96
39.00
22.34
-1.55
-38.68
-86.11
-131.89
-160.14
-158.90
-125.88
-69.58
-4.97
53.05
95.69
122.00
136.42
144.10
146.57
140.79
122.34
89.69
47.03
3.52
-31.27
-52.70
-63.69
-73.38
-92.04
-124.53
-167.02
-208.02
-233.92
-235.83
-214.39
-179.24
-144.25
-120.49
-110.52
-107.61
-100.14
-78.57
-41.26
4.48
46.59
75.18
88.54
93.96
103.18
125.28
161.12
202.52
237.28
256.06
257.29
247.15
234.67
225.25
217.06
201.81
170.32
119.24
54.26
-11.56
-64.20
-95.86
-109.04
-114.65
-125.86
-150.84
-187.89
-225.74
-249.05
-246.11
-214.58
-162.12
-101.99
-46.48
-1.53
34.30
66.27
98.08
127.91
148.41
151.04
132.03
95.67
53.00
16.12
-8.34
-22.57
-35.69
-57.98
-94.13
-139.55
-181.68
-205.75
-201.89
-170.07
-119.67
-64.64
-16.72
19.66
48.02
75.90
108.83
145.89
179.51
199.94
201.45
