1544027347.00
64.000000
-0.00
-0.00
-0.00
-0.00
-0.00
-0.00
-0.00
-0.00
-0.00
-0.01
-0.00
0.00
0.01
0.01
-0.00
-0.03
-0.05
-0.05
-0.00
0.13
0.36
0.66
1.01
1.37
1.72
2.06
2.40
2.77
3.24
3.80
4.43
5.08
5.72
6.30
6.85
7.43
8.07
8.95
10.05
11.33
12.67
13.97
15.16
16.30
17.54
19.03
21.13
23.85
27.06
30.50
33.88
37.03
40.04
43.25
46.98
51.92
58.10
65.26
72.85
80.29
87.22
93.75
100.45
107.95
117.31
128.60
141.45
155.00
168.33
180.89
192.78
205.76
218.16
232.24
248.74
268.33
290.97
315.37
338.62
356.51
364.65
359.74
341.52
311.82
274.34
233.06
190.95
149.46
109.11
70.22
33.37
-0.13
-29.63
-55.37
-78.40
-100.03
-121.05
-141.22
-159.38
-174.17
-184.62
-191.31
-196.06
-201.32
-208.94
-219.57
-232.34
-245.34
-256.63
-265.06
-271.01
-276.12
-282.42
-291.42
-303.96
-320.07
-338.95
-359.02
-377.66
-391.05
-394.91
-386.07
-364.10
-332.00
-295.53
-260.94
-232.23
-209.69
-190.59
-171.16
-149.13
-125.21
-102.44
-84.06
-71.37
-62.97
-55.40
-45.29
-31.48
-15.65
-1.47
7.66
10.63
9.48
8.33
11.09
19.16
30.48
40.73
45.79
44.09
37.71
31.14
28.66
31.93
39.20
46.38
49.45
46.83
40.15
33.08
29.22
30.15
34.64
39.47
41.44
39.08
33.32
26.96
23.07
23.19
26.43
30.17
31.56
28.89
22.83
16.24
12.44
13.41
18.85
26.17
31.83
33.30
30.52
25.70
21.84
21.11
23.49
26.73
28.05
25.84
20.70
15.09
11.91
12.69
16.55
20.81
22.66
20.55
15.22
9.20
5.31
5.10
7.96
11.52
13.08
11.01
5.83
-0.13
-4.11
-4.54
-1.95
1.38
2.66
0.37
-4.89
-10.78
-14.60
-14.86
-12.11
-8.65
-7.10
-8.94
-13.63
-19.04
-22.58
-22.68
-19.72
-15.70
-13.07
-13.35
-16.24
-19.71
-21.28
-19.50
-14.81
-9.27
-5.49
-5.09
-7.68
-11.24
-13.33
-12.48
-9.04
-4.92
-2.54
-3.16
-6.34
-10.21
-12.39
-11.33
-7.27
-2.05
1.99
3.23
1.58
-1.25
-2.65
-0.85
4.04
10.09
14.45
14.86
11.36
6.43
3.50
4.88
10.50
17.74
22.74
22.90
18.67
13.13
10.15
12.24
18.94
26.83
31.69
31.19
26.02
19.49
15.79
17.55
24.09
31.96
37.07
36.86
31.60
24.55
20.04
20.71
26.11
33.06
37.41
36.24
29.94
22.04
16.89
17.09
22.14
28.63
32.09
29.83
22.66
14.02
8.02
7.18
11.12
16.60
19.74
18.37
12.97
6.30
2.04
2.64
7.70
14.32
18.82
18.52
13.24
5.77
0.27
-0.32
4.15
10.92
15.77
15.33
9.49
1.45
-4.40
-4.89
0.08
7.33
12.22
11.62
5.82
-2.02
-7.56
-7.79
-2.80
4.13
8.75
8.29
2.78
-4.80
-10.13
-10.12
-4.77
2.96
8.84
9.59
4.93
-2.07
-6.88
-6.40
-0.62
7.30
12.70
12.27
6.29
-1.74
-7.31
-7.28
-1.69
6.25
12.15
13.17
9.30
3.17
-1.44
-1.75
2.31
8.22
12.45
12.35
7.63
0.92
-3.82
-3.68
1.49
8.85
13.92
13.24
6.63
-2.70
-9.92
-11.46
-7.00
0.22
5.40
5.10
-0.83
-8.98
-14.61
-14.27
-7.89
1.16
7.94
8.79
3.52
-4.47
-10.09
-9.43
-2.15
8.14
15.97
16.96
10.36
-0.51
-9.95
-13.28
-9.41
-1.23
5.93
7.37
1.82
-7.80
-16.20
-18.64
-13.61
-3.80
5.46
9.34
6.23
-1.35
-8.35
-10.11
-5.22
3.63
11.45
13.71
8.88
-0.63
-9.87
-14.28
-12.01
-4.97
2.36
5.45
2.43
-4.83
-11.73
-13.68
-8.77
0.87
10.34
14.75
12.02
4.26
-3.76
-7.28
-4.49
2.60
9.49
11.93
8.42
1.01
-6.11
-8.95
-6.01
0.79
7.39
9.93
6.88
0.02
-6.29
-7.72
-2.63
6.97
16.33
20.43
16.95
7.87
-1.76
-6.89
-5.13
1.83
9.10
11.64
7.38
-1.71
-11.03
-15.82
-13.91
-7.20
-0.32
2.39
-0.87
-8.30
-15.26
-17.10
-12.12
-2.58
6.68
10.80
7.70
-0.33
-7.95
-10.20
-5.42
3.96
12.62
15.52
11.08
2.16
-6.13
-9.35
-6.14
0.97
7.18
8.50
4.11
-3.63
-10.43
-12.39
-8.29
-0.36
7.18
10.40
7.56
0.40
-6.62
-8.81
-4.19
5.60
15.87
21.22
18.77
10.04
-0.10
-6.37
-5.87
0.18
7.16
9.99
6.38
-1.99
-10.71
-15.03
-12.70
-5.45
2.18
5.70
3.07
-4.08
-11.19
-13.48
-8.93
0.52
10.14
14.87
12.36
4.66
-3.02
-5.55
-0.95
8.39
16.84
18.98
12.95
1.69
-8.90
-13.49
-10.32
-2.27
4.80
5.60
-1.40
-13.45
-25.06
-31.02
-29.18
-21.47
-12.49
-6.68
-6.30
-10.34
-15.32
-17.60
-15.38
-9.39
-2.30
2.80
4.36
3.19
1.72
2.52
6.85
13.66
20.00
22.88
20.89
15.09
8.79
5.71
7.75
13.79
20.29
23.02
19.58
11.13
1.82
-3.67
-2.75
3.55
11.16
15.24
13.23
6.26
-1.93
-7.15
-7.25
-3.17
1.67
3.67
1.21
-4.65
-10.78
-13.69
-11.55
-5.32
1.77
5.96
4.95
-0.63
-7.17
-10.19
-6.87
2.11
12.78
19.86
19.70
12.53
2.20
-6.04
-8.47
-4.92
1.24
5.19
3.51
-3.72
-13.05
-19.51
-19.44
-12.77
-3.14
4.03
4.69
-1.41
-10.28
-16.05
-14.42
-5.35
6.89
16.09
17.66
11.33
1.03
-7.41
-9.79
-5.65
1.59
6.83
6.34
-0.10
-9.16
-15.82
-16.20
-9.95
-0.42
7.17
8.69
3.53
-4.68
-10.26
-8.92
-0.24
11.88
21.29
23.14
16.79
6.05
-3.31
-6.70
-3.28
3.62
8.72
8.16
1.82
-6.94
-12.95
-12.40
-5.41
4.07
10.72
10.80
4.25
-4.78
-10.50
-9.05
-0.87
9.76
16.96
16.57
8.90
-1.37
-8.28
-8.08
-0.98
8.79
15.27
14.39
6.37
-4.98
-14.44
-17.89
-14.58
-7.59
-1.73
-0.63
-5.06
-12.68
-18.95
-19.88
-14.60
-5.79
2.15
5.28
2.39
-3.78
-8.24
-6.95
0.54
10.97
18.87
19.54
12.26
1.06
-7.79
-9.55
-3.32
7.18
15.51
16.55
9.82
-0.58
-8.64
-9.75
-3.39
6.28
13.12
12.90
5.58
-5.21
-13.99
-16.49
-12.17
-4.40
1.92
3.12
-1.68
-9.73
-16.03
-16.34
-9.91
0.34
9.35
12.35
7.93
-0.65
-7.41
-7.53
-0.09
11.37
20.60
22.33
15.81
5.33
-2.82
-3.96
2.58
12.92
20.83
21.67
15.04
4.33
-5.26
-9.41
-7.14
-1.33
3.37
3.54
-1.43
-9.10
-14.97
-15.32
-9.68
-1.11
5.77
7.05
1.74
-7.07
-13.99
-14.57
-8.02
2.69
12.10
15.21
10.57
1.32
-7.05
-9.84
-5.49
3.32
11.08
12.81
7.09
-3.47
-13.68
-18.45
-15.75
-7.88
0.07
3.24
-0.39
-8.74
-16.64
-18.91
-13.57
-3.01
7.42
12.31
9.48
1.55
-5.73
-6.98
-0.48
10.81
20.73
23.60
17.69
6.14
-4.91
-9.96
-7.18
0.57
7.61
8.95
3.30
-6.29
-14.18
-15.52
-9.16
1.55
10.74
13.30
7.89
-2.17
-10.89
-12.94
-6.84
4.18
14.12
17.39
11.99
0.57
-10.98
-17.11
-15.46
-7.97
0.14
3.48
-0.27
-9.02
-17.56
-20.48
-15.35
-4.26
7.25
13.55
11.98
4.44
-3.92
-7.69
-4.55
3.51
11.66
15.00
11.46
3.04
-5.40
-9.16
-6.21
1.62
9.71
13.29
10.32
2.67
-4.80
-7.14
-2.27
7.71
17.60
22.11
18.86
9.90
0.18
-5.25
-4.22
1.51
7.47
9.23
5.02
-3.34
-11.59
-15.53
-13.36
-6.80
0.02
2.91
0.03
-6.95
-13.59
-15.35
-10.29
-0.35
9.60
14.45
11.85
3.68
-5.18
-9.64
-7.41
-0.26
7.12
9.97
6.18
-2.40
-11.18
-15.45
-12.98
-5.35
3.11
7.73
6.33
0.37
-5.76
-7.51
-2.91
6.16
14.93
18.55
15.05
6.58
-1.96
-5.83
-3.22
3.74
10.29
11.96
7.12
-2.09
-11.05
-15.28
-12.84
-5.50
2.39
6.29
4.00
-2.95
-10.11
-12.80
-8.85
0.01
9.06
13.22
10.16
1.81
-7.01
-11.39
-9.18
-2.14
5.12
8.03
4.68
-3.20
-11.32
-15.18
-12.57
-4.90
3.71
8.75
7.70
1.66
-5.04
-7.39
-2.84
7.30
18.28
24.41
22.44
13.63
2.79
-4.47
-4.89
0.71
7.93
11.57
8.66
0.01
-10.36
-17.54
-18.36
-13.30
-6.01
-1.22
-2.00
-7.84
-14.70
-17.40
-12.78
-1.76
10.87
19.10
19.01
11.11
0.03
-8.10
-9.31
-3.81
4.46
10.13
9.48
2.87
-5.87
-11.81
-11.66
-5.59
2.74
8.37
8.26
2.95
-3.78
-7.04
-3.88
4.43
13.24
17.21
13.24
2.44
-10.04
-18.11
-18.26
-11.18
-1.48
4.69
3.40
-4.56
-14.46
-20.20
-17.56
-7.03
6.39
16.35
18.59
13.05
3.96
-2.88
-3.85
0.58
6.72
9.80
7.03
-0.17
-7.34
-9.80
-5.28
4.64
14.87
19.89
16.88
7.00
-5.14
-13.65
-14.82
-9.18
-0.62
5.68
5.92
0.12
-7.96
-13.43
-12.96
-6.49
2.44
8.68
8.92
3.57
-3.64
-7.60
-4.94
3.41
12.70
17.36
13.95
3.42
-9.00
-16.92
-16.54
-8.61
1.94
8.65
7.36
-1.19
-12.02
-18.76
-17.14
-7.54
5.07
14.33
15.90
9.70
-0.16
-7.73
-8.98
-3.88
4.07
9.82
9.70
3.97
-3.55
-7.99
-6.12
1.73
11.37
17.24
15.87
7.90
-2.20
-8.40
-6.78
1.75
12.06
17.76
14.63
3.26
-10.88
-20.82
-22.01
-14.52
-3.04
5.64
6.82
0.59
-8.69
-14.84
-13.36
-4.31
7.74
16.69
18.14
11.77
1.58
-6.63
-8.90
-5.09
1.42
5.66
4.16
-2.55
-10.48
-14.69
-12.12
-3.61
6.03
10.85
7.24
-4.19
-18.79
-30.20
-34.06
-30.54
-23.73
-19.36
-21.74
-31.14
-43.57
-53.59
-57.33
-54.47
-48.71
-45.59
-48.85
-58.25
-69.85
-78.12
-79.35
-74.51
-68.78
-68.41
-77.32
-94.51
-114.28
-129.64
-136.34
-134.68
-128.97
-124.60
-124.45
-127.16
-128.46
-123.84
-111.26
-92.51
-71.82
-52.98
-37.13
-22.29
-4.22
21.26
56.01
99.02
147.10
196.15
242.63
284.46
320.57
350.26
373.07
388.46
395.91
395.32
387.33
373.10
353.95
330.93
304.58
275.02
242.35
207.81
172.14
136.19
100.77
66.49
33.56
1.85
-28.70
-57.86
-84.94
-109.20
-129.96
-147.03
-160.78
-172.15
-182.86
-195.15
-211.81
-235.47
-267.18
-304.82
-342.60
-372.22
-384.82
-375.99
-347.70
-307.34
-264.45
-226.77
-198.07
-178.75
-168.33
-167.14
-176.01
-194.02
-216.41
-234.68
-239.80
-226.39
-195.76
-155.40
-115.53
-83.72
-61.44
-44.62
-26.91
-3.50
26.98
63.13
103.05
145.32
189.81
236.69
284.97
331.15
371.30
403.11
427.15
449.54
474.75
502.79
528.34
540.97
531.27
495.05
435.65
362.95
290.03
227.80
181.57
148.90
123.12
96.63
64.17
24.55
-20.01
-65.94
-110.98
-154.61
-197.27
-238.96
-278.32
-312.95
-340.45
-359.63
-370.97
-376.53
-378.76
-379.22
-378.00
-373.84
-365.42
-351.23
-330.50
-303.51
-271.58
-236.49
-199.95
-163.18
-126.88
-91.30
-56.38
-22.04
11.66
44.45
76.10
106.67
136.80
167.40
198.90
230.51
259.53
281.55
292.42
290.01
275.25
251.94
225.14
199.18
176.22
156.11
137.49
119.36
101.90
86.32
73.80
64.46
57.09
49.80
41.04
30.64
19.89
10.79
4.89
2.27
1.50
0.35
-2.95
-8.68
-15.48
-21.15
-23.99
-23.69
-21.62
-20.05
-20.88
-24.53
-29.81
-34.54
-36.79
-35.87
-32.65
-28.94
-26.37
-25.57
-25.91
-26.04
-24.86
-22.25
-19.06
-16.56
-15.70
-16.38
-17.59
-17.98
-16.63
-13.67
-10.18
-7.65
-7.10
-8.55
-10.99
-12.94
-13.25
-11.72
-9.13
-6.81
-5.85
-6.53
-8.17
-9.55
-9.66
-8.25
-6.03
-4.23
-3.90
-5.22
-7.49
-9.43
-10.02
-9.09
-7.43
-6.27
-6.59
-8.46
-10.94
-12.62
-12.46
-10.38
-7.39
-5.05
-4.56
-6.11
-8.76
-11.00
-11.59
-10.29
-7.89
-5.71
-4.72
-4.97
-5.61
-5.47
-3.82
-0.82
2.59
5.28
6.57
6.54
5.85
5.32
5.45
6.20
7.03
7.36
6.84
5.69
4.57
4.26
5.17
7.12
9.32
10.68
10.40
8.42
5.52
2.98
1.88
2.54
4.26
5.76
5.85
4.17
1.37
-1.21
-2.32
-1.47
0.69
2.75
3.37
2.05
-0.52
-2.92
-3.76
-2.59
-0.13
2.10
2.70
1.21
-1.60
-4.16
-5.05
-3.82
-1.28
0.96
1.48
-0.14
-2.98
-5.35
-5.75
-3.74
-0.22
3.09
4.57
3.60
0.83
-2.21
-3.99
-3.79
-2.01
0.14
1.35
0.91
-0.91
-3.20
-5.28
-7.06
-9.05
-11.72
-14.75
-16.77
-16.14
-12.24
-6.43
-1.73
-1.51
-7.48
-18.65
-31.60
-42.07
-46.93
-45.59
-40.04
-33.82
-30.24
-30.96
-35.34
-40.85
-44.17
-42.90
-36.85
-28.33
-21.24
-19.33
-24.14
-33.97
-44.21
-49.36
-45.26
-31.05
-9.58
13.98
34.06
46.54
49.36
42.38
27.01
6.43
-14.01
-27.27
-26.80
-9.69
20.99
56.61
86.67
103.79
107.06
101.71
95.12
92.11
92.50
92.30
87.41
77.03
64.25
53.68
48.37
47.84
48.58
46.47
39.27
27.68
14.52
3.19
-4.09
-7.12
-7.43
-7.39
-9.05
-13.30
-19.61
-26.35
-31.51
-33.65
-32.45
-28.90
-24.87
-22.26
-22.16
-24.40
-27.70
-30.35
-31.10
-29.69
-26.87
-23.89
-21.85
-21.16
-21.45
-21.85
-21.43
-19.72
-16.79
-13.23
-9.79
-7.12
-5.50
-4.79
-4.56
-4.28
-3.59
-2.42
-0.95
0.60
2.09
3.60
5.32
7.35
9.55
11.55
12.91
13.40
13.16
12.66
12.57
13.37
15.19
17.74
20.50
23.04
25.25
27.37
29.88
33.17
37.31
41.87
45.98
48.53
48.55
45.80
41.00
35.78
32.15
31.64
34.54
39.57
44.35
46.23
43.41
35.67
24.50
12.48
2.20
-4.82
-8.53
-10.11
-11.18
-12.90
-15.54
-18.55
-21.09
-22.50
-22.61
-21.56
-19.53
-16.63
-13.05
-9.23
-5.81
-3.33
-1.42
1.24
6.57
16.22
30.20
46.39
60.94
69.86
71.33
66.78
60.32
56.55
57.56
61.04
60.94
50.14
24.13
-16.32
-65.08
-112.71
-149.87
-170.44
-173.15
-161.50
-142.48
-124.71
-116.28
-122.72
-145.21
-179.87
-218.70
-252.17
-272.07
-274.05
-258.51
-229.40
-192.05
-150.90
-108.42
-65.64
-23.27
17.11
52.73
80.59
98.90
107.94
110.07
108.54
106.02
103.72
101.23
97.42
91.49
83.79
75.71
69.05
64.98
63.49
63.38
62.89
60.58
55.91
49.52
42.80
37.24
33.86
32.80
33.30
34.05
33.76
31.70
27.95
23.33
18.98
15.88
14.44
14.35
14.85
15.03
14.32
12.62
10.32
8.00
6.23
5.26
5.04
5.24
5.42
5.20
4.49
3.49
2.69
2.66
3.75
5.87
8.44
10.70
12.05
12.44
12.42
12.84
14.39
17.03
20.03
22.29
22.98
22.03
20.11
18.38
17.95
19.73
24.27
31.88
42.62
56.05
70.91
85.09
95.88
100.92
99.31
92.40
83.72
77.73
78.00
85.49
97.95
111.10
120.34
123.34
120.95
116.71
114.61
116.39
120.02
120.15
110.34
86.10
47.44
-0.64
-49.39
-88.84
-110.53
-109.42
-85.20
-42.66
9.15
58.58
93.63
104.70
86.83
41.21
-24.88
-99.64
-169.91
-224.70
-258.04
-270.28
-266.96
-256.63
-247.81
-245.92
-251.72
-261.49
-268.94
-268.13
-256.65
-235.77
-210.15
-185.92
-168.26
-159.55
-158.63
-161.53
-163.07
-158.70
-145.48
-122.51
-90.64
-52.03
-10.00
31.23
67.09
93.80
109.42
114.68
112.53
107.01
101.78
98.93
98.43
98.65
97.62
94.26
88.90
82.95
77.91
74.50
72.24
69.90
66.35
61.36
55.74
50.84
47.61
45.93
44.63
42.16
37.55
31.15
24.51
19.49
17.19
17.16
17.59
16.34
12.17
5.51
-1.68
-7.01
-9.10
-8.34
-6.79
-6.99
-10.49
-16.90
-24.15
-29.70
-31.99
-31.42
-30.03
-30.35
-33.82
-40.04
-46.98
-52.36
-54.98
-55.40
-55.64
-57.80
-62.87
-70.14
-77.63
-83.15
-85.26
-83.72
-78.85
-71.05
-60.56
-48.02
-35.31
-25.42
-21.42
-24.76
-34.04
-45.35
-53.85
-55.74
-49.28
-34.53
-12.25
16.47
49.75
83.85
112.97
130.84
133.73
122.98
105.26
89.89
84.53
91.76
108.27
127.07
141.16
146.96
145.78
142.96
145.22
157.55
180.87
211.54
242.62
266.74
279.06
278.85
269.30
255.47
241.48
228.77
215.94
200.11
178.85
151.28
117.60
77.90
31.26
-23.43
-85.42
-150.30
-210.09
-255.56
-279.96
-282.05
-266.57
-241.94
-216.43
-194.91
-177.98
-163.36
-148.37
-131.89
-114.67
-98.36
-84.14
-72.14
-61.67
-52.02
-43.05
-35.23
-29.35
-25.93
-24.66
-24.42
-23.56
-20.77
-15.68
-9.12
-2.69
1.99
4.07
3.91
2.77
2.10
2.84
5.06
8.07
10.93
12.92
13.84
13.92
13.62
13.30
13.14
13.23
13.54
14.08
14.80
15.60
16.28
16.59
16.35
15.55
14.29
12.81
11.35
10.05
8.93
7.98
7.13
6.38
5.70
5.11
4.64
4.21
3.80
3.38
2.97
2.70
2.92
4.05
6.47
10.20
14.53
18.17
19.30
15.89
6.25
-10.24
-32.30
-56.50
-77.79
-90.83
-91.77
-79.76
-57.24
-29.10
-0.88
23.00
40.36
51.12
56.22
56.87
53.91
48.23
41.22
34.38
28.68
23.81
18.11
9.53
-2.85
-17.92
-32.67
-43.39
-47.87
-46.35
-41.30
-35.74
-31.22
-26.91
-20.38
-9.42
6.03
23.34
38.45
47.71
49.84
46.24
40.24
34.97
32.10
31.37
31.09
29.61
25.95
20.01
12.13
2.58
-8.56
-20.97
-33.78
-45.61
-54.85
-60.30
-61.45
-58.42
-51.79
-42.36
-31.14
-19.60
-9.68
-3.30
-1.66
-4.46
-9.73
-14.51
-16.08
-13.28
-6.87
0.62
6.55
9.19
8.58
6.29
4.35
4.15
5.80
8.31
10.36
11.08
10.37
8.78
7.08
5.79
5.04
4.67
4.44
4.24
4.03
3.75
3.29
2.54
1.39
-0.08
-1.53
-2.55
-2.79
-2.14
-0.86
0.64
1.94
2.90
3.77
5.04
7.15
10.07
13.13
15.15
15.01
12.36
8.02
3.94
2.34
4.53
10.01
16.37
20.37
19.49
13.39
4.16
-4.63
-9.60
-9.07
-3.35
5.60
15.30
23.54
28.71
29.68
25.75
17.06
5.16
-6.68
-14.14
-13.42
-3.15
14.46
33.85
48.02
51.40
42.25
23.58
1.80
-16.09
-25.66
-26.62
-22.26
-16.93
-13.37
-11.67
-10.03
-6.71
-1.59
3.87
7.98
10.50
13.19
18.80
29.12
43.95
60.89
76.74
88.88
96.27
99.00
97.61
92.49
83.77
71.45
55.48
35.87
12.87
-12.34
-37.13
-57.38
-68.70
-68.14
-55.76
-34.86
-10.72
11.51
28.59
39.57
44.98
45.65
42.13
34.95
25.17
14.91
6.45
1.01
-2.04
-4.93
-10.02
-18.06
-27.04
-33.06
-32.21
-23.04
-7.75
8.16
18.09
17.42
5.86
-12.11
-29.24
-38.87
-38.03
-28.37
-14.72
-1.87
7.87
15.27
22.80
31.91
41.69
49.25
51.81
48.57
41.15
32.78
26.44
23.71
24.68
28.55
34.05
39.45
42.68
41.73
35.93
26.66
17.47
12.36
13.76
20.83
29.47
34.44
31.95
21.68
6.93
-6.84
-14.57
-13.52
-4.38
9.44
23.76
35.30
42.92
47.35
50.00
51.52
51.22
47.38
38.68
25.48
10.36
-2.68
-10.01
-10.11
-4.67
1.99
4.44
-1.98
-19.68
-48.37
-85.10
-125.41
-164.25
-197.50
-223.05
-241.21
-253.94
-263.35
-270.43
-274.57
-274.26
-268.20
-256.27
-239.19
-218.05
-193.36
-164.90
-132.57
-97.31
-61.52
-28.50
-1.29
18.44
30.56
36.15
37.01
35.20
33.28
33.97
39.61
51.04
66.97
84.09
97.77
103.59
98.73
83.03
59.34
32.91
10.08
-3.46
-4.58
6.13
24.15
42.47
54.29
55.42
45.99
30.10
13.87
2.62
-1.17
1.61
7.91
14.45
19.27
22.24
24.16
25.65
26.40
25.34
21.59
15.44
8.68
3.72
2.56
5.58
11.34
17.31
21.21
22.08
20.58
18.43
17.33
18.16
20.71
24.07
27.33
30.00
31.97
33.10
32.93
30.79
26.27
19.82
13.07
8.43
8.18
13.27
22.73
33.78
42.89
47.25
45.95
40.33
33.31
28.16
27.15
30.85
38.26
47.63
57.44
67.17
77.35
88.84
101.99
115.73
127.37
133.46
130.93
118.29
96.17
66.81
32.77
-4.59
-45.68
-91.85
-143.32
-197.36
-247.72
-286.37
-306.67
-306.37
-288.88
-261.85
-233.92
-211.35
-196.11
-186.01
-176.82
-164.25
-145.13
-117.63
-81.07
-36.26
13.63
62.57
103.08
128.62
136.49
129.22
113.51
97.15
85.65
80.35
79.06
78.25
74.94
67.45
55.21
38.47
18.71
-0.88
-15.67
-21.44
-16.82
-5.12
6.35
9.09
-2.52
-28.32
-62.22
-94.85
-117.45
-125.27
-118.58
-101.54
-79.84
-58.50
-40.85
-28.71
-22.89
-23.71
-30.70
-41.59
-51.57
-54.04
-42.97
-15.83
24.39
69.70
109.94
136.83
146.92
142.27
128.47
111.59
95.47
80.83
66.13
49.46
30.04
8.84
-11.92
-29.66
-42.13
-47.86
-46.25
-37.72
-23.84
-7.15
9.20
22.21
29.86
31.62
28.43
22.18
14.93
8.30
3.08
-0.54
-2.81
-4.03
-4.40
-4.05
-2.97
-1.15
1.33
4.35
7.60
10.63
12.88
13.77
12.81
9.74
4.56
-2.43
-10.37
-17.64
-21.67
-19.38
-8.11
13.03
42.21
74.72
104.17
124.42
131.50
124.73
106.50
81.10
53.26
27.02
5.25
-10.33
-19.00
-20.95
-17.27
-9.84
-1.04
6.82
12.04
13.82
12.47
9.07
5.14
2.11
0.99
2.12
5.17
9.32
13.48
16.66
18.24
18.20
17.08
15.71
14.75
14.35
14.06
13.14
11.11
8.13
5.00
2.78
2.18
3.17
5.03
6.70
7.20
5.92
2.75
-2.16
-8.47
-15.77
-23.70
-32.00
-40.47
-48.91
-57.07
-64.62
-71.28
-76.77
-80.86
-83.30
-83.85
-82.33
-78.85
-74.01
-68.89
-64.82
-62.93
-63.96
-68.27
-75.83
-86.21
-98.00
-108.60
-114.48
-112.33
-100.58
-80.26
-54.86
-29.24
-8.52
2.77
1.07
-15.79
-47.66
-91.02
-138.68
-180.94
-208.35
-215.06
-201.18
-172.64
-138.76
-108.58
-87.68
-77.10
-74.22
-74.84
-75.24
-73.14
-67.40
-56.98
-40.25
-15.62
17.02
54.90
92.55
123.71
144.09
153.49
155.85
157.12
162.21
172.73
186.90
201.26
212.92
220.97
226.16
229.48
230.97
229.43
223.39
212.50
198.16
183.12
170.46
162.25
158.89
159.15
160.72
160.85
156.84
146.68
129.69
107.17
82.42
59.78
42.90
32.90
27.58
22.23
11.69
-7.23
-34.36
-66.39
-98.23
-124.62
-141.28
-145.47
-136.36
-115.28
-85.77
-53.12
-23.09
-0.22
13.55
19.11
19.31
17.17
14.59
12.07
9.35
6.45
4.26
4.16
7.23
13.78
23.46
35.95
51.28
69.42
89.26
107.77
120.33
122.67
113.38
95.29
74.73
58.58
51.02
51.74
56.70
60.89
61.11
57.22
51.25
45.31
39.67
32.38
20.53
2.23
-21.87
-48.25
-71.82
-88.01
-94.63
-92.92
-86.96
-81.86
-81.64
-87.71
-98.65
-111.41
-122.94
-131.37
-136.50
-139.21
-140.57
-141.15
-140.55
-137.55
-130.63
-118.90
-102.85
-85.07
-69.81
-61.78
-64.38
-78.03
-99.75
-123.95
-144.15
-154.76
-152.41
-136.58
-109.71
-76.61
-43.22
-15.17
4.15
14.39
17.79
17.55
15.55
10.79
-0.60
-23.12
-58.94
-105.01
-152.69
-189.72
-204.28
-189.62
-147.39
-88.35
-29.06
13.72
29.90
19.94
-5.67
-31.50
-44.27
-38.29
-16.73
11.90
38.98
60.42
77.46
94.50
115.32
140.72
168.82
196.85
222.47
243.27
255.68
255.13
238.22
205.85
164.72
125.44
97.94
86.32
86.83
90.27
87.06
71.74
44.20
7.28
-36.28
-85.10
-137.91
-191.29
-238.85
-273.40
-290.72
-292.32
-285.06
-278.58
-280.92
-295.09
-318.65
-345.33
-368.65
-383.27
-385.93
-375.35
-351.73
-316.23
-270.66
-217.54
-159.60
-99.55
-39.46
19.14
75.22
127.99
176.99
222.30
264.37
303.81
340.49
372.88
398.18
412.91
414.63
403.31
381.47
353.25
322.61
292.12
262.61
234.04
206.64
181.45
159.99
143.32
131.11
121.72
113.00
103.51
93.18
82.99
74.24
67.65
62.86
58.86
54.61
49.70
44.60
40.25
37.16
35.03
32.53
28.01
20.67
11.19
1.95
-4.11
-4.75
0.14
8.30
16.07
19.78
17.37
9.04
-3.18
-16.37
-27.89
-36.24
-41.06
-42.97
-43.03
-42.33
-42.03
-43.03
-45.84
-50.37
-55.58
-59.81
-61.15
-58.17
-50.61
-39.70
-27.92
-18.27
-12.96
-12.57
-15.66
-19.44
-21.37
-20.25
-17.14
-14.56
-15.05
-19.73
-27.57
-35.97
-42.11
-43.93
-40.36
-30.92
-15.58
4.66
27.23
47.91
62.05
66.72
62.28
52.51
42.90
37.98
39.47
46.10
55.12
64.10
72.02
79.13
85.99
92.62
98.60
103.54
107.60
111.39
115.33
119.26
122.46
124.20
124.51
124.65
126.57
131.73
140.05
149.44
156.50
158.01
152.47
140.77
125.84
111.37
100.40
94.67
94.75
100.09
109.98
123.56
139.55
155.99
170.87
181.82
186.83
184.69
175.04
158.19
135.09
106.75
73.97
37.27
-3.00
-46.28
-91.64
-138.03
-184.26
-229.24
-272.31
-313.37
-352.71
-390.85
-428.19
-464.61
-499.91
-533.38
-563.92
-590.30
-611.21
-625.38
-631.69
-629.09
-614.06
-583.92
-536.72
-471.72
-389.63
-292.86
-185.33
-72.33
40.37
147.33
243.61
325.56
391.03
439.34
470.89
487.67
492.16
487.01
474.87
457.88
437.74
415.83
393.20
370.53
348.27
326.59
305.48
284.80
264.90
245.83
227.48
209.62
191.97
174.31
156.45
138.36
120.14
101.93
83.77
65.73
47.83
30.09
12.55
-4.80
-21.93
-38.77
-55.26
-71.42
-87.29
-102.94
-118.43
-133.79
-149.06
-164.16
-178.93
-193.11
-206.42
-218.53
-229.04
-237.55
-243.62
-246.84
-246.85
-243.30
-235.90
-224.44
-208.77
-188.85
-164.75
-136.62
-104.73
-69.45
-31.24
9.32
51.49
94.40
137.10
178.53
217.62
253.34
284.81
311.29
332.21
347.17
355.83
357.93
353.38
342.28
324.93
301.90
273.99
242.29
207.94
171.89
135.16
98.71
63.41
30.15
-0.16
-26.62
-48.40
-64.99
-76.70
-84.20
-88.54
-90.91
-92.34
-93.48
-94.58
-95.35
-95.54
-95.91
-97.10
-99.78
-104.32
-110.63
-118.09
-125.80
-132.51
-137.72
-143.55
-151.45
-162.72
-178.19
-198.69
-225.80
-262.14
-308.96
-366.38
-434.11
-505.38
-570.42
-619.36
-645.18
-645.82
-624.12
-584.62
-535.18
-489.32
-457.68
-449.59
-470.81
-521.52
-595.56
-681.94
-766.05
-820.12
-829.12
-784.38
-687.56
-547.90
-377.43
-187.03
-1.21
174.40
352.33
518.13
662.00
774.09
847.01
878.20
870.56
834.74
784.53
730.19
673.71
616.90
559.44
501.42
444.60
391.99
346.39
310.66
284.25
261.86
240.99
220.22
199.68
180.80
165.09
153.28
145.89
141.62
136.88
130.18
120.78
108.98
95.79
82.41
69.80
58.88
49.70
41.06
32.46
23.27
13.05
1.59
-11.04
-24.43
-37.78
-50.28
-61.48
-70.99
-79.06
-86.66
-95.42
-107.20
-123.31
-143.68
-166.04
-186.15
-198.71
-199.07
-184.99
-157.74
-122.04
-84.66
-52.31
-29.57
-17.56
-13.79
-13.33
-10.56
-1.13
16.51
40.63
66.81
89.41
103.50
106.32
97.85
80.30
56.97
30.94
4.20
-22.52
-49.31
-76.50
-104.19
-132.17
-159.90
-186.69
-211.84
-234.73
-254.93
-272.09
-285.88
-295.78
-301.09
-301.17
-295.67
-285.05
-270.63
-254.62
-240.16
-231.05
-231.36
-244.21
-270.12
-305.53
-342.55
-370.86
-381.05
-368.31
-334.17
-285.75
-232.60
-182.99
-141.49
-108.69
-82.78
-61.50
-43.41
-27.93
-14.67
-2.91
8.65
21.34
36.11
53.29
72.52
93.10
114.37
135.75
156.91
177.66
197.82
217.41
236.87
257.25
280.36
308.54
343.88
387.11
436.50
487.43
533.27
567.34
585.32
587.13
577.21
563.13
552.64
550.58
556.88
566.62
571.98
565.33
541.98
501.31
446.35
382.00
313.10
243.33
175.12
110.17
50.23
-2.97
-48.68
-87.91
-123.67
-159.95
-199.73
-243.05
-286.61
-324.78
-351.74
-363.71
-359.75
-341.43
-311.96
-275.14
-235.05
-195.82
-161.09
-133.36
-113.25
-99.48
-89.86
-82.58
-77.03
-73.76
-73.38
-75.54
-78.76
-81.14
-81.42
-79.67
-76.91
-74.21
-71.99
-69.89
-67.29
-64.03
-60.75
-58.60
-58.51
-60.59
-63.84
-66.56
-67.11
-64.50
-58.90
-51.28
-42.88
-34.62
-26.75
-19.05
-11.15
-2.97
5.17
12.63
18.83
23.53
26.91
29.39
31.40
33.03
34.07
34.13
32.83
30.09
26.18
21.53
16.45
10.99
4.93
-2.00
-9.67
-17.44
-24.24
-29.03
-31.28
-31.26
-29.89
-28.31
-27.33
-27.12
-27.24
-27.10
-26.34
-24.98
-23.48
-22.34
-21.98
-22.65
-24.47
-27.69
-32.70
-39.97
-49.73
-61.67
-74.94
-88.11
-99.82
-108.89
-114.53
-116.00
-112.38
-102.51
-85.36
-60.78
-30.19
3.29
35.25
61.16
77.54
82.91
78.12
65.86
49.91
33.94
20.63
11.16
4.97
0.34
-5.12
-13.62
-26.57
-44.09
-64.51
-84.27
-98.49
-102.16
-92.08
-68.20
-34.24
3.26
37.05
61.42
73.65
74.24
65.84
51.80
34.88
16.80
-1.58
-19.83
-37.49
-53.94
-68.53
-80.93
-91.47
-101.29
-112.10
-125.79
-143.72
-166.07
-191.51
-217.25
-239.56
-254.82
-260.43
-255.56
-241.20
-219.59
-193.24
-164.21
-133.70
-102.38
-70.93
-40.28
-11.64
14.16
37.11
58.26
79.30
102.10
128.11
157.98
191.29
226.25
259.76
287.93
307.03
314.78
311.14
298.27
279.61
258.53
237.39
217.31
198.77
182.09
167.80
156.29
147.25
139.62
131.88
122.76
111.84
99.55
86.74
74.32
62.76
52.20
42.62
34.03
26.48
20.08
15.01
11.52
10.05
11.09
14.83
20.91
28.30
35.51
41.13
44.15
44.26
41.82
37.62
32.75
28.42
25.86
26.01
29.25
35.03
41.92
48.09
52.03
53.28
52.61
51.74
52.44
55.76
61.60
68.60
74.84
78.40
77.84
72.64
63.59
53.11
45.16
44.23
53.16
71.05
92.47
108.64
110.35
91.53
51.66
-3.98
-66.04
-124.18
-169.80
-198.06
-208.37
-203.84
-189.90
-172.54
-156.50
-143.88
-134.03
-124.53
-113.15
-99.43
-84.88
-72.11
-63.06
-57.83
-54.98
-52.62
-49.79
-46.82
-44.84
-44.18
-43.62
-40.91
-34.15
-23.48
-11.70
-3.10
-1.20
-6.61
-16.27
-24.85
-27.25
-21.03
-7.52
8.97
23.14
30.95
30.94
24.37
14.10
3.31
-5.43
-10.38
-10.37
-4.81
6.24
21.48
38.28
53.08
62.48
64.47
59.18
48.75
36.40
25.17
17.01
12.45
10.84
10.86
11.15
10.73
9.23
7.04
5.09
4.46
5.89
9.33
13.90
18.14
20.72
20.89
18.80
15.25
11.21
7.28
3.61
0.09
-3.25
-5.96
-7.43
-7.18
-5.31
-2.67
-0.46
0.31
-0.62
-2.67
-4.79
-6.01
-6.00
-5.20
-4.47
-4.53
-5.52
-6.83
-7.53
-6.84
-4.68
-1.70
1.00
2.46
2.39
1.24
-0.06
-0.69
-0.40
0.38
0.95
0.81
0.05
-0.70
-0.75
0.15
1.54
2.49
2.15
0.29
-2.48
-5.04
-6.30
-5.80
-3.96
-1.85
-0.64
-0.99
-2.83
-5.42
-7.76
-9.07
-9.15
-8.47
-7.91
-8.23
-9.63
-11.59
-13.08
-13.10
-11.23
-7.83
-3.89
-0.43
1.94
3.23
3.88
4.27
4.28
3.18
0.15
-5.09
-11.61
-17.26
-19.16
-14.86
-3.54
13.32
32.12
48.39
58.39
60.53
55.67
46.46
35.84
25.88
17.17
9.28
1.68
-5.64
-11.99
-16.58
-19.11
-20.11
-20.41
-20.44
-19.68
-16.77
-10.55
-0.99
10.17
19.91
25.25
24.65
18.79
10.20
2.08
-3.06
-4.34
-2.50
0.87
4.20
6.66
8.20
9.21
10.01
10.52
10.30
8.87
6.20
2.88
0.05
-1.16
-0.29
2.20
5.07
6.91
6.92
5.36
3.34
2.22
2.80
4.72
6.69
7.24
5.50
1.80
-2.47
-5.70
-6.90
-6.35
-5.38
-5.51
-7.59
-11.15
-14.63
-16.41
-15.64
-12.83
-9.53
-7.44
-7.33
-8.80
-10.49
-10.91
-9.36
-6.25
-2.77
-0.24
0.65
0.23
-0.58
-0.80
0.06
1.69
3.18
3.65
2.73
0.76
-1.31
-2.58
-2.63
-1.81
-1.05
-1.31
-3.03
-5.87
-8.88
-10.97
-11.45
-10.31
-8.19
-6.05
-4.63
-4.18
-4.33
-4.34
-3.52
-1.65
0.95
3.53
5.35
6.03
5.68
4.73
3.55
2.18
0.45
-1.73
-4.02
-5.57
-5.49
-3.36
0.45
4.80
8.33
10.04
9.76
8.03
5.86
4.09
3.18
3.01
3.13
3.04
2.45
1.41
0.22
-0.70
-1.09
-0.99
-0.71
-0.56
-0.61
-0.53
0.19
1.90
4.48
7.23
9.19
9.68
8.64
6.73
4.91
3.97
4.03
4.58
4.76
3.86
1.77
-1.00
-3.55
-5.08
-5.26
-4.39
-3.22
-2.61
-3.02
-4.38
-6.16
-7.66
-8.54
-8.92
-9.36
-10.43
-12.25
-14.31
-15.74
-15.75
-14.18
-11.65
-9.36
-8.42
-9.29
-11.42
-13.47
-14.02
-12.14
-7.90
-2.23
3.55
8.38
11.84
14.12
15.70
16.91
17.72
17.85
17.08
15.59
13.95
12.86
12.76
13.57
14.64
15.14
14.48
12.63
10.14
7.83
6.39
6.07
6.44
6.80
6.47
5.14
3.05
0.85
-0.90
-1.92
-2.47
-3.13
-4.47
-6.65
-9.26
-11.56
-12.89
-13.06
-12.53
-12.10
-12.51
-13.94
-15.96
-17.76
-18.70
-18.70
-18.33
-18.44
-19.64
-21.90
-24.50
-26.46
-27.16
-26.59
-25.46
-24.74
-25.09
-26.47
-28.15
-29.02
-28.06
-24.78
-19.30
-12.31
-4.78
2.31
8.21
12.47
14.96
15.76
15.14
13.41
10.93
8.02
5.00
2.06
-0.66
-2.99
-4.65
-5.20
-4.11
-0.94
4.44
11.67
19.95
28.22
35.40
40.59
43.29
43.47
41.67
38.88
36.23
34.63
34.42
35.24
36.29
36.77
36.20
34.54
31.91
28.43
24.06
18.76
12.74
6.58
1.08
-3.12
-5.95
-8.07
-10.71
-15.12
-21.97
-30.91
-40.59
-49.06
-54.60
-56.45
-55.24
-52.68
-50.87
-51.31
-54.19
-58.43
-62.32
-64.36
-64.09
-62.25
-60.41
-60.29
-63.04
-68.91
-77.09
-85.82
-92.40
-93.36
-85.04
-64.67
-31.83
10.68
56.95
99.41
131.12
147.79
148.82
137.00
117.16
94.43
73.09
55.93
44.21
38.11
37.01
39.79
45.16
51.71
57.82
61.75
61.74
56.49
45.96
31.66
16.31
2.95
-6.48
-11.91
-14.90
-17.73
-21.90
-27.33
-32.47
-35.51
-35.59
-33.63
-31.98
-33.13
-38.25
-46.40
-54.82
-60.26
-60.53
-55.52
-47.32
-39.20
-34.27
-34.18
-38.45
-44.70
-49.51
-49.52
-42.40
-27.62
-6.49
18.21
42.90
64.15
79.37
87.17
87.48
81.34
70.63
57.74
45.23
35.27
29.26
27.35
28.51
30.89
32.56
32.18
29.57
25.51
21.34
18.22
16.61
16.20
16.20
15.89
14.88
13.34
11.64
10.08
8.70
7.29
5.76
4.56
4.67
6.99
11.63
17.38
21.69
21.86
16.53
6.81
-3.79
-10.66
-10.29
-2.25
10.53
23.15
31.08
32.38
28.34
22.16
16.94
14.01
12.57
10.85
7.86
4.34
2.37
3.88
8.92
15.06
18.52
16.15
7.25
-5.85
-18.92
-28.09
-31.65
-30.61
-27.90
-26.35
-27.03
-28.71
-28.85
-25.17
-17.11
-6.18
4.81
13.22
17.63
18.16
16.02
12.37
7.66
1.35
-7.47
-19.28
-33.32
-47.44
-58.93
-65.59
-66.93
-64.60
-61.70
-61.25
-64.55
-70.35
-75.01
-73.85
-62.72
-39.44
-4.74
37.48
80.66
117.07
139.97
145.91
136.14
116.18
93.48
74.36
61.63
54.14
48.54
41.78
33.14
24.54
19.10
19.11
24.37
31.91
36.84
34.39
21.99
0.45
-26.09
-51.72
-71.20
-81.97
-84.76
-82.66
-79.07
-75.94
-73.22
-69.61
-64.04
-56.81
-49.53
-44.30
-42.44
-43.78
-46.80
-49.42
-49.97
-47.93
-44.03
-39.89
-37.34
-37.70
-41.44
-47.97
-55.72
-62.49
-65.82
-63.56
-54.55
-39.11
-19.23
1.96
21.26
36.69
48.18
57.28
66.08
75.77
85.86
94.62
100.15
101.38
98.48
92.21
83.12
71.05
55.65
37.09
16.84
-2.53
-18.28
-28.57
-33.15
-33.23
-30.68
-27.14
-23.58
-20.34
-17.42
-14.95
-13.20
-12.49
-12.86
-13.77
-13.92
-11.48
-4.72
7.15
23.36
41.59
58.72
71.97
79.96
82.99
82.49
79.91
75.66
68.91
58.10
42.15
21.44
-1.91
-24.69
-43.84
-57.62
-66.08
-70.64
-73.06
-74.49
-74.91
-73.54
-69.60
-63.19
-55.48
-48.25
-42.98
-40.02
-38.33
-35.96
-31.00
-22.59
-11.32
0.96
11.97
20.06
24.67
26.48
26.68
26.30
25.63
24.26
21.52
17.12
11.52
5.83
1.23
-1.63
-2.91
-3.49
-4.37
-6.14
-8.60
-10.97
-12.35
-12.30
-11.09
-9.49
-8.32
-7.91
-7.90
-7.54
-6.20
-3.87
-1.18
0.89
1.65
1.08
-0.06
-0.74
-0.19
1.67
4.16
6.20
6.85
5.71
3.04
-0.40
-3.81
-6.59
-8.55
-9.82
-10.66
-11.31
-11.83
-12.27
-12.71
-13.31
-14.16
-15.04
-15.31
-14.12
-10.78
-5.33
1.37
7.89
12.86
15.54
16.00
14.91
13.07
10.97
8.79
6.57
4.47
2.82
1.95
1.94
2.61
3.57
4.50
5.32
6.19
7.35
8.98
11.01
13.16
14.92
15.72
15.08
12.69
8.53
2.90
-3.58
-10.15
-15.95
-20.11
-21.87
-20.65
-16.37
-9.60
-1.59
6.05
11.80
14.76
14.93
13.08
10.28
7.51
5.33
3.88
3.09
2.89
3.27
4.24
5.71
7.48
9.34
11.18
12.95
14.66
16.21
17.37
17.89
17.61
16.64
15.30
14.01
13.07
12.56
12.44
12.67
13.37
14.78
17.11
20.30
24.04
27.84
31.34
34.51
37.72
41.49
46.16
51.82
58.35
65.77
74.44
85.16
98.87
115.97
135.62
155.40
171.49
179.64
176.37
159.91
130.51
90.21
42.37
-8.81
-58.56
-102.09
-135.25
-155.58
-162.97
-159.71
-149.63
-136.84
-124.46
-113.99
-105.70
-99.24
-94.16
-90.08
-86.60
-83.09
-78.74
-72.80
-64.81
-54.77
-43.16
-30.83
-18.78
-7.92
1.12
8.17
13.44
17.36
20.39
22.85
24.99
27.04
29.43
32.69
37.39
43.71
51.16
58.35
63.21
63.62
58.27
47.45
33.14
18.40
6.28
-1.48
-4.87
-5.47
-5.48
-6.71
-9.93
-14.79
-20.31
-25.44
-29.54
-32.42
-34.32
-35.57
-36.38
-36.70
-36.27
-34.89
-32.58
-29.76
-27.16
-25.54
-25.30
-26.27
-27.68
-28.39
-27.39
-24.03
-18.32
-10.71
-2.08
6.53
14.18
20.14
24.07
26.14
26.96
27.25
27.57
27.93
27.88
26.68
23.83
19.38
13.99
8.71
4.47
1.65
-0.08
-1.63
-4.03
-7.93
-13.30
-19.39
-25.01
-29.08
-30.95
-30.74
-29.12
-27.01
-25.18
-23.94
-23.10
-22.21
-20.78
-18.44
-14.95
-10.22
-4.45
1.63
6.55
8.16
4.30
-6.40
-23.59
-44.99
-67.05
-86.14
-99.98
-108.18
-111.76
-112.23
-110.65
-107.44
-102.91
-97.92
-94.31
-94.45
-100.35
-112.63
-129.83
-148.42
-163.64
-170.80
-166.61
-149.96
-121.86
-84.68
-41.09
6.41
55.17
101.72
141.60
170.17
184.36
184.29
173.57
157.92
142.69
130.88
122.50
115.72
108.67
100.80
93.04
86.68
82.24
78.98
75.33
69.93
62.56
54.27
46.82
41.68
39.17
38.40
37.74
35.95
33.01
30.32
30.21
34.92
45.98
63.90
88.60
119.83
157.30
200.14
246.40
292.84
335.38
370.18
394.64
407.92
410.58
403.80
388.58
365.49
334.99
297.93
255.75
210.38
163.76
117.48
72.73
30.55
-8.14
-42.39
-71.54
-95.44
-114.63
-130.28
-143.99
-157.69
-173.29
-192.22
-214.74
-239.32
-262.60
-280.23
-288.28
-284.81
-270.60
-248.84
-223.83
-199.36
-177.68
-159.38
-144.09
-131.32
-120.93
-112.96
-107.07
-102.29
-97.09
-90.01
-80.33
-68.46
-55.70
-43.73
-33.70
-25.88
-19.65
-13.97
-8.15
-2.25
2.95
6.41
7.61
6.88
5.41
4.53
4.99
6.37
7.21
5.63
0.26
-9.05
-21.08
-33.72
-44.76
-52.71
-57.04
-58.16
-57.01
-54.90
-53.27
-53.55
-56.78
-63.21
-71.86
-80.53
-86.50
-87.52
-82.66
-72.59
-59.11
-44.30
-29.66
-15.97
-3.40
7.92
17.67
25.44
30.98
34.37
36.00
36.31
35.54
33.68
30.56
26.19
20.85
15.17
9.95
6.03
3.84
3.24
3.47
3.30
1.59
-2.19
-7.44
-12.61
-15.60
-14.70
-9.24
0.05
11.21
21.81
29.57
33.06
31.90
26.60
18.34
8.48
-1.82
-11.85
-21.36
-30.44
-39.17
-47.34
-54.28
-58.98
-60.53
-58.49
-53.27
-45.91
-37.84
-30.19
-23.39
-17.27
-11.22
-4.79
2.00
8.55
13.95
17.36
18.51
17.84
16.31
14.91
14.09
13.59
12.57
10.10
5.62
-0.90
-9.08
-18.44
-28.52
-38.82
-48.71
-57.50
-64.65
-70.13
-74.49
-78.48
-82.50
-86.02
-87.60
-85.44
-78.35
-66.12
-49.69
-30.50
-9.80
11.69
33.70
56.05
78.51
100.75
122.39
142.90
161.40
176.47
186.22
188.77
182.82
168.20
145.94
117.92
86.36
53.45
21.20
-8.47
-33.80
-53.38
-66.48
-73.34
-75.01
-73.06
-69.07
-64.16
-59.06
-53.97
-49.08
-44.60
-40.88
-38.04
-35.64
-32.70
-28.03
-20.97
-11.97
-2.66
4.67
8.17
7.33
3.25
-1.92
-6.08
-8.21
-8.72
-9.07
-10.72
-14.28
-19.08
-23.54
-26.03
-25.61
-22.44
-17.53
-12.13
-7.19
-3.05
0.38
3.15
5.02
5.33
3.29
-1.47
-8.50
-16.33
-22.89
-26.34
-26.12
-23.42
-21.00
-22.02
-28.46
-39.96
-53.82
-66.22
-74.02
-76.37
-74.91
-72.68
-72.53
-75.55
-80.63
-85.11
-85.95
-80.89
-69.22
-51.90
-31.14
-9.81
9.34
24.17
33.38
36.65
34.39
27.64
17.82
6.54
-4.73
-14.90
-23.64
-31.36
-38.86
-46.83
-55.34
-63.63
-70.58
-75.25
-77.16
-76.44
-73.35
-67.92
-59.91
-49.06
-35.37
-19.23
-1.31
17.70
37.09
55.90
72.75
85.90
93.86
96.06
93.28
87.43
80.57
73.88
67.12
59.15
48.88
36.35
22.97
10.82
1.70
-3.88
-6.78
-8.72
-11.58
-16.65
-24.41
-34.42
-45.23
-54.30
-58.07
-52.73
-35.55
-6.44
31.17
70.80
104.92
127.57
136.34
132.98
122.00
108.34
95.29
83.44
71.35
57.11
39.94
20.91
2.48
-12.72
-23.07
-28.48
-30.08
-29.25
-26.88
-23.00
-17.17
-9.34
-0.48
7.50
12.58
13.73
11.70
8.65
7.07
8.40
12.32
17.02
20.43
21.38
20.20
18.26
16.91
16.50
16.18
14.36
9.57
1.20
-10.37
-23.91
-37.77
-50.22
-59.77
-65.35
-66.52
-63.44
-56.68
-47.06
-35.38
-22.35
-8.62
5.09
18.01
29.32
38.30
44.43
47.52
47.65
45.19
40.70
34.83
28.16
21.10
13.91
6.82
0.06
-6.06
-11.33
-15.81
-19.78
-23.50
-26.92
-29.58
-30.76
-29.91
-27.03
-22.82
-18.34
-14.45
-11.41
-8.66
-5.24
-0.29
6.33
13.94
21.20
26.80
29.97
30.81
30.09
28.73
27.31
25.69
23.31
19.57
14.34
7.97
1.15
-5.63
-12.19
-18.64
-24.99
-30.83
-35.36
-37.74
-37.49
-34.75
-30.18
-24.55
-18.49
-12.23
-5.76
1.11
8.51
16.34
24.16
31.26
36.83
40.24
41.36
40.44
37.98
34.31
29.39
23.01
15.10
6.19
-2.56
-9.77
-14.48
-16.65
-17.16
-17.26
-17.80
-18.75
-19.15
-17.72
-13.62
-7.03
0.63
7.40
11.60
12.75
11.87
10.89
11.64
14.81
19.53
23.95
26.30
25.88
23.42
20.43
18.21
17.00
15.80
13.07
7.72
-0.13
-9.07
-16.94
-21.79
-22.51
-19.26
-13.13
-5.70
1.43
7.04
10.33
10.85
8.52
3.69
-2.70
-9.10
-13.48
-13.81
-8.71
1.84
16.50
32.86
48.29
60.74
69.26
74.00
75.51
73.85
67.86
55.44
34.60
5.00
-30.80
-67.42
-98.23
-117.71
-123.59
-117.55
-104.13
-88.49
-74.29
-62.61
-52.44
-42.37
-31.95
-21.99
-13.83
-8.01
-3.60
1.37
8.65
18.41
28.82
36.75
39.36
35.46
26.10
13.78
1.27
-9.66
-18.66
-26.24
-33.09
-39.12
-43.32
-44.01
-39.62
-29.42
-13.93
5.18
25.67
45.32
62.55
76.44
86.72
93.56
97.36
98.69
98.42
97.60
97.44
98.94
102.62
108.21
114.32
118.51
117.79
109.71
93.63
71.53
47.86
28.04
16.55
15.33
23.31
37.38
53.93
70.24
84.73
96.03
102.06
99.94
87.24
63.44
30.93
-5.53
-40.51
-70.06
-93.32
-112.14
-129.42
-146.57
-162.86
-175.56
-181.67
-178.99
-167.00
-146.92
-120.71
-90.36
-56.77
-20.81
16.23
51.96
83.25
106.53
117.97
114.41
93.79
56.25
2.82
-61.96
-133.23
-205.40
-272.48
-328.75
-368.90
-394.58
-406.02
-403.49
-387.75
-360.78
-325.51
-283.26
-237.03
-190.43
-147.03
-109.08
-78.49
-56.74
-45.11
-44.31
-54.32
-74.73
-104.24
-140.87
-181.37
-222.40
-260.81
-294.05
-320.15
-337.80
-346.71
-347.23
-340.27
-326.76
-308.11
-286.03
-262.43
-239.14
-217.67
-199.29
-184.64
-173.82
-166.15
-160.52
-155.57
-149.83
-141.96
-130.77
-115.50
-95.72
-71.34
-42.61
-10.24
24.62
60.47
95.68
128.55
157.48
181.17
198.70
209.62
213.98
212.30
205.45
194.53
180.75
165.29
149.21
133.33
118.28
104.41
91.95
80.98
71.57
63.81
57.79
53.68
51.67
51.92
54.52
59.44
66.41
74.95
84.39
93.90
102.61
109.70
114.50
116.60
115.81
112.24
106.23
98.35
89.30
79.85
70.82
62.91
56.68
52.43
50.20
49.73
50.58
52.22
54.16
56.03
57.69
59.09
60.26
61.13
61.50
61.03
59.40
56.44
52.30
47.41
42.39
37.87
34.22
31.51
29.57
28.19
27.43
27.77
30.02
35.10
43.64
55.66
70.47
86.93
103.81
120.23
135.91
151.18
166.83
183.84
203.24
225.77
251.41
278.84
305.14
326.22
337.83
337.13
323.83
300.40
271.12
240.50
211.74
186.20
163.82
144.14
127.06
113.05
102.58
95.54
91.00
87.63
84.49
81.47
79.16
78.28
78.85
79.95
80.10
78.08
73.48
66.93
59.52
52.07
44.74
37.21
29.30
21.29
13.66
6.38
-1.40
-10.91
-22.76
-35.90
-47.70
-55.06
-56.10
-51.16
-42.68
-33.82
-26.77
-21.79
-17.56
-12.40
-5.62
1.98
8.60
12.54
13.15
11.11
8.05
5.67
4.88
5.43
6.12
5.59
3.12
-0.97
-5.46
-8.95
-10.63
-10.78
-10.53
-11.24
-13.73
-17.82
-22.42
-26.05
-27.43
-26.06
-22.36
-17.49
-12.94
-10.00
-9.31
-10.66
-13.18
-15.70
-17.37
-18.10
-18.61
-20.18
-23.89
-30.15
-38.38
-47.33
-55.70
-62.59
-67.83
-71.78
-75.01
-78.08
-81.50
-85.68
-90.87
-96.83
-102.48
-105.95
-105.11
-98.33
-85.25
-67.08
-46.35
-26.25
-9.65
1.86
8.51
12.37
16.48
23.72
35.60
51.57
69.13
84.60
94.44
96.59
91.30
81.02
69.45
60.05
54.76
53.42
54.28
55.26
55.24
54.54
54.26
55.00
55.93
55.05
50.65
42.82
33.90
27.42
25.96
29.55
35.49
39.94
40.00
35.15
27.09
18.51
11.48
6.76
3.91
2.07
0.55
-1.04
-3.01
-5.74
-9.41
-13.52
-16.68
-16.84
-12.17
-2.16
11.59
25.42
34.59
35.22
26.08
9.53
-9.17
-24.07
-31.09
-29.70
-22.70
-14.23
-7.40
-2.94
0.61
5.17
11.43
18.12
22.76
23.20
18.90
11.21
2.62
-4.29
-7.79
-7.50
-4.28
0.10
3.70
5.11
4.01
1.29
-1.50
-2.88
-2.21
-0.04
2.37
3.86
4.12
3.75
3.82
5.08
7.42
10.02
11.82
12.10
10.69
7.82
3.77
-1.15
-6.64
-12.07
-16.51
-18.91
-18.59
-15.56
-10.61
-5.04
-0.37
2.07
1.39
-2.56
-9.08
-16.66
-23.45
-27.80
-28.83
-26.63
-22.02
-16.04
-9.53
-2.93
3.46
9.15
13.35
15.10
13.74
9.37
2.95
-3.88
-9.33
-12.07
-11.73
-8.95
-5.12
-1.77
0.14
0.63
0.51
0.86
2.28
4.55
6.75
8.01
8.10
7.76
8.20
10.41
14.40
19.06
22.63
23.53
21.12
15.94
9.38
2.85
-2.80
-7.41
-11.23
-14.29
-16.16
-16.07
-13.57
-9.05
-4.00
-0.46
-0.10
-3.27
-8.66
-13.85
-16.55
-15.72
-11.92
-6.80
-2.01
1.74
4.82
8.15
12.26
16.72
20.30
21.72
20.40
16.76
11.87
6.80
2.23
-1.57
-4.47
-6.32
-7.05
-6.87
-6.42
-6.45
-7.39
-8.98
-10.51
-11.19
-10.78
-9.71
-8.77
-8.47
-8.65
-8.51
-7.09
-3.81
1.13
6.87
12.17
15.88
17.15
15.58
11.20
4.49
-3.65
-11.91
-18.70
-22.54
-22.59
-19.04
-13.16
-6.83
-1.77
1.12
1.91
1.30
0.01
-1.71
-4.02
-7.03
-10.34
-12.81
-13.04
-10.09
-4.10
3.66
11.38
17.56
21.51
23.32
23.32
21.62
17.94
12.08
4.55
-3.10
-8.71
-10.50
-8.26
-3.64
0.49
1.47
-1.82
-8.42
-15.96
-21.95
-24.97
-25.04
-23.12
-20.16
-16.43
-11.52
-4.88
3.41
12.29
19.97
24.67
25.37
22.12
15.86
7.92
-0.52
-8.46
-15.02
-19.30
-20.62
-18.87
-14.84
-10.07
-6.24
-4.29
-3.96
-4.06
-3.27
-1.06
1.98
4.61
5.86
5.78
5.41
6.07
8.48
12.39
16.83
20.83
24.05
26.71
29.16
31.22
31.97
30.21
25.40
18.28
10.79
5.05
2.02
0.83
-0.86
-5.33
-13.33
-23.41
-32.74
-38.66
-40.22
-38.47
-35.51
-32.89
-30.55
-26.95
-20.30
-10.02
2.59
14.86
24.13
29.05
30.06
28.74
26.67
24.51
21.78
17.63
11.87
5.66
1.51
2.59
11.54
29.48
55.37
86.05
117.02
143.52
161.94
170.77
170.80
164.53
154.97
144.37
133.43
121.29
106.21
86.40
60.86
29.86
-4.93
-40.59
-73.52
-100.40
-119.14
-129.43
-132.42
-129.82
-123.00
-112.79
-100.12
-86.62
-74.86
-67.50
-65.96
-69.62
-76.05
-82.36
-86.52
-88.00
-87.19
-84.31
-78.78
-69.42
-55.60
-38.20
-19.81
-3.74
7.42
12.85
13.64
11.83
9.33
7.00
4.81
2.50
0.54
0.43
4.47
14.51
30.84
51.39
71.94
87.13
91.97
83.37
61.08
28.00
-10.48
-47.63
-77.03
-94.09
-97.13
-87.53
-69.07
-46.59
-24.58
-6.17
7.37
16.43
22.42
27.06
31.67
36.75
41.98
46.40
48.78
47.92
42.95
33.46
19.89
3.85
-11.98
-24.50
-31.41
-32.56
-30.34
-28.77
-31.49
-39.62
-51.04
-61.39
-66.41
-64.10
-55.59
-44.18
-33.41
-25.34
-20.11
-16.62
-13.78
-11.26
-9.59
-9.43
-11.01
-13.74
-16.50
-18.12
-17.82
-15.61
-12.24
-8.95
-6.93
-6.81
-8.35
-10.52
-12.06
-12.06
-10.32
-7.42
-4.21
-1.45
0.46
1.43
1.55
1.02
0.20
-0.39
-0.14
1.23
3.37
5.27
5.57
3.39
-1.00
-5.97
-8.95
-7.61
-0.99
9.77
21.69
31.14
35.40
33.82
27.93
20.69
15.11
13.06
14.82
19.21
24.36
28.41
30.28
30.00
28.72
28.10
29.71
34.56
42.79
53.80
66.42
78.76
88.07
90.76
83.37
64.23
35.01
1.14
-29.78
-50.96
-59.28
-56.41
-47.49
-38.20
-31.99
-29.02
-27.28
-24.70
-20.85
-17.22
-15.89
-17.86
-22.01
-25.48
-25.19
-19.46
-8.77
4.55
17.55
28.01
35.12
39.41
42.10
44.42
47.26
51.15
56.22
62.28
68.74
74.76
79.60
82.85
84.55
84.77
82.91
77.08
64.51
42.87
12.24
-23.61
-57.63
-81.80
-90.23
-81.74
-60.32
-33.19
-7.75
10.81
20.22
20.17
11.03
-6.38
-29.91
-55.05
-75.23
-84.02
-78.33
-60.50
-37.70
-18.66
-9.67
-12.02
-22.40
-35.53
-47.18
-55.71
-61.38
-64.56
-64.35
-58.85
-46.65
-28.35
-6.86
13.68
29.80
40.18
45.91
49.30
52.25
54.97
56.11
53.94
47.89
39.36
30.95
24.65
20.17
14.82
5.20
-10.25
-29.72
-48.58
-61.97
-67.44
-66.18
-61.59
-56.40
-50.42
-40.49
-22.92
3.26
34.61
64.24
84.91
92.15
85.81
69.39
48.21
27.49
11.46
3.24
5.05
17.95
41.11
71.31
103.13
130.12
146.80
149.99
139.21
115.97
82.64
42.06
-2.05
-44.81
-80.67
-104.88
-115.18
-112.67
-101.33
-86.20
-71.44
-59.29
-50.28
-44.36
-41.66
-42.47
-46.54
-52.52
-58.16
-61.41
-61.65
-60.09
-59.09
-60.52
-64.73
-70.22
-74.63
-76.20
-74.50
-70.52
-65.44
-59.30
-50.64
-37.30
-18.23
5.13
28.59
46.59
54.67
51.38
38.90
21.79
5.06
-7.57
-14.23
-14.45
-8.40
3.31
19.30
36.83
51.99
60.80
60.61
51.19
34.50
13.74
-7.92
-27.86
-43.92
-54.03
-56.25
-49.52
-34.58
-14.21
7.55
27.12
42.68
54.50
63.75
70.70
73.79
70.29
58.33
38.90
16.37
-3.24
-15.22
-18.75
-17.32
-16.71
-21.54
-32.83
-47.62
-61.04
-69.00
-69.98
-64.93
-55.66
-43.37
-28.02
-9.20
12.75
35.88
56.91
72.29
79.32
77.05
66.34
49.51
29.81
10.93
-3.69
-11.22
-10.03
0.00
17.41
39.08
60.45
75.97
80.23
69.55
43.55
5.97
-35.99
-73.66
-99.72
-110.41
-106.31
-91.34
-70.66
-48.57
-27.52
-8.43
8.23
21.49
29.71
31.26
25.52
13.77
-0.76
-13.92
-22.20
-24.33
-21.97
-18.85
-18.85
-23.90
-32.85
-42.17
-48.10
-48.94
-46.02
-42.57
-41.33
-42.25
-42.14
-36.28
-21.37
2.17
29.85
54.95
71.40
76.25
70.28
56.95
40.45
24.10
9.75
-1.61
-9.16
-11.90
-8.91
-0.14
12.88
26.86
37.50
40.71
34.17
18.15
-4.42
-28.82
-49.98
-63.85
-68.41
-63.86
-52.15
-35.92
-17.65
0.97
18.90
35.35
49.29
59.38
64.27
63.27
56.98
47.50
38.01
31.64
29.96
32.01
34.29
32.18
22.12
3.61
-20.42
-44.83
-64.75
-77.60
-83.69
-84.91
-82.78
-76.90
-65.37
-46.63
-21.55
5.78
29.42
44.28
48.39
43.50
33.65
22.91
13.61
6.18
0.41
-3.21
-3.10
2.36
13.18
26.59
37.55
40.79
33.40
16.40
-5.64
-26.64
-41.63
-48.44
-47.94
-42.65
-34.92
-25.69
-14.48
-0.40
16.51
34.53
50.63
61.69
65.96
63.85
57.57
50.08
43.90
40.55
40.45
43.13
47.17
50.07
48.48
39.21
20.77
-5.36
-34.72
-61.29
-79.83
-87.85
-86.04
-77.20
-64.35
-49.36
-32.85
-15.11
2.77
18.65
30.07
35.40
34.87
30.41
24.73
20.08
17.42
16.52
16.78
18.02
20.47
23.92
26.78
25.81
17.51
0.11
-24.67
-51.69
-74.37
-87.61
-90.05
-84.30
-75.12
-66.60
-60.29
-54.88
-47.82
-37.39
-24.03
-10.23
0.95
7.54
9.61
9.10
8.65
10.30
14.74
21.38
28.87
35.78
40.96
43.65
43.57
41.12
37.44
34.26
33.42
36.06
42.24
50.98
61.01
71.57
82.84
95.77
111.41
130.16
151.43
173.88
195.97
216.66
235.74
253.76
271.57
289.86
308.78
328.08
347.26
365.68
382.35
395.47
402.36
399.76
384.86
356.48
315.71
265.89
211.52
157.09
106.03
60.37
20.97
-12.10
-39.32
-61.64
-80.48
-97.51
-114.23
-131.47
-149.28
-167.00
-183.80
-199.12
-213.10
-226.64
-241.27
-258.76
-280.45
-306.49
-335.17
-362.92
-385.02
-397.09
-396.69
-384.23
-362.81
-336.90
-310.62
-286.61
-265.70
-247.66
-231.92
-218.12
-205.88
-194.41
-182.43
-168.54
-152.04
-133.39
-114.15
-96.29
-81.34
-69.78
-61.08
-54.13
-47.89
-41.72
-35.51
-29.42
-23.60
-18.14
-13.18
-9.24
-7.28
-8.33
-12.69
-19.42
-26.21
-30.42
-30.25
-25.71
-18.65
-11.67
-6.74
-4.28
-3.30
-2.33
-0.52
1.89
3.92
4.65
3.89
2.31
1.02
0.98
2.45
4.81
6.84
7.26
5.40
1.62
-2.73
-5.98
-7.01
-5.76
-3.21
-0.74
0.75
1.19
1.23
1.62
2.68
4.10
5.24
5.62
5.26
4.64
4.45
5.22
7.04
9.54
11.97
13.50
13.54
11.98
9.25
6.16
3.51
1.69
0.60
-0.35
-1.70
-3.66
-5.92
-7.75
-8.52
-8.03
-6.77
-5.62
-5.36
-6.21
-7.67
-8.86
-9.08
-8.33
-7.28
-6.82
-7.42
-8.71
-9.65
-9.12
-6.70
-3.00
0.56
2.50
2.09
-0.26
-3.22
-5.27
-5.46
-3.94
-1.74
-0.24
-0.33
-1.91
-4.03
-5.43
-5.35
-3.93
-2.10
-0.88
-0.75
-1.28
-1.44
-0.32
2.27
5.49
7.95
8.44
6.65
3.43
0.34
-1.14
-0.41
1.84
4.03
4.51
2.37
-1.96
-7.07
-11.28
-13.60
-14.19
-14.03
-14.14
-14.78
-15.11
-13.79
-9.94
-3.88
2.75
7.83
9.93
9.06
6.74
5.09
5.58
8.22
11.55
13.43
12.35
8.16
2.23
-3.41
-7.19
-8.69
-8.74
-8.72
-9.53
-11.01
-11.90
-10.60
-6.16
1.07
9.37
16.32
19.98
19.68
16.32
11.90
8.42
6.97
7.34
8.25
8.37
7.15
5.20
3.83
4.04
5.70
7.33
6.83
2.78
-4.45
-12.51
-17.96
-17.99
-11.83
-1.31
9.86
17.98
21.02
19.44
15.71
12.71
12.04
13.38
14.76
14.08
10.56
5.25
0.58
-1.24
0.48
4.50
8.21
9.26
6.77
1.78
-3.45
-6.86
-7.87
-7.42
-7.33
-8.84
-11.57
-13.74
-13.11
-8.54
-0.83
7.63
14.04
16.66
15.70
12.95
10.63
10.06
10.96
11.79
10.89
7.57
2.74
-1.47
-2.81
-0.09
6.08
13.42
19.03
20.51
17.07
9.75
0.73
-7.57
-13.59
-16.91
-17.98
-17.47
-15.77
-12.76
-8.31
-2.68
3.16
7.70
9.61
8.34
4.40
-0.66
-4.97
-7.06
-6.42
-3.79
-0.53
1.90
2.64
1.82
0.32
-0.84
-1.03
-0.42
0.17
-0.14
-1.84
-4.69
-7.91
-10.71
-12.61
-13.66
-14.20
-14.41
-14.08
-12.73
-9.91
-5.67
-0.75
3.65
6.28
6.50
4.59
1.58
-1.14
-2.53
-2.37
-1.30
-0.38
-0.55
-2.07
-4.41
-6.73
-8.36
-9.33
-10.23
-11.73
-13.90
-15.87
-16.11
-13.35
-7.42
0.40
7.73
12.26
12.76
9.75
5.15
1.31
-0.09
1.16
3.88
6.24
6.81
5.20
2.23
-0.58
-1.87
-1.02
1.41
4.16
5.89
5.65
3.41
-0.08
-3.93
-7.30
-9.89
-11.95
-13.70
-15.23
-16.27
-16.24
-14.93
-12.57
-10.00
-8.33
-8.20
-9.30
-10.61
-10.78
-9.15
-6.27
-3.69
-3.31
-6.27
-12.32
-19.92
-27.02
-32.19
-35.16
-36.82
-38.43
-40.58
-42.82
-43.58
-41.08
-34.23
-23.17
-9.31
5.25
18.70
30.32
40.50
50.48
61.49
73.97
87.32
99.80
109.19
113.46
111.33
102.79
89.00
71.92
53.65
35.67
18.67
2.45
-13.46
-29.27
-44.79
-59.40
-72.39
-83.03
-90.58
-94.38
-93.87
-89.05
-80.73
-70.48
-60.21
-51.41
-44.64
-39.23
-33.63
-26.12
-15.45
-1.43
14.97
31.89
47.14
59.06
66.92
70.99
72.13
71.26
69.01
65.87
62.50
59.82
58.63
59.11
60.37
60.69
58.35
52.43
43.32
32.54
21.95
12.99
6.33
1.89
-0.81
-2.20
-2.62
-2.31
-1.55
-0.65
0.12
0.69
1.06
1.23
0.90
-0.57
-3.94
-9.77
-18.05
-27.92
-37.99
-46.68
-52.91
-56.24
-56.93
-55.67
-53.19
-49.93
-46.11
-41.77
-37.13
-32.50
-28.29
-24.75
-21.83
-19.12
-16.28
-13.24
-10.51
-8.93
-9.34
-12.06
-16.82
-22.70
-28.82
-34.63
-40.25
-46.18
-52.91
-60.51
-68.59
-76.57
-83.99
-90.55
-95.97
-99.65
-100.66
-97.94
-90.89
-79.79
-65.94
-51.19
-37.23
-24.88
-13.82
-2.85
9.43
23.95
40.81
59.23
77.94
95.75
111.82
125.82
137.76
147.62
155.18
160.01
161.50
159.34
153.82
145.89
137.02
128.76
122.12
117.41
114.24
111.84
109.53
106.84
103.43
98.87
92.31
82.52
68.42
49.83
27.99
5.48
-14.58
-29.64
-38.62
-42.12
-42.05
-40.78
-40.44
-42.36
-47.06
-54.01
-61.92
-68.72
-72.19
-70.57
-63.47
-51.99
-38.65
-26.13
-16.55
-11.04
-10.00
-13.66
-22.01
-34.28
-48.53
-61.21
-68.20
-66.39
-55.02
-36.16
-13.97
6.98
23.00
32.10
33.66
27.81
15.13
-3.09
-24.21
-44.02
-57.68
-61.34
-53.98
-38.12
-19.01
-2.41
7.85
11.40
10.87
10.02
11.42
15.04
18.53
18.74
13.66
3.64
-9.24
-22.35
-34.01
-44.04
-53.10
-61.44
-68.11
-71.10
-68.64
-60.67
-49.07
-36.97
-27.28
-21.48
-19.61
-21.14
-26.08
-35.35
-50.25
-71.17
-96.76
-124.01
-149.32
-169.80
-184.25
-193.01
-197.21
-197.98
-195.66
-189.63
-178.68
-161.57
-137.91
-108.95
-77.89
-49.43
-28.70
-19.74
-24.24
-41.13
-66.61
-95.39
-122.06
-142.10
-152.58
-152.37
-141.88
-122.86
-98.04
-70.53
-43.33
-18.49
3.51
23.97
45.60
71.83
105.08
145.18
188.56
228.57
257.45
269.36
262.62
240.51
209.71
177.51
148.56
123.50
99.50
72.74
41.59
8.55
-20.13
-36.83
-36.44
-19.39
7.65
34.00
49.01
46.30
25.65
-7.42
-44.45
-77.21
-99.18
-106.43
-97.66
-74.48
-41.93
-8.21
17.12
26.44
17.21
-6.72
-36.62
-62.56
-77.43
-78.87
-69.17
-52.74
-33.66
-14.62
2.95
17.77
27.84
31.17
27.15
17.74
7.49
2.29
6.77
22.45
47.08
75.86
103.37
125.41
139.91
146.23
144.38
134.17
115.12
87.44
52.63
13.99
-23.36
-53.74
-72.08
-75.07
-62.27
-36.35
-2.94
30.33
55.82
68.76
68.98
61.33
53.68
53.05
62.28
79.09
97.24
110.18
114.37
109.99
99.98
87.45
73.13
55.61
32.81
3.99
-28.75
-60.83
-87.04
-103.69
-110.16
-109.63
-107.57
-109.70
-119.69
-137.77
-161.34
-186.79
-211.02
-232.41
-250.48
-264.11
-271.06
-268.32
-253.16
-225.08
-186.30
-140.40
-91.10
-40.85
9.32
57.98
102.41
138.52
162.03
170.99
167.65
158.14
150.43
150.82
160.99
177.41
193.48
202.98
203.31
196.16
185.85
176.55
170.41
167.46
166.80
167.58
168.88
169.32
166.27
156.66
138.57
112.76
83.14
55.60
35.47
25.66
25.97
33.54
44.43
54.92
62.14
64.47
61.64
54.69
45.79
37.47
31.45
27.79
24.34
17.13
2.05
-23.38
-58.23
-97.65
-134.18
-160.04
-169.09
-158.14
-127.10
-78.66
-18.53
44.36
98.56
132.22
137.21
112.78
66.95
14.14
-30.62
-57.66
-65.57
-59.92
-48.86
-38.71
-31.73
-26.72
-20.89
-11.69
2.64
22.81
48.14
75.84
100.85
116.40
116.15
96.86
60.19
12.45
-37.28
-80.61
-112.45
-131.78
-140.89
-143.20
-141.08
-134.78
-122.51
-102.25
-73.43
-37.55
2.30
42.80
81.30
115.53
142.71
159.16
160.97
146.20
116.84
79.05
41.22
10.52
-9.73
-20.71
-26.13
-29.38
-31.53
-31.19
-25.88
-13.86
4.95
28.35
52.09
70.91
79.92
76.43
61.26
38.77
15.56
-2.22
-11.38
-12.88
-11.07
-11.13
-16.34
-26.52
-38.47
-47.84
-51.46
-48.48
-40.66
-31.24
-23.63
-19.94
-20.01
-21.59
-21.32
-16.57
-7.03
4.89
15.02
19.27
15.75
5.42
-8.68
-23.21
-36.07
-46.61
-54.78
-59.82
-59.86
-52.84
-38.05
-17.16
6.12
27.60
44.33
55.28
60.99
62.26
59.43
52.57
42.17
29.71
17.41
7.28
0.16
-4.49
-7.87
-10.84
-13.04
-13.13
-9.71
-2.70
6.07
13.16
14.95
9.32
-3.23
-19.61
-35.29
-45.93
-48.92
-44.12
-33.73
-21.41
-11.22
-6.39
-8.27
-15.76
-25.57
-33.16
-34.44
-27.39
-12.84
5.92
24.41
38.65
46.35
47.30
43.02
35.84
28.17
21.94
18.27
17.42
18.72
20.87
22.38
22.13
19.77
15.83
11.40
7.60
5.20
4.36
4.81
6.04
7.55
8.97
10.12
11.00
11.65
12.08
12.19
11.72
10.40
8.06
4.73
0.65
-3.88
-8.51
-12.87
-16.53
-19.01
-20.01
-19.54
-18.07
-16.36
-15.17
-14.92
-15.53
-16.47
-17.15
-17.22
-16.72
-16.06
-15.64
-15.65
-15.82
-15.53
-13.96
-10.42
-4.66
2.97
11.50
19.64
26.15
30.25
31.83
31.38
29.72
27.59
25.40
23.15
20.54
17.31
13.42
9.07
4.54
-0.01
-4.62
-9.31
-13.84
-17.64
-19.99
-20.43
-19.19
-17.19
-15.62
-15.28
-16.07
-17.01
-16.77
-14.36
-9.69
-3.53
2.81
8.12
11.78
13.91
15.18
16.44
18.24
20.67
23.48
26.38
29.16
31.76
34.00
35.41
35.33
33.20
28.93
23.06
16.49
10.01
3.89
-2.14
-8.56
-15.41
-22.14
-27.75
-31.28
-32.36
-31.40
-29.32
-27.19
-25.70
-25.06
-25.03
-25.27
-25.67
-26.31
-27.32
-28.62
-29.73
-29.87
-28.34
-24.88
-19.86
-14.10
-8.51
-3.86
-0.50
1.47
2.14
1.71
0.59
-0.60
-1.09
-0.34
1.70
4.42
6.65
7.16
5.29
1.35
-3.34
-6.95
-7.95
-5.77
-1.03
4.81
10.08
13.69
15.42
15.80
15.58
15.20
14.66
13.69
12.16
10.40
9.07
8.76
9.50
10.66
11.21
10.30
7.80
4.36
1.17
-0.60
-0.38
1.70
4.95
8.35
10.86
11.74
10.59
7.55
3.25
-1.41
-5.58
-8.68
-10.64
-11.73
-12.27
-12.44
-12.16
-11.31
-9.96
-8.57
-7.85
-8.50
-10.78
-14.17
-17.37
-18.63
-16.46
-10.32
-0.92
10.03
20.49
28.90
34.48
37.00
36.36
32.39
25.13
15.36
4.97
-3.51
-8.18
-8.93
-7.75
-7.43
-9.68
-13.68
-16.24
-13.81
-4.86
8.78
22.60
31.74
33.66
29.36
22.63
17.81
17.44
21.21
26.55
30.33
30.20
25.19
15.42
1.64
-14.72
-31.29
-44.68
-51.31
-49.00
-38.45
-23.64
-10.48
-4.29
-7.17
-16.99
-28.44
-35.69
-35.09
-26.58
-13.14
1.19
13.14
21.31
25.91
27.72
27.26
24.69
20.02
13.43
5.06
-5.35
-18.10
-32.87
-47.84
-59.74
-65.29
-63.22
-55.42
-46.15
-39.39
-35.89
-32.34
-23.23
-4.55
22.96
53.18
77.16
87.60
82.27
65.04
43.46
24.65
12.09
4.68
-1.17
-8.33
-17.02
-25.23
-30.56
-32.19
-31.22
-29.30
-26.95
-22.91
-15.29
-3.65
9.85
21.11
26.23
23.84
15.70
5.54
-2.98
-7.80
-8.54
-5.80
-0.36
6.90
14.79
21.89
26.75
28.40
26.54
21.39
13.66
4.46
-4.73
-12.25
-16.99
-19.05
-19.83
-21.34
-24.77
-29.42
-32.74
-31.57
-23.93
-10.28
6.56
22.93
36.03
44.80
49.64
51.15
49.22
43.03
32.01
16.83
-0.23
-15.88
-27.14
-32.36
-31.66
-26.49
-18.70
-9.84
-0.83
7.77
15.30
20.83
23.34
22.16
17.37
9.89
1.09
-7.54
-14.83
-19.83
-21.84
-20.39
-15.46
-7.73
1.37
9.91
16.03
18.52
17.03
11.97
4.22
-5.02
-14.24
-21.79
-26.23
-27.00
-24.83
-21.66
-19.60
-19.70
-21.33
-22.32
-20.18
-13.61
-3.09
9.33
21.25
30.94
37.85
42.04
43.49
41.74
36.19
26.92
15.14
2.91
-7.74
-15.65
-20.69
-23.21
-23.33
-20.71
-15.01
-6.72
2.34
9.46
12.20
9.61
2.78
-5.77
-13.21
-17.50
-17.86
-14.61
-8.45
-0.28
8.92
18.06
25.89
31.20
33.18
31.57
26.70
19.35
10.65
2.02
-5.00
-9.10
-9.85
-8.11
-5.92
-5.59
-8.57
-14.53
-21.46
-26.71
-28.34
-25.92
-20.51
-13.66
-6.40
1.17
9.52
18.74
27.76
34.34
36.01
31.18
20.15
5.18
-10.12
-21.97
-27.80
-26.91
-20.57
-11.29
-1.76
6.16
11.80
15.37
17.24
17.32
15.08
10.03
2.39
-6.51
-14.58
-19.81
-21.07
-18.60
-13.73
-8.09
-2.84
1.60
5.44
9.05
12.48
15.25
16.55
15.57
12.01
6.33
-0.24
-6.23
-10.55
-13.07
-14.51
-15.90
-17.87
-20.23
-22.16
-22.80
-21.76
-19.13
-15.20
-9.98
-3.03
6.09
17.16
28.80
38.50
43.46
41.64
32.78
18.62
2.39
-12.29
-22.51
-26.92
-25.86
-20.84
-13.79
-6.34
0.54
6.36
10.81
13.44
13.78
11.57
7.17
1.50
-4.04
-8.12
-9.83
-8.94
-5.96
-1.82
2.32
5.60
7.53
8.15
7.86
7.24
6.75
6.52
6.18
5.11
2.61
-1.49
-6.75
-12.31
-17.42
-21.90
-26.03
-30.05
-33.43
-34.68
-31.89
-23.80
-10.79
5.02
20.52
32.94
40.96
44.90
45.89
44.78
41.37
34.89
24.86
12.04
-1.53
-13.24
-21.00
-24.01
-22.78
-18.67
-13.05
-6.77
-0.12
6.78
13.62
19.63
23.67
24.54
21.31
13.64
2.01
-12.00
-25.83
-36.34
-40.80
-37.94
-28.46
-15.03
-1.38
9.19
14.99
16.30
14.89
12.76
11.07
9.69
7.64
3.98
-1.47
-7.99
-14.40
-19.72
-23.48
-25.71
-26.54
-25.83
-23.18
-18.02
-10.03
0.69
13.37
26.66
38.81
47.96
52.52
51.38
44.19
31.41
14.40
-4.40
-21.73
-34.08
-38.81
-35.37
-25.87
-14.37
-5.04
-0.24
0.56
0.04
1.08
4.75
9.55
12.34
10.39
3.11
-7.52
-17.89
-24.58
-25.78
-21.76
-14.43
-6.38
0.05
3.40
3.50
1.40
-1.14
-2.28
-0.95
2.67
7.30
11.20
13.09
12.65
10.37
6.95
2.76
-2.32
-8.43
-15.29
-21.92
-26.98
-29.32
-28.24
-23.50
-15.02
-2.72
13.13
31.36
49.48
63.87
70.51
66.01
48.85
20.31
-15.06
-50.00
-76.28
-87.32
-80.81
-59.80
-31.57
-4.54
15.18
25.86
29.75
30.68
31.30
31.79
30.39
25.35
16.64
6.18
-3.21
-9.40
-11.87
-11.57
-10.00
-8.17
-6.05
-2.95
1.68
7.55
13.35
17.24
17.64
14.06
7.12
-1.65
-10.45
-17.69
-22.32
-23.88
-22.52
-18.86
-13.79
-8.23
-3.00
1.32
4.37
6.02
6.58
6.68
7.27
9.17
12.62
16.93
20.70
22.41
21.15
16.95
10.73
3.80
-2.62
-7.75
-11.28
-13.37
-14.60
-15.61
-16.70
-17.43
-16.59
-12.92
-6.16
2.24
9.31
11.80
8.00
-1.07
-11.94
-20.13
-22.28
-17.57
-7.77
3.79
13.79
20.16
22.44
21.45
18.49
14.79
11.18
8.03
5.47
3.32
1.12
-1.80
-6.00
-11.50
-17.73
-23.81
-29.02
-33.03
-35.70
-36.64
-34.91
-29.44
-19.78
-6.91
6.89
18.89
27.27
32.04
34.83
37.77
42.03
46.99
50.50
50.02
43.98
32.49
17.36
1.43
-12.38
-21.96
-26.47
-26.41
-23.22
-18.66
-14.20
-10.75
-8.64
-7.89
-8.40
-9.98
-12.27
-14.77
-16.80
-17.79
-17.32
-15.25
-11.65
-6.81
-1.14
4.79
10.24
14.54
17.25
18.46
18.88
19.61
21.71
25.59
30.67
35.38
37.72
35.92
29.05
17.31
1.93
-14.99
-30.76
-42.52
-47.96
-46.03
-37.55
-25.02
-11.62
0.07
9.03
15.88
21.84
27.49
32.06
33.76
30.97
23.35
12.25
0.06
-10.81
-18.91
-23.78
-25.79
-25.75
-24.67
-23.45
-22.49
-21.47
-19.48
-15.63
-9.83
-3.29
1.93
3.98
2.31
-1.99
-6.77
-10.02
-10.77
-9.10
-5.59
-0.67
5.46
12.27
18.50
22.31
22.26
18.26
11.96
6.02
2.81
3.28
6.49
10.29
12.32
10.94
5.66
-2.82
-12.98
-22.77
-30.04
-33.16
-31.57
-26.07
-18.47
-10.79
-4.29
1.02
6.04
11.73
18.23
24.56
29.04
30.25
27.60
21.52
13.11
3.63
-5.65
-13.54
-18.82
-20.61
-18.76
-14.22
-8.78
-4.36
-2.17
-2.29
-3.94
-6.06
-7.95
-9.42
-10.59
-11.48
-11.82
-11.09
-8.80
-4.77
0.82
7.45
14.25
20.09
23.81
24.60
22.42
18.29
13.94
11.12
10.80
12.74
15.67
17.88
18.11
15.95
11.86
6.66
1.10
-4.46
-9.93
-15.17
-19.78
-23.04
-24.14
-22.43
-17.73
-10.46
-1.48
8.00
16.65
23.25
26.65
25.99
20.87
11.74
0.22
-11.03
-19.02
-21.58
-18.44
-11.45
-3.77
1.71
3.85
3.63
3.30
4.84
8.62
13.14
16.03
15.43
11.04
4.14
-3.22
-9.30
-13.32
-15.33
-15.78
-15.08
-13.36
-10.70
-7.30
-3.48
0.39
4.06
7.45
10.45
12.82
14.12
13.98
12.32
9.49
6.05
2.40
-1.41
-5.59
-10.15
-14.56
-17.85
-19.13
-18.11
-15.39
-12.05
-8.94
-6.13
-2.93
1.43
7.02
12.83
16.99
17.64
13.95
6.67
-2.01
-9.34
-13.12
-12.77
-9.45
-5.57
-3.42
-3.99
-6.44
-8.80
-9.21
-7.18
-3.96
-1.65
-1.83
-4.50
-8.08
-10.34
-9.80
-6.55
-2.09
1.59
3.18
2.74
1.58
1.41
3.34
7.33
12.09
15.72
16.52
13.82
8.24
1.34
-5.11
-10.00
-13.28
-15.79
-18.43
-21.34
-23.58
-23.53
-19.77
-12.01
-1.36
10.38
21.59
31.66
40.91
49.78
57.98
64.15
66.27
62.48
51.99
35.41
14.76
-7.09
-26.90
-41.71
-49.52
-49.87
-44.09
-34.96
-25.75
-19.09
-16.17
-16.65
-19.20
-22.27
-24.60
-25.35
-23.95
-20.03
-13.39
-4.31
6.20
16.51
24.60
28.69
28.02
23.21
16.08
9.08
4.27
2.49
3.15
4.61
5.20
3.97
0.98
-3.02
-7.32
-11.65
-16.03
-20.22
-23.38
-24.17
-21.59
-15.65
-7.61
0.67
7.73
13.37
18.42
23.95
30.15
36.00
39.51
38.87
33.29
23.46
11.19
-1.16
-11.42
-18.09
-20.76
-20.14
-17.88
-15.82
-15.29
-16.28
-17.63
-17.64
-15.24
-10.76
-5.89
-2.65
-2.34
-4.63
-7.85
-9.88
-9.33
-6.15
-1.53
3.01
6.39
8.49
9.93
11.41
13.17
14.68
14.95
13.17
9.15
3.49
-2.64
-8.18
-12.54
-15.80
-18.47
-20.92
-22.90
-23.38
-20.96
-14.74
-5.06
6.22
16.47
23.43
26.47
26.86
27.00
28.92
32.98
37.41
39.33
36.21
27.44
14.73
1.42
-9.07
-14.76
-15.74
-13.86
-11.69
-11.10
-12.61
-15.46
-18.25
-20.02
-20.58
-20.43
-20.05
-19.47
-18.14
-15.47
-11.34
-6.46
-1.98
1.11
2.58
3.02
3.44
4.60
6.59
8.83
10.52
11.12
10.73
9.97
9.60
10.09
11.19
12.02
11.49
8.88
4.28
-1.40
-6.88
-11.09
-13.47
-13.99
-12.86
-10.40
-7.09
-3.76
-1.53
-1.37
-3.44
-6.88
-9.94
-10.96
-9.11
-4.96
0.02
4.12
6.38
6.72
5.75
4.20
2.57
1.04
-0.22
-0.91
-0.66
0.81
3.17
5.54
6.54
5.01
0.60
-5.62
-11.58
-14.90
-14.07
-9.20
-2.09
4.77
9.16
10.28
8.86
6.50
4.92
5.10
7.08
10.09
13.17
15.39
16.37
16.18
15.30
14.39
13.98
14.18
14.74
15.19
15.14
14.58
13.72
12.63
10.93
7.83
2.56
-4.74
-12.71
-19.06
-21.75
-20.22
-15.95
-11.64
-9.64
-10.47
-12.54
-13.23
-10.72
-5.30
0.70
4.34
3.93
0.03
-4.87
-8.02
-8.05
-5.66
-3.06
-2.45
-4.76
-9.08
-13.36
-15.54
-14.70
-11.38
-7.19
-3.71
-1.73
-0.91
-0.16
1.45
4.10
7.05
9.02
9.01
6.93
3.67
0.81
-0.20
1.24
4.65
8.65
11.69
12.80
12.02
10.29
8.85
8.49
9.05
9.59
8.97
6.68
3.19
-0.18
-2.07
-1.79
0.27
2.93
4.79
4.85
2.72
-1.41
-6.90
-12.80
-17.90
-20.96
-21.09
-18.22
-13.26
-7.72
-3.01
0.24
2.40
4.33
6.64
9.12
10.74
10.30
7.27
2.16
-3.57
-8.24
-10.70
-10.81
-9.34
-7.52
-6.29
-5.95
-6.10
-6.00
-5.17
-3.68
-2.20
-1.55
-2.19
-3.86
-5.63
-6.33
-5.16
-2.05
2.24
6.53
9.68
11.11
10.94
9.97
9.17
9.27
10.34
11.81
12.69
12.16
9.92
6.29
1.88
-2.81
-7.58
-12.20
-16.04
-17.97
-16.92
-12.70
-6.59
-0.92
2.12
1.89
-0.20
-1.54
0.00
4.66
10.54
14.76
15.29
12.11
7.08
2.69
0.60
0.82
2.07
2.73
1.86
-0.43
-3.25
-5.62
-7.01
-7.65
-8.26
-9.49
-11.45
-13.49
-14.48
-13.40
-9.96
-4.75
0.90
5.66
8.81
10.50
11.58
12.96
14.93
17.00
18.10
17.27
14.28
9.82
5.30
2.07
0.85
1.31
2.31
2.59
1.48
-0.79
-3.36
-5.40
-6.64
-7.38
-8.11
-9.00
-9.84
-10.37
-10.62
-11.05
-12.08
-13.56
-14.64
-14.21
-11.73
-7.72
-3.57
-0.64
0.61
0.91
1.59
3.61
6.93
10.60
13.44
14.74
14.52
13.22
11.28
8.80
5.74
2.16
-1.56
-4.73
-6.74
-7.38
-7.00
-6.47
-6.75
-8.45
-11.46
-14.84
-17.13
-16.95
-13.66
-7.65
-0.21
6.97
12.53
15.82
17.01
16.74
15.77
14.66
13.65
12.74
11.72
10.30
8.23
5.46
2.12
-1.56
-5.26
-8.62
-11.20
-12.42
-11.92
-9.85
-7.15
-5.24
-5.36
-7.69
-11.03
-13.31
-12.65
-8.51
-2.06
4.48
9.04
10.73
10.10
8.60
7.56
7.53
8.15
8.60
8.13
6.52
4.11
1.58
-0.37
-1.38
-1.53
-1.31
-1.31
-1.92
-3.07
-4.29
-5.02
-4.96
-4.28
-3.45
-2.96
-2.92
-2.98
-2.53
-1.02
1.61
4.82
7.70
9.42
9.67
8.88
7.99
7.96
9.17
11.14
12.72
12.72
10.62
6.85
2.54
-1.22
-3.95
-5.82
-7.27
-8.48
-9.27
-9.40
-9.08
-9.03
-10.04
-12.35
-15.20
-17.23
-17.22
-14.90
-11.04
-6.89
-3.32
-0.45
2.19
4.98
7.73
9.76
10.39
9.43
7.26
4.52
1.65
-1.25
-4.30
-7.48
-10.45
-12.65
-13.57
-13.00
-11.20
-8.68
-6.02
-3.61
-1.57
0.22
1.99
3.94
6.13
8.34
10.26
11.52
11.96
11.76
11.36
11.36
12.19
13.94
16.19
18.12
18.79
17.47
13.97
8.77
2.80
-2.89
-7.50
-10.53
-11.72
-11.01
-8.61
-5.24
-2.15
-0.74
-1.90
-5.33
-9.48
-12.30
-12.27
-9.30
-4.74
-0.54
1.90
2.47
2.20
2.34
3.49
5.26
6.62
6.68
5.26
2.89
0.38
-1.66
-3.14
-4.45
-6.07
-8.25
-10.75
-12.90
-13.93
-13.35
-11.28
-8.42
-5.79
-4.27
-4.17
-5.09
-6.04
-5.94
-4.07
-0.38
4.43
9.29
13.13
15.35
16.01
15.75
15.39
15.53
16.12
16.51
15.79
13.35
9.21
4.04
-1.26
-5.99
-9.83
-12.68
-14.33
-14.45
-12.90
-10.18
-7.50
-6.33
-7.43
-10.29
-13.11
-13.76
-10.90
-4.78
2.88
9.79
14.19
15.43
13.96
10.79
6.87
2.81
-1.01
-4.28
-6.71
-8.08
-8.38
-7.93
-7.25
-6.92
-7.30
-8.43
-9.86
-10.84
-10.53
-8.46
-4.83
-0.54
3.15
5.07
4.79
2.71
0.01
-1.91
-1.99
0.07
3.79
8.16
12.05
14.63
15.50
14.78
12.85
10.22
7.30
4.35
1.44
-1.45
-4.36
-7.39
-10.62
-14.11
-17.65
-20.53
-21.50
-19.18
-12.95
-3.81
5.46
11.27
11.06
4.88
-4.22
-11.59
-13.42
-8.79
-0.24
7.72
11.12
8.57
1.72
-6.04
-11.66
-13.88
-13.49
-12.24
-11.39
-10.95
-9.82
-6.90
-2.23
2.59
5.00
3.07
-3.13
-11.02
-16.51
-16.16
-9.20
1.63
11.37
15.56
12.84
5.80
-0.45
-1.25
4.95
15.77
26.36
32.22
31.60
26.20
19.84
16.14
16.63
20.20
24.07
25.68
24.12
20.63
17.79
17.86
21.41
26.82
31.17
31.98
28.50
21.93
14.56
8.31
3.78
0.28
-3.40
-7.94
-12.84
-16.57
-17.35
-14.09
-7.18
1.37
8.57
11.57
9.01
1.84
-6.90
-13.53
-15.56
-13.06
-8.56
-5.42
-5.75
-9.21
-13.44
-15.71
-14.84
-11.87
-9.35
-9.70
-13.58
-19.63
-25.28
-28.34
-28.14
-25.71
-22.91
-21.19
-20.69
-20.28
-18.42
-14.27
-8.44
-2.78
0.54
0.38
-2.55
-5.90
-6.90
-4.01
2.11
8.73
12.56
11.62
6.48
0.04
-4.01
-3.31
1.81
8.37
12.53
11.79
6.52
-0.06
-3.79
-1.87
5.46
14.95
22.04
23.37
18.43
9.76
1.44
-3.11
-2.68
1.43
6.51
9.89
10.25
7.80
3.66
-1.20
-6.86
-14.29
-24.05
-34.63
-41.69
-39.50
-24.02
3.84
37.08
64.88
77.42
70.74
48.61
20.36
-4.16
-19.31
-25.45
-26.89
-28.01
-30.12
-31.28
-28.63
-21.36
-12.00
-5.18
-4.89
-11.88
-23.22
-33.72
-38.84
-36.91
-29.57
-20.60
-13.81
-11.22
-12.62
-16.07
-19.02
-19.45
-16.49
-10.63
-3.44
3.00
6.86
7.47
5.63
3.25
2.38
3.99
7.45
10.91
12.50
11.56
9.09
7.25
7.96
11.73
17.33
22.44
24.86
23.57
19.16
13.41
8.36
5.34
4.50
4.99
5.63
5.72
5.46
5.79
7.63
11.13
15.39
18.94
20.64
20.50
19.69
19.76
21.51
24.31
26.42
26.12
23.00
18.45
14.97
14.72
18.14
23.46
27.56
27.63
22.58
13.82
4.59
-1.62
-2.53
1.96
9.72
17.24
20.68
17.07
5.29
-13.32
-34.82
-53.39
-63.13
-60.36
-45.41
-22.98
-0.54
14.61
18.28
10.86
-3.37
-18.61
-30.10
-35.74
-35.99
-32.56
-26.93
-19.69
-10.80
-0.48
9.91
18.10
21.93
20.44
14.86
8.29
4.44
6.05
13.74
26.01
40.08
52.49
59.48
57.28
43.08
16.71
-17.49
-50.69
-72.12
-73.70
-54.28
-20.75
14.75
40.50
50.37
45.74
33.24
20.30
11.23
6.19
2.97
-0.33
-3.53
-4.89
-2.72
2.92
9.98
15.42
16.89
13.87
7.74
0.80
-4.90
-8.58
-10.85
-13.17
-16.83
-22.23
-28.39
-33.33
-34.99
-32.40
-26.34
-19.17
-13.95
-12.92
-16.45
-22.67
-28.39
-30.49
-27.37
-19.63
-10.28
-4.25
-6.97
-22.59
-51.71
-89.77
-127.33
-152.80
-157.08
-137.83
-100.89
-57.84
-20.74
3.27
14.38
18.40
22.40
30.23
40.82
49.91
53.49
50.52
43.53
36.86
33.96
35.70
40.32
44.97
47.82
49.07
50.34
53.04
56.40
56.97
50.43
34.32
10.33
-15.43
-34.85
-41.65
-34.29
-16.82
3.26
18.48
24.23
19.85
7.65
-8.97
-26.96
-44.00
-58.17
-67.56
-70.55
-66.50
-56.39
-42.72
-28.74
-17.15
-8.99
-3.44
1.42
7.44
15.22
23.76
30.86
34.23
32.50
25.72
15.20
2.90
-9.23
-19.65
-27.42
-32.14
-33.98
-33.47
-31.38
-28.51
-25.54
-22.96
-21.02
-19.63
-18.39
-16.72
-14.08
-10.41
-6.40
-3.54
-3.62
-7.83
-15.80
-24.96
-31.12
-29.92
-19.05
0.28
23.13
42.60
52.64
50.61
38.19
20.38
2.97
-9.83
-16.52
-17.81
-15.13
-9.46
-1.14
9.49
21.26
32.08
39.74
42.94
41.90
38.12
33.46
29.23
25.79
22.84
19.96
17.00
14.09
11.37
8.80
6.20
3.39
0.29
-3.25
-7.58
-13.04
-19.51
-25.76
-29.37
-27.52
-18.36
-2.22
18.01
37.74
52.37
58.83
56.41
46.60
32.23
16.45
2.18
-8.33
-13.75
-13.82
-9.57
-3.02
3.47
8.01
9.75
9.01
6.87
4.60
3.15
2.79
3.25
3.97
4.57
4.99
5.36
5.78
6.01
5.68
4.56
2.96
1.54
1.06
1.77
3.26
4.82
6.08
7.56
10.36
15.35
22.03
28.25
31.27
29.22
22.43
13.41
5.39
0.64
-0.65
-0.05
0.52
0.17
-0.39
0.51
4.06
10.08
16.80
21.87
23.62
21.80
17.54
12.54
8.26
5.35
3.74
2.99
2.57
2.18
1.80
1.50
1.45
1.84
2.72
3.90
4.94
5.18
4.08
1.58
-1.64
-4.28
-4.94
-2.81
1.77
7.27
11.66
13.31
11.75
7.82
3.21
-0.50
-2.51
-3.08
-3.14
-3.68
-5.12
-7.15
-8.98
-9.82
-9.31
-7.75
-5.95
-4.75
-4.72
-5.78
-7.35
-8.59
-8.90
-8.14
-6.75
-5.46
-4.88
-5.24
-6.32
-7.66
-8.98
-10.36
-12.14
-14.49
-16.97
-18.37
-17.12
-12.14
-3.51
7.13
17.22
24.29
27.12
26.21
23.41
20.77
19.46
19.19
18.64
16.36
11.81
5.70
-0.41
-5.08
-7.73
-8.92
-9.88
-11.60
-14.22
-16.88
-18.27
-17.45
-14.43
-10.31
-6.76
-5.22
-6.22
-9.12
-12.44
-14.57
-14.51
-12.35
-9.09
-6.05
-4.12
-3.29
-2.63
-0.96
2.39
7.01
11.54
14.34
14.45
12.15
8.84
6.26
5.56
6.70
8.60
9.85
9.58
7.94
5.88
4.51
4.29
4.73
4.72
3.24
0.07
-3.98
-7.44
-8.96
-8.10
-5.55
-2.85
-1.58
-2.45
-4.90
-7.34
-7.95
-5.73
-1.07
4.25
7.86
7.90
3.81
-3.34
-11.38
-17.82
-20.81
-19.62
-14.66
-7.26
0.93
8.35
13.79
16.55
16.34
13.39
8.37
2.47
-2.81
-5.95
-5.86
-2.37
3.60
10.21
15.33
17.31
15.59
10.90
4.94
-0.35
-3.61
-4.54
-3.80
-2.48
-1.35
-0.38
1.07
3.68
7.40
11.17
13.28
12.24
7.84
1.49
-4.34
-7.20
-5.99
-1.45
4.24
8.62
10.06
8.47
4.93
0.90
-2.67
-5.71
-8.74
-12.16
-15.68
-18.22
-18.49
-15.74
-10.44
-4.18
0.91
3.13
2.03
-1.43
-5.41
-8.10
-8.59
-7.21
-5.20
-3.88
-3.92
-5.01
-6.17
-6.37
-5.33
-3.68
-2.54
-2.88
-4.71
-7.03
-8.34
-7.58
-5.00
-2.13
-1.04
-3.07
-7.88
-13.32
-16.40
-14.71
-7.63
3.40
15.64
26.26
33.49
36.93
37.18
35.00
30.81
24.64
16.75
8.10
0.47
-4.07
-4.21
-0.10
6.43
12.48
15.45
14.08
9.01
2.39
-3.24
-6.17
-6.12
-4.21
-2.04
-0.75
-0.48
-0.38
0.60
3.02
6.38
9.33
10.41
8.87
5.20
0.87
-2.42
-3.61
-2.85
-1.40
-0.84
-2.20
-5.24
-8.56
-10.36
-9.38
-5.75
-0.97
2.79
3.79
1.62
-2.69
-7.27
-10.40
-11.30
-10.42
-8.88
-7.83
-7.76
-8.33
-8.79
-8.42
-7.03
-5.08
-3.43
-2.82
-3.54
-5.15
-6.78
-7.48
-6.80
-4.93
-2.57
-0.39
1.36
3.01
4.98
7.33
9.33
9.75
7.54
2.65
-3.63
-8.95
-11.02
-8.65
-2.48
5.20
11.41
13.75
11.41
5.47
-1.63
-7.19
-9.36
-7.79
-3.45
2.02
7.26
11.67
15.39
18.73
21.52
23.01
22.17
18.45
12.38
5.59
0.11
-2.50
-1.96
0.77
4.07
6.47
7.23
6.37
4.29
1.40
-2.07
-5.91
-9.69
-12.73
-14.28
-13.75
-11.08
-6.75
-1.73
2.64
5.03
4.45
0.69
-5.41
-12.10
-17.28
-19.40
-18.08
-14.26
-9.65
-5.84
-3.60
-2.74
-2.49
-2.28
-2.12
-2.51
-3.96
-6.34
-8.78
-9.93
-8.81
-5.45
-1.02
2.74
4.37
3.49
0.99
-1.60
-2.96
-2.74
-1.66
-0.98
-1.63
-3.61
-6.04
-7.72
-7.90
-6.68
-4.92
-3.51
-2.76
-2.06
-0.22
3.78
9.99
17.21
23.33
26.29
25.06
20.15
13.43
7.22
3.32
2.25
3.27
4.92
5.96
5.93
5.28
4.86
5.32
6.57
7.79
7.86
6.02
2.37
-2.06
-5.79
-7.55
-6.92
-4.45
-1.30
1.31
2.73
2.92
2.24
1.07
-0.54
-2.72
-5.45
-8.24
-10.06
-9.74
-6.65
-1.16
5.20
10.31
12.35
10.58
5.75
-0.21
-5.08
-7.32
-6.76
-4.47
-2.18
-1.28
-2.13
-3.94
-5.34
-5.20
-3.37
-0.83
0.92
0.67
-1.68
-5.00
-7.50
-7.69
-5.23
-1.19
2.59
4.42
3.64
0.85
-2.70
-5.85
-8.13
-9.67
-10.66
-10.84
-9.49
-5.95
-0.41
5.81
10.53
11.73
8.66
2.32
-4.78
-9.77
-10.59
-6.89
-0.07
7.37
12.92
15.04
13.67
10.02
5.81
2.44
0.34
-0.97
-2.32
-4.25
-6.50
-8.11
-7.90
-5.20
-0.37
5.23
9.72
11.50
9.97
5.83
0.70
-3.58
-5.77
-5.64
-3.83
-1.32
1.23
3.78
6.67
10.15
13.87
16.80
17.59
15.30
10.00
3.02
-3.52
-7.44
-7.46
-3.66
2.59
9.20
14.29
16.76
16.53
14.20
10.54
6.12
1.21
-3.87
-8.51
-11.85
-13.08
-11.94
-9.12
-6.05
-4.32
-4.94
-7.74
-11.44
-14.26
-14.87
-13.06
-9.95
-7.32
-6.69
-8.45
-11.57
-14.15
-14.38
-11.66
-6.87
-1.93
1.25
1.78
0.25
-1.69
-2.31
-0.76
2.50
6.02
8.33
8.79
7.96
7.17
7.58
9.39
11.64
12.83
11.80
8.50
4.02
-0.05
-2.55
-3.38
-3.38
-3.55
-4.37
-5.32
-5.35
-3.56
0.07
4.49
8.03
9.22
7.52
3.64
-0.87
-4.28
-5.53
-4.61
-2.51
-0.63
-0.09
-1.16
-3.24
-5.31
-6.53
-6.80
-6.74
-7.25
-8.86
-11.31
-13.65
-14.78
-14.11
-12.03
-9.72
-8.52
-9.19
-11.33
-13.63
-14.53
-13.07
-9.51
-5.13
-1.64
-0.24
-1.04
-3.14
-5.19
-6.16
-5.91
-5.13
-4.76
-5.34
-6.49
-7.11
-5.94
-2.29
3.40
9.71
14.81
17.38
17.15
15.01
12.49
10.97
11.03
12.26
13.61
13.99
12.91
10.66
8.04
5.96
4.88
4.69
4.87
4.84
4.44
3.94
3.88
4.63
6.01
7.37
7.83
6.84
4.61
2.02
0.20
-0.04
1.30
3.47
5.36
6.14
5.68
4.55
3.61
3.47
4.17
5.09
5.39
4.50
2.45
-0.06
-2.03
-2.54
-1.27
1.40
4.48
6.84
7.72
7.02
5.35
3.68
2.73
2.73
3.23
3.53
3.13
2.05
0.80
0.03
-0.04
0.37
0.69
0.59
0.22
0.22
1.17
3.08
5.15
6.16
5.15
2.07
-2.03
-5.56
-7.23
-6.63
-4.48
-2.08
-0.60
-0.51
-1.35
-2.24
-2.40
-1.63
-0.45
0.32
0.10
-1.11
-2.62
-3.53
-3.24
-1.82
0.03
1.38
1.68
1.00
-0.09
-0.92
-1.27
-1.44
-2.03
-3.40
-5.39
-7.32
-8.37
-8.09
-6.65
-4.78
-3.40
-3.23
-4.41
-6.58
-8.95
-10.64
-11.04
-10.01
-8.00
-5.80
-4.18
-3.50
-3.42
-3.21
-2.18
-0.24
1.94
3.20
2.65
0.21
-3.16
-5.97
-6.97
-5.83
-3.31
-0.76
0.59
0.31
-1.08
-2.57
-3.27
-2.95
-2.05
-1.37
-1.42
-2.16
-2.97
-3.17
-2.45
-1.11
0.02
0.10
-1.29
-3.79
-6.43
-8.13
-8.18
-6.54
-3.88
-1.13
0.95
2.09
2.60
3.07
3.96
5.39
7.03
8.29
8.70
8.13
6.95
5.80
5.36
6.00
7.61
9.67
11.50
12.53
12.61
11.93
10.90
9.92
9.07
8.22
7.15
5.75
4.19
2.75
1.72
1.21
1.05
0.88
0.33
-0.75
-2.21
-3.64
-4.62
-4.93
-4.70
-4.36
-4.35
-4.88
-5.76
-6.52
-6.68
-6.07
-4.97
-3.95
-3.56
-3.99
-4.93
-5.76
-5.92
-5.20
-3.92
-2.71
-2.15
-2.39
-3.07
-3.52
-3.16
-1.89
-0.17
1.21
1.67
1.11
0.02
-0.85
-0.93
-0.15
1.07
2.03
2.27
1.75
0.95
0.55
1.01
2.26
3.74
4.68
4.54
3.31
1.56
0.10
-0.42
0.12
1.28
2.35
2.79
2.50
1.86
1.39
1.38
1.69
1.84
1.38
0.23
-1.25
-2.40
-2.68
-1.98
-0.73
0.41
0.89
0.61
-0.05
-0.55
-0.47
0.25
1.33
2.31
2.90
3.12
3.35
4.19
6.12
9.12
12.57
15.36
16.36
15.06
11.85
7.88
4.62
3.16
3.76
6.04
9.38
13.30
17.38
20.87
22.67
21.69
17.60
11.43
5.42
2.13
3.16
8.38
16.04
23.68
29.33
32.09
32.16
30.13
26.49
21.46
15.38
9.03
3.62
0.31
-0.36
1.27
4.18
7.09
9.06
9.78
9.41
8.28
6.53
4.09
0.92
-2.81
-6.54
-9.63
-11.69
-12.88
-13.80
-15.10
-17.08
-19.46
-21.54
-22.65
-22.45
-21.19
-19.50
-18.04
-17.17
-16.95
-17.09
-17.34
-17.63
-18.09
-19.01
-20.53
-22.48
-24.40
-25.63
-25.69
-24.58
-22.83
-21.29
-20.57
-20.65
-20.74
-19.70
-16.72
-11.88
-6.31
-1.60
1.06
1.47
0.55
-0.28
0.10
1.87
4.26
6.05
6.28
4.77
2.05
-0.98
-3.62
-5.61
-7.14
-8.50
-9.73
-10.51
-10.27
-8.64
-5.71
-2.15
1.01
2.86
3.05
2.04
0.81
0.51
1.79
4.56
7.98
10.84
12.12
11.38
8.92
5.60
2.41
0.04
-1.36
-2.12
-2.72
-3.44
-4.20
-4.62
-4.35
-3.41
-2.25
-1.52
-1.74
-2.89
-4.41
-5.52
-5.64
-4.72
-3.35
-2.34
-2.28
-3.13
-4.22
-4.61
-3.58
-1.11
2.06
4.84
6.30
6.19
5.01
3.70
3.06
3.34
4.10
4.62
4.31
3.15
1.64
0.49
0.10
0.38
0.75
0.60
-0.31
-1.62
-2.59
-2.48
-1.10
1.09
3.07
3.87
3.02
0.86
-1.64
-3.35
-3.55
-2.29
-0.32
1.29
1.77
1.02
-0.39
-1.58
-1.92
-1.34
-0.33
0.41
0.45
-0.14
-0.86
-1.18
-0.85
-0.12
0.47
0.43
-0.35
-1.47
-2.32
-2.40
-1.62
-0.38
0.64
0.89
0.18
-1.15
-2.44
-3.01
-2.51
-1.15
0.45
1.51
1.53
0.52
-0.98
-2.20
-2.59
-2.08
-1.15
-0.47
-0.52
-1.21
-1.97
-2.10
-1.23
0.37
1.98
2.80
2.46
1.26
-0.01
-0.58
-0.09
1.15
2.37
2.80
2.12
0.63
-0.93
-1.76
-1.48
-0.25
1.30
2.40
2.58
1.86
0.69
-0.25
-0.49
0.00
0.78
1.25
0.98
-0.01
-1.25
-2.11
-2.13
-1.32
-0.20
0.57
0.54
-0.27
-1.39
-2.18
-2.24
-1.60
-0.69
-0.10
-0.16
-0.81
-1.57
-1.86
-1.38
-0.24
1.01
1.73
1.58
0.70
-0.30
-0.74
-0.23
1.10
2.57
3.41
3.17
1.98
0.47
-0.60
-0.76
-0.10
0.80
1.24
0.80
-0.39
-1.74
-2.54
-2.35
-1.29
0.03
0.93
1.01
0.41
-0.30
-0.47
0.18
1.42
2.54
2.87
2.12
0.62
-0.85
-1.51
-1.06
0.22
1.52
2.06
1.50
0.12
-1.33
-2.09
-1.82
-0.75
0.41
0.94
0.50
-0.68
-1.94
-2.54
-2.12
-0.88
0.56
1.47
1.42
0.51
-0.71
-1.56
-1.63
-0.97
-0.08
0.44
0.23
-0.56
-1.43
-1.79
-1.35
-0.32
0.66
0.97
0.35
-0.85
-1.88
-1.99
-0.91
0.97
2.80
3.70
3.24
1.68
-0.21
-1.55
-1.85
-1.20
-0.19
0.47
0.37
-0.41
-1.33
-1.74
-1.33
-0.27
0.84
1.31
0.81
-0.43
-1.73
-2.33
-1.83
-0.41
1.16
2.03
1.68
0.28
-1.45
-2.61
-2.60
-1.48
0.09
1.29
1.54
0.92
0.02
-0.42
0.02
1.15
2.32
2.78
2.20
0.82
-0.62
-1.35
-1.04
0.03
1.10
1.42
0.66
-0.82
-2.20
-2.63
-1.83
-0.16
1.42
2.05
1.37
-0.18
-1.66
-2.19
-1.46
0.08
1.52
2.01
1.28
-0.25
-1.71
-2.32
-1.81
-0.59
0.56
0.91
0.23
-1.11
-2.33
-2.68
-1.92
-0.38
1.14
1.85
1.44
0.21
-1.07
-1.63
-1.15
0.10
1.39
1.99
1.55
0.36
-0.92
-1.60
-1.37
-0.46
0.51
0.88
0.36
-0.81
-1.97
-2.45
-1.89
-0.47
1.17
2.30
2.49
1.85
0.93
0.34
0.40
0.99
1.57
1.56
0.68
-0.85
-2.45
-3.49
-3.60
-2.87
-1.81
-1.03
-0.89
-1.28
-1.73
-1.69
-0.86
0.53
1.88
2.51
2.04
0.71
-0.78
-1.62
-1.36
-0.09
1.54
2.74
3.03
2.48
1.63
1.16
1.45
2.38
3.35
3.67
2.96
1.39
-0.44
-1.80
-2.25
-1.88
-1.17
-0.67
-0.61
-0.79
-0.69
0.16
1.78
3.71
5.14
5.39
4.29
2.28
0.28
-0.91
-0.96
-0.18
0.66
0.84
0.10
-1.20
-2.28
-2.44
-1.45
0.29
1.99
2.88
2.65
1.61
0.51
0.07
0.61
1.91
3.29
4.06
3.87
2.89
1.68
0.88
0.76
1.15
1.52
1.38
0.56
-0.65
-1.68
-2.02
-1.58
-0.69
0.00
-0.00
-0.83
-2.13
-3.30
-3.84
-3.67
-3.12
-2.75
-2.98
-3.78
-4.65
-4.90
-4.09
-2.32
-0.28
1.07
1.04
-0.39
-2.54
-4.35
-4.91
-3.94
-1.92
0.22
1.57
1.71
0.84
-0.39
-1.29
-1.49
-1.10
-0.59
-0.50
-1.05
-2.07
-3.04
-3.42
-2.99
-1.96
-0.93
-0.51
-0.98
-2.12
-3.25
-3.66
-3.00
-1.53
0.00
0.78
0.42
-0.80
-2.07
-2.53
-1.81
-0.22
1.39
2.18
1.79
0.60
-0.54
-0.83
-0.01
1.54
2.94
3.42
2.74
1.33
0.00
-0.51
-0.01
1.10
2.04
2.15
1.27
-0.10
-1.16
-1.17
0.02
1.94
3.69
4.45
3.90
2.39
0.76
-0.17
-0.01
0.95
1.95
2.16
1.26
-0.38
-1.87
-2.35
-1.47
0.38
2.25
3.19
2.78
1.38
-0.15
-0.92
-0.55
0.65
1.92
2.47
2.03
0.89
-0.24
-0.70
-0.26
0.77
1.68
1.82
0.95
-0.58
-2.04
-2.70
-2.27
-1.07
0.16
0.64
0.05
-1.34
-2.77
-3.46
-3.02
-1.68
-0.15
0.81
0.81
0.03
-0.90
-1.29
-0.84
0.23
1.31
1.76
1.35
0.34
-0.63
-0.99
-0.55
0.34
1.02
0.97
0.03
-1.34
-2.44
-2.70
-2.01
-0.81
0.19
0.39
-0.30
-1.45
-2.31
-2.28
-1.26
0.29
1.64
2.12
1.57
0.40
-0.69
-1.05
-0.50
0.63
1.67
2.02
1.52
0.48
-0.43
-0.66
-0.06
1.03
1.97
2.19
1.55
0.37
-0.71
-1.10
-0.62
0.40
1.31
1.50
0.74
-0.64
-1.95
-2.52
-2.06
-0.86
0.41
1.01
0.62
-0.49
-1.64
-2.08
-1.50
-0.16
1.19
1.79
1.27
-0.06
-1.45
-2.13
-1.73
-0.55
0.63
1.01
0.27
-1.24
-2.71
-3.30
-2.68
-1.20
0.35
1.17
0.93
-0.01
-0.90
-1.03
-0.20
1.16
2.26
2.38
1.39
-0.25
-1.68
-2.17
-1.56
-0.30
0.80
1.07
0.36
-0.90
-1.92
-2.09
-1.29
0.03
1.11
1.35
0.67
-0.49
-1.41
-1.51
-0.68
0.67
1.85
2.29
1.82
0.80
-0.12
-0.36
0.20
1.26
2.15
2.29
1.52
0.21
-0.94
-1.29
-0.63
0.66
1.82
2.16
1.45
0.11
-1.07
-1.35
-0.52
0.98
2.28
2.62
1.78
0.21
-1.22
-1.76
-1.17
0.12
1.28
1.58
0.80
-0.63
-1.92
-2.36
-1.73
-0.39
0.86
1.35
0.82
-0.35
-1.41
-1.64
-0.81
0.71
2.13
2.73
2.24
0.99
-0.29
-0.88
-0.52
0.51
1.49
1.78
1.11
-0.18
-1.40
-1.86
-1.31
-0.05
1.21
1.79
1.40
0.34
-0.71
-1.09
-0.57
0.54
1.51
1.70
0.88
-0.63
-2.11
-2.86
-2.61
-1.59
-0.45
0.11
-0.22
-1.26
-2.38
-2.90
-2.45
-1.21
0.20
1.00
0.77
-0.37
-1.78
-2.71
-2.71
-1.84
-0.69
0.11
0.19
-0.26
-0.71
-0.62
0.20
1.43
2.39
2.51
1.62
0.14
-1.17
-1.61
-0.92
0.52
1.94
2.56
2.04
0.68
-0.78
-1.57
-1.34
-0.33
0.78
1.26
0.82
-0.26
-1.28
-1.53
-0.80
0.57
1.78
2.11
1.33
-0.15
-1.49
-1.93
-1.21
0.24
1.55
1.93
1.13
-0.42
-1.85
-2.40
-1.83
-0.57
0.58
0.92
0.31
-0.83
-1.71
-1.69
-0.69
0.80
1.94
2.09
1.16
-0.31
-1.44
-1.52
-0.43
1.30
2.72
3.06
2.10
0.35
-1.28
-2.01
-1.57
-0.41
0.68
1.02
0.41
-0.70
-1.56
-1.57
-0.63
0.77
1.86
2.02
1.15
-0.28
-1.49
-1.85
-1.26
-0.15
0.69
0.67
-0.30
-1.71
-2.77
-2.85
-1.86
-0.31
0.96
1.26
0.47
-0.94
-2.10
-2.29
-1.33
0.36
1.94
2.67
2.29
1.18
0.03
-0.50
-0.25
0.46
1.01
0.92
0.19
-0.72
-1.18
-0.80
0.32
1.60
2.30
2.00
0.79
-0.71
-1.73
-1.77
-0.87
0.39
1.22
1.13
0.12
-1.23
-2.12
-2.00
-0.91
0.59
1.64
1.67
0.66
-0.72
-1.62
-1.41
-0.13
1.54
2.63
2.49
1.14
-0.73
-2.09
-2.25
-1.15
0.54
1.82
2.01
1.06
-0.35
-1.24
-0.93
0.56
2.48
3.74
3.53
1.83
-0.55
-2.41
-2.79
-1.59
0.43
2.06
2.34
1.10
-0.94
-2.67
-3.21
-2.41
-0.94
0.21
0.28
-0.76
-2.25
-3.19
-2.91
-1.44
0.50
1.90
2.04
0.93
-0.73
-1.93
-1.93
-0.71
1.05
2.37
2.47
1.31
-0.44
-1.85
-2.17
-1.36
-0.03
0.96
0.98
0.05
-1.22
-1.97
-1.68
-0.41
1.17
2.17
2.05
0.88
-0.65
-1.64
-1.47
-0.20
1.49
2.64
2.61
1.40
-0.32
-1.62
-1.86
-1.04
0.22
1.06
0.91
-0.16
-1.49
-2.24
-1.90
-0.59
1.00
2.01
1.92
0.85
-0.48
-1.19
-0.75
0.68
2.33
3.24
2.79
1.11
-1.01
-2.54
-2.81
-1.86
-0.40
0.62
0.58
-0.47
-1.85
-2.70
-2.50
-1.36
0.06
0.93
0.76
-0.28
-1.50
-2.10
-1.62
-0.30
1.13
1.81
1.32
-0.07
-1.52
-2.13
-1.42
0.33
2.23
3.31
3.07
1.77
0.25
-0.52
-0.10
1.22
2.57
2.97
2.00
-0.03
-2.15
-3.31
-2.97
-1.41
0.49
1.62
1.35
-0.22
-2.28
-3.84
-4.21
-3.44
-2.19
-1.31
-1.38
-2.24
-3.22
-3.45
-2.50
-0.61
1.40
2.61
2.55
1.49
0.25
-0.26
0.36
1.80
3.19
3.64
2.81
1.06
-0.69
-1.47
-0.86
0.80
2.63
3.65
3.35
1.96
0.28
-0.74
-0.60
0.54
1.93
2.69
2.31
0.95
-0.69
-1.81
-1.93
-1.24
-0.37
-0.02
-0.53
-1.61
-2.61
-2.86
-2.16
-0.90
0.15
0.29
-0.61
-2.05
-3.13
-3.07
-1.72
0.34
2.08
2.60
1.63
-0.25
-1.98
-2.57
-1.67
0.25
2.17
3.13
2.74
1.36
-0.07
-0.69
-0.14
1.18
2.40
2.69
1.78
0.10
-1.40
-1.89
-1.12
0.43
1.80
2.12
1.15
-0.62
-2.24
-2.84
-2.16
-0.69
0.64
0.98
0.03
-1.73
-3.36
-4.01
-3.38
-1.95
-0.68
-0.45
-1.58
-3.61
-5.60
-6.68
-6.58
-5.74
-5.12
-5.54
-7.22
-9.66
-11.89
-13.12
-13.13
-12.48
-12.14
-12.98
-15.27
-18.50
-21.70
-24.00
-25.09
-25.45
-26.08
-27.93
-31.42
-36.21
-41.43
-46.16
-49.96
-53.10
-56.30
-60.36
-65.61
-71.78
-78.16
-83.99
-88.89
-92.82
-95.71
-97.02
-95.43
-89.17
-76.96
-59.11
-38.10
-18.12
-3.72
2.06
-1.01
-10.29
-21.35
-29.83
-32.99
-30.48
-23.92
-15.87
-8.86
-4.60
-3.85
-6.39
-10.93
-15.15
-15.85
-9.69
5.81
31.19
64.38
100.98
135.22
161.69
176.80
179.68
172.06
157.36
139.45
121.42
105.02
90.71
78.17
66.96
56.96
48.47
41.89
37.35
34.42
32.18
29.63
26.23
22.12
18.12
15.14
13.56
12.92
12.05
9.75
5.58
0.20
-4.80
-7.89
-8.39
-7.10
-5.84
-6.49
-9.86
-15.13
-20.16
-22.58
-21.06
-16.07
-9.66
-4.48
-2.41
-3.68
-6.92
-9.91
-10.88
-9.39
-6.53
-4.21
-4.09
-6.66
-10.99
-15.29
-17.88
-18.08
-16.41
-14.14
-12.42
-11.61
-11.05
-9.64
-6.67
-2.36
2.06
5.09
5.80
4.35
2.02
0.45
0.79
3.12
6.47
9.44
11.04
11.23
10.87
11.11
12.70
15.41
18.23
19.92
19.81
18.23
16.37
15.55
16.48
18.76
21.08
21.92
20.42
16.90
12.73
9.52
8.21
8.52
9.04
8.14
4.91
-0.09
-5.05
-7.87
-7.33
-3.85
0.71
4.08
4.83
3.15
0.65
-0.65
0.43
3.55
7.08
9.05
8.36
5.40
1.89
-0.14
0.52
3.65
7.73
10.85
11.73
10.41
8.04
6.17
5.75
6.57
7.46
7.09
4.81
1.19
-2.28
-4.03
-3.32
-0.79
1.90
2.93
1.33
-2.49
-6.94
-10.17
-11.08
-9.87
-7.92
-6.84
-7.56
-9.67
-11.74
-12.19
-10.29
-6.72
-3.27
-1.79
-3.18
-6.77
-10.73
-13.02
-12.55
-9.71
-6.09
-3.43
-2.52
-2.74
-2.54
-0.53
3.50
8.23
11.48
11.44
7.78
1.98
-3.40
-6.08
-5.19
-1.75
2.04
4.04
3.42
1.01
-1.23
-1.49
0.81
4.61
7.85
8.70
6.66
2.91
-0.35
-1.23
0.69
4.14
6.82
6.91
4.07
-0.24
-3.59
-4.07
-1.36
2.98
6.43
6.97
4.22
-0.32
-4.13
-5.17
-3.02
0.85
4.01
4.42
1.66
-2.86
-6.78
-8.12
-6.42
-3.01
-0.17
0.26
-2.10
-5.96
-9.14
-9.86
-7.80
-4.23
-1.29
-0.69
-2.78
-6.30
-9.16
-9.64
-7.36
-3.52
-0.19
0.86
-0.78
-4.02
-6.84
-7.53
-5.68
-2.35
0.55
1.49
0.23
-1.97
-3.18
-1.95
1.78
6.54
10.12
10.86
8.52
4.44
0.76
-0.78
0.22
2.66
4.68
4.77
2.62
-0.68
-3.39
-4.09
-2.62
-0.10
1.71
1.44
-1.02
-4.54
-7.34
-8.09
-6.70
-4.35
-2.75
-3.12
-5.37
-8.06
-9.28
-7.80
-3.89
0.74
3.80
3.81
0.87
-3.29
-6.34
-6.64
-4.16
-0.45
2.41
2.99
1.45
-0.66
-1.34
0.61
4.77
9.34
12.08
11.65
8.38
4.11
1.17
1.01
3.39
6.53
8.17
6.92
3.15
-1.26
-3.97
-3.62
-0.63
3.03
4.98
3.84
0.03
-4.45
-7.26
-6.98
-4.02
-0.24
2.07
1.59
-1.35
-4.96
-7.10
-6.50
-3.56
-0.05
1.93
1.18
-1.95
-5.69
-7.97
-7.57
-4.83
-1.43
0.57
-0.04
-2.95
-6.58
-8.95
-8.82
-6.44
-3.34
-1.46
-2.02
-4.83
-8.37
-10.70
-10.58
-8.26
-5.25
-3.46
-3.97
-6.38
-8.98
-9.78
-7.77
-3.61
0.69
2.92
2.00
-1.36
-5.00
-6.55
-4.77
-0.23
5.08
8.87
9.88
8.44
6.17
4.94
5.74
8.10
10.48
11.23
9.58
6.14
2.54
0.51
0.86
2.99
5.24
5.84
3.98
0.36
-3.20
-4.72
-3.29
0.39
4.33
6.44
5.66
2.64
-0.72
-2.37
-1.35
1.64
4.73
5.97
4.55
1.24
-2.00
-3.24
-1.69
1.83
5.39
7.03
5.94
2.88
-0.28
-1.68
-0.57
2.26
5.02
6.00
4.62
1.81
-0.60
-0.95
1.25
4.94
8.16
9.15
7.39
3.89
0.67
-0.40
1.37
5.06
8.76
10.54
9.59
6.60
3.28
1.32
1.42
2.90
4.16
3.69
1.07
-2.83
-6.28
-7.74
-6.75
-4.20
-1.79
-1.02
-2.42
-5.25
-8.02
-9.35
-8.76
-6.88
-5.08
-4.65
-6.09
-8.84
-11.58
-12.92
-12.14
-9.56
-6.33
-3.83
-2.88
-3.31
-4.06
-3.81
-1.85
1.45
4.71
6.31
5.36
2.28
-1.32
-3.54
-3.26
-0.81
2.25
4.16
4.01
2.32
0.65
0.61
2.67
5.86
8.30
8.34
5.61
1.32
-2.44
-3.90
-2.58
0.49
3.41
4.53
3.39
0.88
-1.36
-1.96
-0.66
1.58
3.18
2.91
0.63
-2.50
-4.74
-4.67
-2.03
2.11
5.96
7.92
7.51
5.54
3.57
3.06
4.45
6.99
9.16
9.60
7.88
4.87
2.23
1.48
3.13
6.31
9.27
10.30
8.74
5.34
1.80
-0.21
-0.04
1.56
2.92
2.50
-0.14
-4.09
-7.56
-8.99
-7.95
-5.37
-2.99
-2.36
-3.92
-6.83
-9.44
-10.32
-9.03
-6.40
-4.00
-3.24
-4.58
-7.23
-9.63
-10.36
-8.93
-6.07
-3.31
-2.10
-2.99
-5.30
-7.53
-8.30
-7.09
-4.62
-2.34
-1.56
-2.61
-4.61
-5.98
-5.40
-2.61
1.33
4.64
5.83
4.56
1.89
-0.35
-0.59
1.52
4.97
7.90
8.77
7.12
3.87
0.64
-1.12
-0.93
0.58
2.11
2.57
1.63
-0.12
-1.57
-1.80
-0.58
1.45
3.17
3.61
2.51
0.51
-1.19
-1.54
-0.26
1.90
3.67
3.94
2.53
0.32
-1.24
-1.01
1.16
4.27
6.74
7.34
5.84
3.15
0.76
-0.11
0.81
2.76
4.45
4.78
3.54
1.45
-0.32
-0.79
0.20
1.97
3.37
3.50
2.21
0.20
-1.42
-1.77
-0.73
1.00
2.26
2.15
0.54
-1.87
-3.90
-4.54
-3.52
-1.47
0.47
1.22
0.33
-1.84
-4.35
-6.22
-6.91
-6.52
-5.58
-4.72
-4.22
-3.86
-3.10
-1.49
0.97
3.71
5.77
6.38
5.37
3.41
1.65
1.13
2.15
4.03
5.38
4.93
2.35
-1.42
-4.60
-5.50
-3.65
-0.08
3.11
4.04
2.01
-2.01
-6.06
-8.31
-8.12
-6.29
-4.42
-3.83
-4.77
-6.35
-7.21
-6.39
-3.95
-0.87
1.52
2.29
1.36
-0.54
-2.27
-2.93
-2.26
-0.73
0.77
1.48
1.14
0.13
-0.79
-0.86
0.15
1.84
3.41
4.10
3.66
2.48
1.41
1.21
2.09
3.55
4.65
4.54
3.02
0.70
-1.37
-2.22
-1.55
0.09
1.70
2.37
1.84
0.66
-0.22
-0.03
1.34
3.26
4.78
5.18
4.36
2.87
1.57
1.13
1.66
2.74
3.66
3.87
3.23
2.12
1.14
0.81
1.22
2.00
2.51
2.27
1.17
-0.39
-1.71
-2.24
-1.88
-1.06
-0.50
-0.79
-1.99
-3.54
-4.53
-4.19
-2.36
0.26
2.40
2.87
1.26
-1.65
-4.27
-5.02
-3.23
0.33
3.90
5.70
4.94
2.26
-0.72
-2.40
-2.19
-0.73
0.60
0.65
-0.77
-2.79
-4.08
-3.74
-1.88
0.48
1.96
1.64
-0.37
-3.03
-4.88
-4.89
-3.04
-0.29
1.95
2.59
1.50
-0.54
-2.24
-2.62
-1.54
0.29
1.71
1.88
0.72
-1.02
-2.28
-2.26
-1.00
0.70
1.80
1.60
0.18
-1.61
-2.73
-2.51
-1.08
0.73
1.89
1.80
0.62
-0.84
-1.61
-1.16
0.32
2.00
2.92
2.55
1.12
-0.56
-1.50
-1.14
0.33
2.14
3.28
3.15
1.79
-0.08
-1.50
-1.78
-0.89
0.54
1.61
1.60
0.43
-1.30
-2.64
-2.83
-1.72
0.13
1.75
2.34
1.70
0.36
-0.77
-0.93
0.01
1.51
2.65
2.69
1.50
-0.35
-1.92
-2.42
-1.64
-0.06
1.41
1.95
1.25
-0.28
-1.78
-2.39
-1.74
-0.15
1.51
2.35
1.95
0.61
-0.81
-1.41
-0.79
0.68
2.09
2.47
1.49
-0.33
-1.84
-1.96
-0.40
2.01
3.76
3.47
0.91
-2.76
-5.48
-5.51
-2.55
1.89
5.26
5.44
2.12
-2.88
-6.53
-6.44
-2.29
3.79
8.43
8.94
4.93
-1.42
-6.66
-8.09
-5.25
-0.13
4.10
5.05
2.37
-2.08
-5.59
-6.16
-3.69
0.18
3.12
3.55
1.51
-1.54
-3.64
-3.53
-1.32
1.66
3.72
3.78
1.95
-0.58
-2.28
-2.10
-0.07
2.74
4.83
5.08
3.35
0.57
-1.76
-2.43
-1.16
1.24
3.29
3.73
2.20
-0.44
-2.69
-3.21
-1.69
0.95
3.07
3.30
1.39
-1.61
-3.92
-4.16
-2.14
0.95
3.22
3.23
0.89
-2.47
-4.91
-4.94
-2.51
1.01
3.62
3.85
1.59
-1.84
-4.54
-5.09
-3.40
-0.64
1.43
1.58
-0.22
-2.76
-4.39
-3.97
-1.60
1.44
3.44
3.24
0.94
-2.19
-4.44
-4.65
-2.84
-0.20
1.72
1.86
0.25
-2.02
-3.55
-3.41
-1.72
0.51
2.01
2.00
0.61
-1.21
-2.33
-2.04
-0.51
1.37
2.53
2.29
0.81
-1.08
-2.33
-2.26
-0.92
0.89
2.16
2.14
0.83
-1.06
-2.48
-2.63
-1.36
0.71
2.54
3.24
2.49
0.75
-1.07
-2.04
-1.72
-0.36
1.24
2.22
2.12
1.10
-0.14
-0.76
-0.32
0.92
2.14
2.44
1.49
-0.17
-1.36
-0.96
1.30
4.43
6.71
6.62
3.89
-0.06
-2.92
-2.80
0.41
4.82
7.52
6.38
1.49
-4.65
-8.54
-7.79
-2.68
3.85
7.90
6.95
1.45
-5.39
-9.49
-8.35
-2.60
4.39
8.49
7.28
1.44
-5.69
-10.13
-9.60
-4.79
1.18
4.66
3.64
-1.12
-6.68
-9.72
-8.47
-3.69
1.86
5.07
4.25
0.01
-5.21
-8.56
-8.38
-5.02
-0.49
2.73
3.13
0.92
-2.17
-3.98
-3.16
0.09
4.18
7.05
7.29
4.94
1.37
-1.51
-2.30
-0.88
1.67
3.71
4.04
2.55
0.19
-1.65
-1.91
-0.49
1.79
3.72
4.34
3.52
1.91
0.59
0.36
1.33
2.83
3.83
3.53
1.95
-0.08
-1.28
-0.69
1.64
4.62
6.58
6.29
3.81
0.61
-1.21
-0.24
3.24
7.19
8.96
6.95
1.74
-4.01
-7.09
-5.66
-0.57
5.06
7.64
5.28
-1.01
-7.85
-11.56
-10.30
-5.22
0.30
2.61
0.01
-6.28
-12.90
-16.32
-14.88
-9.69
-3.88
-0.72
-1.78
-6.08
-10.83
-13.07
-11.37
-6.53
-0.96
2.80
3.47
1.62
-0.82
-1.88
-0.62
2.37
5.45
6.93
6.11
3.57
0.88
-0.37
0.60
3.33
6.37
8.15
7.81
5.63
2.82
0.88
0.75
2.37
4.76
6.57
6.79
5.28
2.73
0.32
-0.98
-0.77
0.57
2.22
3.34
3.45
2.62
1.34
0.20
-0.44
-0.57
-0.46
-0.43
-0.52
-0.42
0.28
1.78
3.63
4.81
4.22
1.51
-2.31
-5.10
-4.67
-0.27
6.53
12.30
13.58
8.96
0.21
-8.51
-12.96
-11.30
-5.12
1.57
4.79
2.91
-2.62
-8.41
-11.37
-10.51
-7.26
-4.28
-3.69
-5.80
-9.09
-11.25
-10.68
-7.34
-2.76
0.93
2.15
0.68
-2.22
-4.66
-5.11
-3.23
-0.01
2.88
4.06
3.14
0.91
-1.20
-1.96
-0.99
1.08
3.07
3.93
3.30
1.66
-0.02
-0.84
-0.46
0.75
1.99
2.47
1.93
0.75
-0.26
-0.34
0.74
2.54
4.16
4.75
3.98
2.28
0.52
-0.38
-0.04
1.25
2.67
3.37
2.88
1.41
-0.32
-1.48
-1.53
-0.50
1.05
2.36
2.86
2.47
1.56
0.75
0.57
1.10
1.95
2.49
2.25
1.26
0.14
-0.22
0.72
2.67
4.44
4.62
2.51
-1.19
-4.54
-5.38
-2.81
2.03
6.37
7.40
4.09
-1.95
-7.25
-8.55
-4.89
1.61
6.90
7.47
2.58
-5.14
-11.17
-11.85
-6.61
1.53
7.72
8.13
2.22
-6.91
-14.38
-16.35
-12.14
-4.49
2.20
4.47
1.61
-4.13
-9.14
-10.60
-7.94
-2.98
1.43
3.10
1.66
-1.44
-3.95
-4.16
-1.82
1.86
4.96
6.00
4.68
1.98
-0.44
-1.24
-0.03
2.44
4.78
5.76
4.98
3.06
1.20
0.53
1.39
3.25
4.99
5.56
4.60
2.59
0.54
-0.58
-0.36
0.81
2.01
2.36
1.46
-0.35
-2.23
-3.29
-3.12
-1.93
-0.45
0.50
0.44
-0.48
-1.63
-2.22
-1.78
-0.40
1.34
2.65
3.04
2.54
1.67
1.11
1.24
1.82
2.20
1.69
0.15
-1.79
-2.99
-2.45
-0.13
2.85
4.66
3.81
0.24
-4.37
-7.39
-6.72
-2.24
3.86
8.08
7.67
2.34
-5.35
-11.34
-12.46
-8.27
-1.39
4.04
4.87
0.73
-5.75
-10.67
-11.18
-7.14
-1.05
3.57
4.31
1.17
-3.58
-6.91
-6.85
-3.52
1.14
4.61
5.30
3.33
0.37
-1.46
-0.86
2.06
5.85
8.64
9.17
7.43
4.57
2.17
1.36
2.21
3.82
4.86
4.37
2.34
-0.32
-2.30
-2.65
-1.30
0.82
2.42
2.48
0.86
-1.64
-3.79
-4.65
-4.06
-2.72
-1.67
-1.63
-2.63
-3.94
-4.63
-4.13
-2.61
-0.87
0.19
0.06
-1.04
-2.30
-2.81
-2.11
-0.44
1.39
2.50
2.44
1.42
0.20
-0.41
0.05
1.40
3.04
4.31
4.91
4.99
5.01
5.36
6.08
6.89
7.35
7.14
6.26
5.02
3.80
2.88
2.35
2.01
1.57
0.80
-0.38
-1.71
-2.70
-2.86
-1.95
-0.29
1.25
1.57
-0.03
-3.40
-7.48
-10.77
-12.08
-11.20
-8.93
-6.64
-5.42
-5.52
-6.30
-6.77
-6.27
-4.93
-3.54
-3.02
-3.78
-5.42
-6.94
-7.29
-6.04
-3.62
-1.12
0.36
0.27
-1.06
-2.62
-3.37
-2.79
-1.11
0.80
2.06
2.21
1.43
0.28
-0.68
-1.23
-1.60
-2.19
-3.34
-5.04
-6.95
-8.54
-9.28
-8.89
-7.40
-5.18
-2.83
-0.91
0.18
0.43
0.16
-0.32
-0.99
-2.30
-4.97
-9.40
-15.14
-20.79
-24.42
-24.54
-20.83
-14.39
-7.20
-1.16
2.73
4.67
5.64
6.68
8.25
10.09
11.52
11.96
11.34
10.16
9.20
9.10
10.05
11.69
13.28
14.15
13.99
13.04
11.94
11.31
11.34
11.68
11.60
10.50
8.27
5.50
3.17
2.17
2.75
4.39
6.07
6.74
5.99
4.14
2.08
0.72
0.43
0.87
1.24
0.82
-0.55
-2.26
-3.37
-3.18
-1.68
0.36
1.87
2.10
1.09
-0.35
-1.12
-0.57
1.15
3.10
4.10
3.47
1.45
-0.95
-2.47
-2.38
-0.83
1.19
2.49
2.35
0.93
-0.84
-1.82
-1.33
0.41
2.41
3.51
3.04
1.21
-0.96
-2.30
-2.10
-0.59
1.27
2.29
1.83
0.12
-1.84
-2.91
-2.48
-0.79
1.15
2.20
1.74
0.02
-1.96
-3.06
-2.67
-1.06
0.77
1.68
1.04
-0.84
-2.94
-4.07
-3.60
-1.81
0.23
1.29
0.70
-1.25
-3.48
-4.69
-4.17
-2.20
0.13
1.55
1.32
-0.27
-2.12
-2.97
-2.16
-0.01
2.33
3.61
3.17
1.31
-0.92
-2.35
-2.39
-1.30
0.02
0.64
0.11
-1.22
-2.48
-2.80
-1.83
0.04
1.85
2.68
2.14
0.57
-1.09
-1.88
-1.33
0.23
1.87
2.62
1.98
0.28
-1.55
-2.46
-1.90
-0.14
1.93
3.25
3.28
2.25
1.02
0.55
1.29
2.89
4.43
4.92
3.92
1.82
-0.41
-1.74
-1.68
-0.50
0.90
1.57
1.01
-0.55
-2.28
-3.29
-3.11
-1.95
-0.55
0.22
-0.08
-1.26
-2.57
-3.16
-2.61
-1.18
0.28
0.80
-0.17
-2.37
-4.84
-6.41
-6.31
-4.64
-2.30
-0.49
-0.03
-0.88
-2.18
-2.84
-2.21
-0.50
1.35
2.27
1.72
0.09
-1.57
-2.14
-1.15
0.97
3.08
4.00
3.20
1.11
-1.12
-2.27
-1.72
0.15
2.26
3.41
2.99
1.32
-0.57
-1.55
-1.09
0.46
2.09
2.77
2.03
0.29
-1.43
-2.10
-1.27
0.67
2.68
3.70
3.23
1.62
-0.16
-1.06
-0.52
1.15
3.02
4.04
3.63
2.05
0.23
-0.72
-0.19
1.61
3.70
4.90
4.53
2.78
0.60
-0.79
-0.70
0.70
2.45
3.37
2.77
0.86
-1.40
-2.82
-2.71
-1.22
0.77
2.12
2.14
0.85
-0.99
-2.38
-2.70
-2.01
-1.01
-0.60
-1.34
-3.05
-4.89
-5.83
-5.30
-3.53
-1.43
-0.13
-0.26
-1.59
-3.19
-3.97
-3.39
-1.75
-0.06
0.61
-0.24
-2.17
-4.07
-4.76
-3.71
-1.33
1.20
2.65
2.39
0.77
-1.13
-2.09
-1.51
0.29
2.23
3.13
2.41
0.46
-1.57
-2.45
-1.55
0.74
3.27
4.74
4.48
2.77
0.66
-0.67
-0.60
0.63
2.07
2.72
2.11
0.63
-0.74
-1.07
-0.03
1.84
3.48
3.88
2.70
0.48
-1.63
-2.55
-1.82
0.13
2.24
3.41
3.09
1.55
-0.30
-1.42
-1.24
0.02
1.52
2.29
1.84
0.45
-1.00
-1.51
-0.66
1.18
2.94
3.52
2.36
-0.17
-2.99
-4.83
-4.98
-3.63
-1.70
-0.34
-0.25
-1.33
-2.76
-3.57
-3.21
-1.85
-0.34
0.39
-0.20
-1.84
-3.64
-4.54
-3.99
-2.20
-0.09
1.27
1.26
0.05
-1.50
-2.36
-1.95
-0.47
1.22
2.14
1.75
0.33
-1.19
-1.77
-0.87
1.21
3.45
4.73
4.39
2.62
0.39
-1.13
-1.21
0.02
1.68
2.65
2.25
0.67
-1.15
-2.08
-1.49
0.37
2.50
3.73
3.40
1.80
-0.05
-1.01
-0.46
1.21
2.90
3.43
2.21
-0.32
-2.96
-4.39
-3.93
-1.91
0.50
1.96
1.73
0.08
-1.91
-2.98
-2.43
-0.49
1.79
3.17
2.94
1.30
-0.76
-2.06
-1.88
-0.43
1.35
2.31
1.78
-0.01
-2.11
-3.39
-3.22
-1.85
-0.21
0.65
0.21
-1.19
-2.56
-2.90
-1.73
0.50
2.72
3.81
3.23
1.35
-0.81
-2.13
-2.01
-0.70
0.90
1.81
1.52
0.30
-0.97
-1.40
-0.62
0.94
2.30
2.50
1.18
-1.18
-3.44
-4.49
-3.80
-1.79
0.45
1.76
1.56
0.13
-1.55
-2.44
-2.04
-0.70
0.67
1.06
0.07
-1.89
-3.81
-4.66
-4.00
-2.19
-0.24
0.80
0.40
-1.16
-3.02
-4.15
-3.99
-2.74
-1.20
-0.33
-0.67
-2.03
-3.55
-4.23
-3.47
-1.48
0.80
2.30
2.34
1.15
-0.36
-1.04
-0.23
1.83
4.13
5.49
5.24
3.66
1.81
0.91
1.62
3.66
5.90
7.04
6.30
3.92
0.99
-1.06
-1.31
0.24
2.68
4.71
5.37
4.56
2.99
1.72
1.46
2.18
3.12
3.33
2.26
0.19
-1.94
-3.05
-2.59
-0.88
1.02
1.94
1.25
-0.80
-3.17
-4.62
-4.45
-2.84
-0.78
0.51
0.32
-1.17
-3.01
-4.01
-3.49
-1.65
0.51
1.82
1.59
0.04
-1.89
-3.08
-2.89
-1.52
0.14
1.05
0.66
-0.74
-2.23
-2.76
-1.82
0.24
2.39
3.45
2.80
0.75
-1.63
-3.10
-2.95
-1.38
0.58
1.71
1.30
-0.46
-2.56
-3.77
-3.35
-1.49
0.79
2.22
2.03
0.36
-1.78
-3.13
-2.89
-1.24
0.83
2.06
1.72
0.01
-2.02
-3.15
-2.69
-0.89
1.19
2.34
1.88
0.08
-2.01
-3.15
-2.63
-0.69
1.65
3.16
3.10
1.60
-0.38
-1.68
-1.56
-0.14
1.71
2.87
2.67
1.25
-0.45
-1.32
-0.68
1.26
3.48
4.78
4.42
2.60
0.32
-1.21
-1.22
0.15
1.97
3.07
2.72
1.09
-0.89
-2.07
-1.75
-0.13
1.82
2.90
2.36
0.37
-2.08
-3.74
-3.80
-2.35
-0.32
1.07
1.01
-0.42
-2.34
-3.58
-3.39
-1.84
0.20
1.58
1.50
-0.05
-2.23
-3.86
-4.05
-2.70
-0.55
1.22
1.67
0.65
-1.16
-2.62
-2.81
-1.61
0.22
1.52
1.42
-0.16
-2.35
-3.93
-3.97
-2.45
-0.23
1.41
1.52
0.06
-2.06
-3.51
-3.32
-1.45
1.18
3.20
3.58
2.26
0.13
-1.53
-1.74
-0.50
1.32
2.46
2.10
0.35
-1.79
-3.00
-2.44
-0.26
2.45
4.34
4.49
2.94
0.68
-0.99
-1.15
0.21
2.24
3.71
3.75
2.29
0.13
-1.56
-1.92
-0.81
1.07
2.59
2.86
1.73
-0.11
-1.52
-1.56
-0.06
2.25
4.11
4.52
3.19
0.86
-1.22
-1.99
-1.16
0.58
2.01
2.13
0.74
-1.41
-3.10
-3.39
-2.16
-0.21
1.24
1.23
-0.29
-2.50
-4.11
-4.14
-2.51
-0.07
1.84
2.15
0.69
-1.72
-3.74
-4.24
-2.92
-0.55
1.57
2.28
1.31
-0.63
-2.25
-2.48
-1.16
0.94
2.50
2.46
0.69
-1.95
-4.09
-4.63
-3.37
-1.09
0.93
1.63
0.78
-0.94
-2.42
-2.74
-1.74
-0.09
1.14
1.12
-0.18
-1.97
-3.03
-2.53
-0.48
2.16
4.04
4.14
2.41
-0.18
-2.18
-2.45
-0.82
1.81
4.04
4.69
3.54
1.34
-0.58
-1.13
-0.06
1.88
3.43
3.58
2.15
-0.10
-1.91
-2.32
-1.15
0.85
2.44
2.65
1.33
-0.76
-2.39
-2.55
-1.08
1.32
3.41
4.13
3.17
1.10
-0.95
-1.94
-1.50
-0.11
1.17
1.40
0.25
-1.71
-3.38
-3.82
-2.76
-0.81
0.86
1.27
0.14
-1.89
-3.63
-4.05
-2.85
-0.69
1.25
1.91
1.03
-0.78
-2.39
-2.78
-1.65
0.40
2.26
2.93
2.12
0.43
-1.06
-1.36
-0.21
1.76
3.40
3.65
2.21
-0.31
-2.68
-3.73
-3.00
-1.03
0.97
1.81
1.02
-0.84
-2.56
-2.99
-1.75
0.50
2.43
2.84
1.37
-1.23
-3.56
-4.33
-3.13
-0.64
1.80
2.93
2.32
0.58
-1.06
-1.48
-0.38
1.57
3.12
3.19
1.50
-1.21
-3.60
-4.47
-3.49
-1.31
0.75
1.52
0.59
-1.42
-3.30
-3.96
-3.01
-1.06
0.72
1.24
0.16
-1.92
-3.74
-4.21
-2.90
-0.44
1.97
3.15
2.65
0.97
-0.80
-1.58
-0.94
0.67
2.24
2.78
1.90
0.08
-1.60
-2.08
-0.92
1.40
3.76
4.99
4.48
2.61
0.46
-0.76
-0.40
1.21
2.98
3.74
2.96
1.08
-0.75
-1.39
-0.43
1.51
3.14
3.28
1.54
-1.39
-4.14
-5.43
-4.77
-2.68
-0.39
0.92
0.75
-0.45
-1.62
-1.74
-0.44
1.74
3.65
4.13
2.76
0.08
-2.62
-4.02
-3.49
-1.53
0.54
1.29
0.03
-2.79
-5.76
-7.34
-6.68
-4.15
-1.09
0.93
1.03
-0.50
-2.39
-3.18
-2.15
0.25
2.60
3.43
2.09
-0.81
-3.69
-4.93
-3.85
-1.15
1.47
2.31
0.71
-2.54
-5.62
-6.81
-5.44
-2.42
0.39
1.20
-0.63
-4.17
-7.51
-8.77
-7.20
-3.55
0.45
3.00
3.33
2.01
0.56
0.45
2.17
4.93
7.08
7.08
4.43
0.07
-4.14
-6.36
-5.77
-3.00
0.29
2.37
2.39
0.85
-0.85
-1.29
0.06
2.49
4.45
4.54
2.31
-1.39
-4.86
-6.43
-5.37
-2.19
1.67
4.71
6.16
6.23
5.85
5.89
6.55
7.16
6.63
4.25
0.28
-3.92
-6.44
-5.79
-1.73
4.54
10.89
15.27
16.68
15.51
13.24
11.46
10.96
11.34
11.30
9.51
5.56
0.30
-4.45
-6.89
-6.22
-3.13
0.62
3.06
3.15
1.21
-1.32
-2.80
-2.38
-0.52
1.31
1.48
-0.77
-4.90
-9.23
-11.88
-11.79
-9.20
-5.60
-2.81
-2.03
-3.22
-5.19
-6.39
-5.77
-3.52
-0.83
0.71
0.13
-2.33
-5.33
-7.16
-6.71
-4.17
-0.89
1.33
1.34
-0.74
-3.52
-5.22
-4.67
-2.05
1.17
3.09
2.51
-0.30
-3.71
-5.66
-4.85
-1.58
2.38
4.72
3.99
0.43
-4.13
-7.35
-7.68
-5.34
-2.12
-0.25
-1.04
-3.93
-6.79
-7.15
-3.78
2.41
8.67
11.84
10.07
3.92
-3.89
-9.94
-11.87
-9.57
-4.92
-0.50
2.05
2.92
3.73
6.22
10.83
16.27
20.15
20.47
16.86
10.87
5.19
2.11
2.39
4.94
7.52
7.99
5.46
0.65
-4.50
-7.95
-8.54
-6.59
-3.62
-1.51
-1.44
-3.29
-5.73
-7.07
-6.27
-3.64
-0.67
0.80
-0.29
-3.60
-7.47
-9.85
-9.45
-6.48
-2.53
0.28
0.51
-1.79
-5.07
-7.16
-6.50
-3.11
1.40
4.66
4.92
2.14
-1.98
-4.91
-4.80
-1.56
3.01
6.32
6.57
3.81
-0.02
-2.28
-1.25
2.86
8.01
11.54
11.71
8.72
4.55
1.70
1.80
4.67
8.48
10.81
10.07
6.36
1.38
-2.58
-3.90
-2.44
0.40
2.61
2.69
0.43
-3.04
-6.05
-7.35
-6.79
-5.25
-4.02
-3.93
-4.80
-5.54
-4.87
-2.15
1.98
5.73
7.05
4.86
-0.12
-5.46
-8.22
-6.62
-1.25
5.00
8.32
6.19
-1.10
-10.42
-17.41
-18.87
-14.49
-7.02
-0.54
1.83
-0.33
-4.66
-7.63
-6.72
-1.95
4.19
8.28
8.12
3.99
-1.51
-5.16
-5.03
-1.56
2.75
4.97
3.46
-1.12
-6.24
-8.95
-7.56
-2.53
3.77
8.44
9.53
7.06
2.90
-0.37
-0.83
1.69
5.58
8.45
8.37
5.14
0.36
-3.52
-4.47
-2.06
2.32
6.31
7.91
6.61
3.55
0.65
-0.63
-0.25
0.48
-0.14
-3.00
-7.45
-11.51
-13.01
-10.87
-5.78
0.14
4.41
5.57
3.99
1.66
0.92
3.15
7.76
12.50
14.73
12.88
7.61
1.64
-1.68
-0.19
5.86
13.77
19.82
21.18
17.29
10.03
2.45
-2.92
-5.29
-5.74
-6.26
-8.31
-11.87
-15.56
-17.58
-17.06
-14.70
-12.39
-12.05
-14.31
-18.00
-20.64
-19.81
-14.63
-6.35
2.04
7.34
7.70
3.59
-2.46
-7.21
-8.29
-5.35
-0.06
4.90
7.33
6.62
3.98
1.57
1.13
3.00
5.90
7.80
7.19
4.10
0.18
-2.25
-1.51
2.31
7.39
11.05
11.33
8.06
3.01
-1.16
-2.36
-0.28
3.55
6.65
7.00
4.26
-0.16
-3.89
-4.98
-3.03
0.65
3.81
4.57
2.56
-0.94
-3.76
-4.15
-1.83
1.79
4.47
4.44
1.52
-2.77
-6.07
-6.58
-4.12
-0.24
2.71
2.95
0.29
-3.70
-6.68
-6.84
-4.00
0.28
3.61
4.15
1.59
-2.64
-6.27
-7.49
-5.92
-2.78
-0.07
0.68
-0.71
-3.00
-4.35
-3.47
-0.41
3.38
5.98
6.05
3.62
0.08
-2.64
-3.15
-1.41
1.27
3.09
2.77
0.41
-2.50
-3.95
-2.55
1.56
6.67
10.32
10.67
7.47
2.26
-2.44
-4.45
-3.11
0.46
4.00
5.39
3.84
0.26
-3.31
-4.91
-3.76
-0.75
2.18
3.19
1.62
-1.56
-4.37
-4.96
-2.79
1.05
4.40
5.24
2.86
-1.72
-6.38
-8.94
-8.42
-5.44
-1.85
0.37
0.19
-1.94
-4.41
-5.47
-4.26
-1.32
1.70
3.04
1.82
-1.43
-5.14
-7.63
-8.17
-7.34
-6.67
-7.57
-10.40
-14.13
-16.88
-17.10
-14.49
-10.26
-6.50
-4.96
-6.14
-9.04
-11.85
-12.97
-11.88
-9.29
-6.57
-4.85
-4.39
-4.51
-4.04
-2.14
1.19
5.01
7.87
8.51
6.59
2.87
-1.11
-3.76
-4.30
-3.24
-2.15
-2.84
-6.39
-12.46
-19.39
-25.06
-28.01
-28.22
-27.07
-26.46
-27.67
-30.57
-33.53
-34.50
-32.00
-25.97
-17.73
-9.19
-1.88
3.48
6.80
8.20
7.68
5.62
3.45
4.05
11.19
28.01
55.17
89.78
125.78
155.74
173.39
175.61
163.07
139.53
110.14
79.75
51.77
27.87
8.29
-7.42
-19.84
-29.39
-36.23
-40.74
-43.60
-45.81
-48.47
-52.26
-57.10
-62.10
-65.90
-67.38
-66.24
-63.28
-60.05
-58.11
-58.21
-59.84
-61.50
-61.47
-58.63
-53.18
-46.39
-39.99
-35.25
-32.32
-30.29
-27.70
-23.35
-16.94
-9.10
-0.96
6.51
12.98
18.81
24.76
31.43
38.86
46.40
53.04
57.93
60.85
62.45
63.89
66.19
69.59
73.35
76.11
76.67
74.64
70.73
66.24
62.24
58.80
54.80
48.43
38.30
24.26
7.81
-8.50
-22.11
-31.60
-37.19
-40.28
-42.54
-44.88
-47.06
-48.05
-46.97
-43.85
-39.78
-36.24
-34.12
-33.04
-31.60
-28.42
-23.44
-18.49
-16.62
-20.44
-30.31
-43.67
-55.77
-61.94
-59.80
-50.54
-38.19
-27.59
-21.87
-21.22
-23.29
-24.95
-24.25
-21.36
-18.12
-16.47
-17.16
-19.15
-20.28
-18.62
-13.61
-6.39
0.80
5.87
7.88
7.49
6.47
6.76
9.42
14.14
19.46
23.56
25.22
24.49
22.56
21.09
21.29
23.23
25.83
27.54
27.22
24.94
21.98
20.24
21.19
25.09
30.85
36.62
40.80
42.82
43.40
43.91
45.50
48.38
51.69
53.97
54.04
51.62
47.47
42.87
38.94
36.09
33.96
31.88
29.31
26.31
23.42
21.24
20.00
19.23
17.99
15.29
10.69
4.55
-2.01
-7.68
-11.48
-13.32
-13.97
-14.64
-16.29
-19.08
-22.24
-24.56
-25.11
-23.93
-22.02
-20.85
-21.47
-23.84
-26.74
-28.52
-28.03
-25.33
-21.70
-18.93
-18.26
-19.72
-22.11
-23.72
-23.36
-21.05
-18.02
-16.01
-16.15
-18.25
-20.82
-21.93
-20.34
-16.40
-11.95
-9.36
-10.12
-13.90
-18.58
-21.46
-20.72
-16.66
-11.56
-8.51
-9.69
-15.11
-22.59
-28.88
-31.50
-30.01
-26.20
-23.08
-23.17
-27.20
-33.69
-40.05
-43.83
-44.01
-41.34
-37.34
-33.45
-30.32
-28.37
-28.64
-33.27
-44.71
-64.19
-90.02
-117.23
-138.96
-148.96
-143.80
-123.70
-91.68
-51.88
-8.27
35.73
76.80
111.39
136.01
148.22
147.57
135.91
117.04
95.51
75.48
59.86
49.47
43.17
38.24
31.38
20.23
4.65
-12.94
-28.11
-36.26
-34.42
-22.19
-2.00
21.70
43.18
56.66
57.78
45.32
22.60
-2.42
-19.29
-19.04
1.78
39.09
82.68
120.38
143.03
147.53
136.85
117.27
94.89
73.42
53.94
36.27
20.42
7.13
-2.57
-8.44
-11.46
-13.74
-17.28
-23.02
-30.36
-37.50
-42.50
-44.05
-42.18
-38.00
-33.04
-28.69
-25.74
-24.27
-23.85
-23.79
-23.41
-22.30
-20.34
-17.73
-14.86
-12.24
-10.31
-9.34
-9.26
-9.65
-9.79
-8.86
-6.34
-2.30
2.42
6.53
8.79
8.71
6.85
4.60
3.49
4.36
6.91
9.94
11.99
12.19
10.75
8.77
7.54
7.75
9.04
10.24
10.04
7.84
4.12
0.21
-2.45
-3.11
-2.14
-0.75
-0.29
-1.49
-4.02
-6.77
-8.53
-8.69
-7.59
-6.31
-5.99
-7.12
-9.25
-11.24
-11.98
-11.06
-9.09
-7.39
-7.21
-9.00
-12.09
-15.05
-16.49
-15.88
-13.91
-12.05
-11.67
-13.27
-16.08
-18.55
-19.25
-17.83
-15.25
-13.37
-13.84
-17.19
-22.48
-27.71
-30.92
-31.12
-28.76
-25.42
-22.90
-22.26
-23.36
-24.95
-25.40
-23.50
-19.01
-12.69
-5.90
0.04
4.43
7.37
9.61
12.10
15.51
19.86
24.53
28.38
30.16
28.91
24.34
16.99
8.15
-0.38
-6.82
-9.80
-8.84
-4.23
2.92
11.11
18.69
23.97
25.63
23.61
20.07
19.42
26.74
45.00
72.45
102.29
125.01
132.90
123.78
101.97
75.81
53.14
37.65
28.12
20.59
11.77
1.29
-8.52
-14.72
-16.11
-14.08
-11.71
-12.03
-16.25
-23.34
-30.58
-35.09
-35.31
-31.72
-26.57
-22.66
-21.93
-24.45
-28.39
-31.11
-30.56
-26.46
-20.42
-15.02
-12.43
-13.23
-16.20
-19.11
-20.01
-18.24
-14.69
-11.10
-8.96
-8.68
-9.46
-9.93
-9.05
-6.78
-4.05
-2.12
-1.75
-2.69
-3.81
-3.80
-1.99
1.17
4.32
5.94
5.25
2.69
-0.27
-1.98
-1.56
0.62
3.08
4.20
3.08
0.14
-3.18
-5.26
-5.21
-3.40
-1.19
-0.09
-0.92
-3.32
-5.99
-7.49
-7.00
-4.84
-2.27
-0.78
-1.24
-3.41
-6.06
-7.65
-7.25
-5.09
-2.40
-0.77
-1.21
-3.54
-6.52
-8.56
-8.67
-6.98
-4.72
-3.41
-3.99
-6.30
-9.14
-11.06
-11.14
-9.61
-7.67
-6.84
-8.04
-11.08
-14.67
-17.13
-17.20
-14.75
-10.79
-6.85
-4.17
-3.06
-2.84
-2.37
-0.78
1.92
4.88
6.95
7.35
6.23
4.64
3.96
5.21
8.54
13.06
17.32
19.95
20.28
18.55
15.74
12.98
10.96
9.70
8.66
7.20
5.17
3.11
1.91
2.34
4.50
7.61
10.49
12.11
12.26
11.70
11.64
13.10
16.23
20.13
23.39
24.81
24.12
22.14
20.29
19.71
20.60
22.01
22.30
20.09
15.06
8.20
1.33
-3.84
-6.60
-7.51
-7.95
-9.26
-11.91
-15.26
-18.04
-19.18
-18.54
-17.00
-15.92
-16.30
-18.10
-20.25
-21.26
-20.08
-16.71
-12.30
-8.46
-6.44
-6.43
-7.49
-8.13
-7.15
-4.39
-0.77
2.21
3.35
2.43
0.24
-1.84
-2.67
-1.99
-0.43
0.90
1.17
0.32
-0.95
-1.61
-0.97
0.86
3.01
4.33
4.09
2.42
0.28
-1.07
-0.79
1.05
3.46
5.08
4.95
3.07
0.38
-1.66
-1.99
-0.47
1.97
3.87
4.04
2.31
-0.42
-2.64
-3.12
-1.63
0.96
3.13
3.60
2.12
-0.47
-2.67
-3.21
-1.84
0.60
2.62
3.01
1.55
-0.85
-2.66
-2.66
-0.69
2.22
4.43
4.66
2.73
-0.31
-2.81
-3.47
-2.14
0.12
1.70
1.41
-0.81
-3.87
-6.10
-6.33
-4.49
-1.69
0.44
0.66
-1.13
-3.92
-6.14
-6.58
-5.13
-2.73
-0.86
-0.62
-2.06
-4.22
-5.64
-5.26
-3.05
-0.06
2.19
2.57
1.00
-1.50
-3.39
-3.43
-1.42
1.68
4.33
5.21
4.01
1.54
-0.71
-1.48
-0.40
1.80
3.80
4.46
3.46
1.45
-0.36
-0.96
-0.09
1.59
2.94
3.02
1.68
-0.39
-2.08
-2.48
-1.48
0.21
1.44
1.33
-0.19
-2.38
-4.01
-4.08
-2.43
0.16
2.35
2.97
1.68
-0.84
-3.18
-4.02
-2.88
-0.40
1.96
2.75
1.42
-1.39
-4.13
-5.33
-4.42
-2.11
0.07
0.69
-0.69
-3.24
-5.37
-5.67
-3.82
-0.77
1.78
2.39
0.74
-2.18
-4.60
-5.06
-3.25
-0.16
2.45
3.13
1.60
-1.14
-3.39
-3.79
-2.10
0.71
3.04
3.63
2.31
-0.02
-1.90
-2.18
-0.69
1.72
3.70
4.17
2.94
0.81
-0.91
-1.14
0.30
2.64
4.54
4.91
3.52
1.17
-0.80
-1.21
0.23
2.77
5.07
5.90
4.88
2.63
0.44
-0.48
0.31
2.26
4.14
4.76
3.70
1.51
-0.57
-1.37
-0.50
1.38
2.98
3.11
1.45
-1.23
-3.54
-4.26
-3.10
-0.90
0.90
1.03
-0.79
-3.73
-6.29
-7.14
-5.86
-3.19
-0.64
0.44
-0.45
-2.65
-4.74
-5.33
-3.94
-1.23
1.35
2.42
1.48
-0.84
-3.13
-4.08
-3.21
-1.15
0.77
1.30
0.05
-2.28
-4.33
-4.84
-3.43
-0.78
1.68
2.66
1.66
-0.64
-2.85
-3.60
-2.38
0.18
2.65
3.66
2.75
0.57
-1.44
-1.95
-0.55
1.99
4.14
4.57
2.94
0.12
-2.28
-2.88
-1.31
1.50
3.93
4.59
3.10
0.37
-2.01
-2.69
-1.31
1.28
3.55
4.22
2.97
0.64
-1.31
-1.66
-0.11
2.50
4.71
5.24
3.76
1.04
-1.46
-2.44
-1.45
0.82
3.01
3.86
2.94
0.86
-1.14
-1.91
-1.07
0.78
2.46
2.89
1.75
-0.35
-2.18
-2.65
-1.45
0.77
2.70
3.17
1.80
-0.75
-3.12
-4.08
-3.19
-1.12
0.78
1.25
-0.08
-2.55
-4.79
-5.54
-4.38
-1.96
0.35
1.27
0.37
-1.74
-3.71
-4.26
-2.97
-0.49
1.79
2.60
1.55
-0.61
-2.43
-2.62
-0.88
1.90
4.12
4.42
2.49
-0.72
-3.52
-4.46
-3.13
-0.40
2.08
2.89
1.60
-0.99
-3.36
-4.16
-2.98
-0.53
1.78
2.71
1.85
-0.16
-2.11
-2.85
-2.03
-0.21
1.48
1.98
0.98
-0.94
-2.62
-2.96
-1.61
0.84
3.14
4.07
3.13
0.90
-1.31
-2.18
-1.15
1.23
3.64
4.69
3.82
1.55
-0.79
-1.90
-1.22
0.70
2.55
3.09
1.85
-0.58
-2.90
-3.84
-2.92
-0.70
1.54
2.55
1.84
-0.04
-1.82
-2.28
-0.95
1.54
3.83
4.59
3.34
0.73
-1.75
-2.70
-1.60
0.84
3.13
3.84
2.49
-0.17
-2.61
-3.42
-2.16
0.43
2.81
3.58
2.28
-0.39
-3.02
-4.28
-3.65
-1.69
0.36
1.31
0.71
-0.92
-2.44
-2.76
-1.49
0.74
2.69
3.19
1.84
-0.70
-3.06
-3.95
-2.91
-0.62
1.53
2.22
1.00
-1.47
-3.81
-4.73
-3.78
-1.59
0.50
1.29
0.31
-1.80
-3.78
-4.40
-3.24
-0.91
1.32
2.20
1.28
-0.87
-2.94
-3.64
-2.46
-0.00
2.38
3.37
2.48
0.34
-1.66
-2.19
-0.82
1.78
4.20
5.12
4.11
1.82
-0.34
-1.12
-0.10
2.05
4.00
4.51
3.17
0.57
-2.00
-3.28
-2.74
-0.86
1.19
2.21
1.63
-0.13
-1.97
-2.71
-1.81
0.29
2.38
3.23
2.28
0.03
-2.25
-3.24
-2.43
-0.34
1.71
2.40
1.27
-1.10
-3.35
-4.21
-3.23
-1.06
0.94
1.49
0.15
-2.34
-4.53
-5.04
-3.38
-0.30
2.57
3.61
2.15
-1.19
-4.70
-6.61
-6.05
-3.56
-0.83
0.27
-1.24
-4.88
-9.01
-11.71
-11.90
-9.84
-7.03
-5.32
-5.91
-8.76
-12.64
-15.88
-17.23
-16.49
-14.47
-12.50
-11.67
-12.33
-14.03
-15.83
-16.85
-16.76
-15.72
-14.13
-11.98
-8.55
-2.55
6.85
18.75
29.91
35.63
32.03
18.55
-0.88
-19.09
-28.80
-26.12
-12.31
7.15
25.53
38.15
43.99
45.06
44.25
43.21
41.66
38.25
32.02
23.56
14.92
8.60
6.23
7.70
11.10
13.71
13.25
9.00
2.15
-4.82
-9.33
-9.95
-7.01
-2.29
1.96
4.23
4.36
3.42
2.80
3.32
4.68
5.67
4.99
2.18
-1.99
-5.87
-7.85
-7.29
-4.80
-1.87
0.04
0.30
-0.69
-1.96
-2.72
-2.89
-3.11
-4.21
-6.47
-9.35
-11.62
-11.95
-9.70
-5.23
0.12
4.63
6.87
6.29
3.37
-0.65
-4.33
-6.57
-6.99
-5.88
-3.91
-1.67
0.59
3.00
5.71
8.57
10.98
12.06
11.16
8.31
4.45
0.99
-0.88
-0.83
0.36
1.26
0.62
-1.88
-5.48
-8.70
-10.33
-10.03
-8.53
-7.22
-7.32
-9.27
-12.48
-15.74
-17.83
-18.23
-17.35
-16.28
-16.16
-17.51
-19.99
-22.54
-24.09
-24.18
-23.28
-22.45
-22.63
-24.03
-25.93
-27.18
-26.97
-25.48
-23.85
-23.50
-25.09
-27.96
-30.35
-30.34
-27.16
-21.73
-16.30
-13.33
-14.00
-17.38
-20.90
-21.37
-16.48
-5.74
9.75
27.87
46.06
61.53
71.38
73.42
67.29
55.48
42.95
35.44
36.81
47.19
62.99
78.75
89.90
94.52
93.39
88.46
81.19
71.85
60.17
46.49
32.36
19.95
10.90
5.35
2.01
-0.97
-4.98
-10.24
-15.84
-20.50
-23.38
-24.56
-24.92
-25.49
-26.97
-29.40
-32.30
-35.08
-37.27
-38.69
-39.14
-38.34
-35.98
-31.94
-26.60
-20.85
-15.77
-12.21
-10.34
-9.56
-8.90
-7.49
-5.02
-1.95
0.73
1.97
1.17
-1.46
-4.92
-7.74
-8.65
-7.15
-3.81
-0.01
2.73
3.46
2.27
0.12
-1.64
-2.13
-1.29
0.10
0.97
0.57
-1.19
-3.73
-6.20
-7.98
-8.96
-9.43
-9.88
-10.63
-11.67
-12.79
-13.73
-14.34
-14.66
-14.75
-14.59
-14.07
-13.08
-11.78
-10.63
-10.32
-11.45
-14.19
-18.08
-22.06
-24.81
-25.07
-22.16
-16.56
-10.41
-7.57
-12.31
-27.27
-51.31
-78.78
-101.25
-111.18
-105.59
-87.84
-66.02
-48.69
-40.51
-40.26
-42.28
-40.37
-31.63
-17.76
-3.54
6.23
9.02
5.32
-2.29
-10.52
-15.85
-14.56
-2.85
22.15
60.31
107.09
154.01
191.35
212.04
214.32
201.90
181.46
159.16
138.21
118.69
99.17
78.83
58.37
39.53
23.73
10.97
-0.14
-11.36
-23.49
-35.80
-46.30
-52.93
-54.40
-51.06
-44.73
-37.91
-32.99
-31.32
-32.95
-36.62
-40.16
-41.16
-37.74
-29.25
-16.70
-2.56
10.05
18.52
21.77
20.60
17.15
13.66
11.43
10.35
9.28
7.06
3.39
-0.87
-4.11
-4.95
-2.93
1.13
5.60
8.74
9.62
8.40
6.21
4.47
4.18
5.42
7.39
8.87
8.89
7.16
4.19
0.96
-1.66
-3.26
-4.09
-4.77
-5.97
-8.03
-10.89
-14.21
-17.57
-20.54
-22.79
-23.97
-23.86
-22.51
-20.36
-18.35
-17.53
-18.58
-21.31
-24.53
-26.50
-25.79
-22.10
-16.59
-11.49
-9.14
-10.75
-15.74
-21.88
-25.98
-25.09
-17.56
-3.56
14.58
32.37
43.79
42.56
24.61
-9.32
-52.36
-92.84
-118.24
-120.41
-99.17
-62.37
-22.10
10.77
30.76
38.66
39.04
36.58
33.46
29.29
22.95
14.57
6.24
0.94
0.59
4.83
11.12
15.96
16.75
13.01
6.36
-0.37
-4.52
-4.86
-1.88
2.61
6.44
8.04
7.03
4.06
0.46
-2.44
-3.77
-3.23
-1.06
2.25
6.21
10.56
15.22
20.23
25.54
30.80
35.37
38.59
39.98
39.55
37.64
34.72
31.17
27.14
22.78
18.34
14.29
11.10
8.98
7.64
6.39
4.47
1.46
-2.52
-6.81
-10.61
-13.39
-15.06
-16.02
-16.85
-17.98
-19.50
-21.13
-22.38
-22.84
-22.42
-21.37
-20.21
-19.48
-19.62
-20.83
-23.06
-26.03
-29.24
-31.99
-33.54
-33.42
-31.73
-29.27
-27.37
-27.36
-29.99
-34.83
-40.39
-44.65
-45.84
-43.11
-36.89
-28.56
-20.04
-13.43
-10.44
-11.75
-16.19
-20.44
-19.73
-9.64
11.51
41.07
72.49
97.73
110.67
109.72
97.99
81.22
64.68
50.99
39.86
29.65
19.32
9.46
1.69
-2.71
-4.09
-4.48
-6.63
-12.52
-22.15
-33.37
-43.06
-48.45
-48.40
-43.95
-37.63
-32.27
-29.68
-29.83
-30.95
-30.38
-25.79
-16.14
-2.01
14.57
30.64
42.91
48.29
44.57
31.15
9.75
-15.42
-38.46
-53.33
-55.87
-45.24
-24.17
2.11
27.76
48.15
60.83
65.59
63.61
56.67
46.49
34.64
22.60
11.81
3.63
-1.05
-2.13
-0.42
2.58
5.22
6.33
5.70
4.13
3.03
3.65
6.44
10.75
15.11
17.89
18.11
15.78
11.89
7.79
4.51
2.32
0.77
-0.91
-3.30
-6.48
-10.00
-13.20
-15.56
-16.94
-17.56
-17.84
-18.09
-18.38
-18.47
-17.99
-16.74
-14.81
-12.64
-10.84
-9.83
-9.61
-9.75
-9.61
-8.70
-7.00
-4.96
-3.27
-2.45
-2.57
-3.23
-3.80
-3.81
-3.19
-2.31
-1.66
-1.60
-2.07
-2.64
-2.74
-1.97
-0.40
1.53
3.18
4.08
4.21
3.94
3.85
4.34
5.36
6.43
6.94
6.53
5.35
4.03
3.31
3.62
4.82
6.25
7.12
6.95
5.83
4.34
3.23
2.98
3.57
4.50
5.14
5.04
4.16
2.85
1.63
0.94
0.91
1.34
1.86
2.15
2.10
1.84
1.67
1.82
2.31
2.88
3.17
2.94
2.27
1.57
1.35
1.90
3.06
4.26
4.82
4.31
2.81
0.88
-0.71
-1.41
-1.11
-0.25
0.55
0.76
0.26
-0.66
-1.50
-1.85
-1.64
-1.22
-1.10
-1.69
-3.00
-4.61
-5.88
-6.29
-5.73
-4.57
-3.46
-2.94
-3.14
-3.71
-4.08
-3.79
-2.77
-1.44
-0.42
-0.13
-0.62
-1.42
-1.92
-1.63
-0.46
1.22
2.78
3.70
3.74
3.10
2.27
1.79
1.93
2.60
3.38
3.80
3.66
3.14
2.67
2.70
3.35
4.32
5.02
4.99
4.10
2.73
1.49
0.91
1.13
1.83
2.44
2.53
1.99
1.12
0.41
0.21
0.55
1.08
1.29
0.83
-0.27
-1.61
-2.61
-2.85
-2.30
-1.35
-0.55
-0.37
-0.92
-1.89
-2.80
-3.20
-2.99
-2.41
-1.91
-1.90
-2.48
-3.37
-4.12
-4.34
-3.92
-3.11
-2.39
-2.13
-2.44
-3.05
-3.48
-3.31
-2.46
-1.18
0.02
0.69
0.69
0.22
-0.23
-0.17
0.56
1.77
2.93
3.58
3.52
2.97
2.40
2.26
2.65
3.30
3.66
3.32
2.22
0.76
-0.40
-0.70
-0.04
1.23
2.39
2.87
2.42
1.35
0.22
-0.42
-0.41
0.01
0.33
0.16
-0.56
-1.50
-2.17
-2.21
-1.64
-0.80
-0.19
-0.18
-0.80
-1.73
-2.52
-2.81
-2.54
-1.97
-1.51
-1.48
-1.94
-2.64
-3.18
-3.24
-2.79
-2.06
-1.46
-1.30
-1.63
-2.17
-2.48
-2.14
-1.04
0.61
2.29
3.46
3.78
3.26
2.32
1.53
1.37
1.93
2.92
3.79
4.06
3.62
2.74
1.93
1.61
1.81
2.21
2.31
1.81
0.75
-0.40
-1.14
-1.17
-0.58
0.16
0.58
0.40
-0.29
-1.10
-1.61
-1.59
-1.14
-0.62
-0.39
-0.61
-1.16
-1.68
-1.83
-1.50
-0.86
-0.26
-0.06
-0.38
-1.07
-1.78
-2.12
-1.95
-1.36
-0.68
-0.26
-0.26
-0.59
-1.00
-1.14
-0.85
-0.19
0.56
1.08
1.15
0.79
0.23
-0.26
-0.46
-0.35
-0.06
0.21
0.30
0.20
0.04
0.05
0.36
0.96
1.62
2.00
1.83
1.08
0.01
-0.92
-1.32
-1.08
-0.44
0.13
0.25
-0.15
-0.76
-1.11
-0.90
-0.22
0.50
0.75
0.27
-0.75
-1.74
-2.13
-1.64
-0.51
0.67
1.29
1.06
0.19
-0.77
-1.27
-1.07
-0.34
0.40
0.64
0.20
-0.73
-1.65
-2.07
-1.82
-1.09
-0.34
-0.01
-0.26
-0.88
-1.41
-1.45
-0.83
0.20
1.16
1.61
1.36
0.62
-0.17
-0.56
-0.39
0.20
0.82
1.10
0.93
0.50
0.20
0.40
1.22
2.45
3.70
4.53
4.70
4.25
3.45
2.66
2.11
1.83
1.65
1.33
0.73
-0.04
-0.71
-0.99
-0.76
-0.18
0.39
0.61
0.35
-0.20
-0.66
-0.70
-0.22
0.54
1.10
1.01
0.12
-1.38
-2.99
-4.18
-4.68
-4.53
-4.13
-3.92
-4.17
-4.82
-5.53
-5.84
-5.45
-4.40
-3.08
-1.93
-1.31
-1.20
-1.31
-1.28
-0.88
-0.22
0.32
0.34
-0.32
-1.39
-2.31
-2.48
-1.61
0.13
2.16
3.76
4.43
4.08
3.05
1.88
1.05
0.75
0.80
0.86
0.66
0.22
-0.20
-0.23
0.30
1.29
2.32
2.92
2.82
2.12
1.22
0.61
0.58
1.02
1.53
1.63
1.08
-0.03
-1.26
-2.11
-2.30
-1.88
-1.24
-0.78
-0.66
-0.71
-0.45
0.49
2.19
4.28
6.13
7.14
7.05
6.11
4.95
4.31
4.73
6.36
8.90
11.81
14.59
16.93
18.86
20.65
22.59
24.81
27.16
29.24
30.62
31.08
30.66
29.70
28.55
27.39
26.09
24.26
21.52
17.82
13.51
9.26
5.68
2.95
0.72
-1.70
-4.87
-8.81
-12.91
-16.31
-18.35
-19.08
-19.19
-19.58
-20.72
-22.30
-23.36
-22.90
-20.52
-16.75
-12.77
-9.78
-8.39
-8.38
-8.96
-9.37
-9.38
-9.34
-9.88
-11.44
-13.85
-16.40
-18.22
-18.74
-18.04
-16.74
-15.66
-15.30
-15.53
-15.65
-14.67
-11.97
-7.61
-2.48
2.00
4.49
4.29
1.71
-2.02
-5.32
-7.03
-7.00
-6.14
-6.02
-7.99
-12.35
-18.14
-23.49
-26.37
-25.51
-20.87
-13.45
-4.90
2.93
8.26
9.54
5.82
-2.83
-15.02
-28.17
-39.19
-45.60
-46.47
-42.83
-37.20
-32.45
-30.41
-31.05
-32.58
-32.52
-29.08
-22.23
-13.77
-6.46
-2.44
-2.13
-3.92
-4.95
-2.67
3.75
13.12
22.86
30.22
33.66
33.21
30.19
26.46
23.46
21.87
21.52
21.82
22.20
22.40
22.46
22.51
22.48
22.01
20.55
17.65
13.36
8.27
3.38
-0.34
-2.39
-2.92
-2.74
-2.93
-4.24
-6.78
-9.86
-12.38
-13.30
-12.14
-9.21
-5.50
-2.26
-0.45
-0.39
-1.66
-3.35
-4.52
-4.65
-3.78
-2.42
-1.15
-0.29
0.24
0.83
1.85
3.38
5.08
6.44
7.02
6.82
6.26
6.01
6.67
8.42
10.94
13.57
15.66
16.86
17.28
17.32
17.38
17.54
17.46
16.61
14.63
11.64
8.24
5.32
3.60
3.33
4.29
5.93
7.66
9.04
9.91
10.23
10.11
9.69
9.16
8.74
8.65
9.04
9.95
11.30
12.87
14.39
15.57
16.20
16.14
15.42
14.19
12.68
11.10
9.54
8.02
6.44
4.72
2.78
0.57
-1.90
-4.64
-7.67
-11.03
-14.75
-18.76
-22.79
-26.40
-28.98
-29.98
-29.12
-26.64
-23.28
-20.14
-18.17
-17.81
-18.68
-19.76
-19.77
-17.81
-13.68
-7.93
-1.52
4.71
10.30
15.21
19.52
23.15
25.76
27.02
26.84
25.61
24.02
22.69
21.82
21.07
19.79
17.48
14.19
10.58
7.61
6.09
6.27
7.69
9.46
10.63
10.71
9.84
8.74
8.29
9.15
11.43
14.73
18.39
21.97
25.36
28.74
32.20
35.31
37.00
35.99
31.49
23.97
15.21
7.68
3.35
2.60
3.94
4.77
2.63
-3.55
-12.97
-23.49
-32.71
-39.02
-42.00
-42.22
-40.56
-37.73
-34.01
-29.44
-24.12
-18.51
-13.36
-9.53
-7.59
-7.41
-8.14
-8.42
-6.99
-3.29
2.21
8.15
12.97
15.58
15.95
14.97
13.94
13.77
14.62
15.84
16.53
16.03
14.36
12.15
10.23
9.18
8.93
8.88
8.18
6.25
3.04
-1.00
-5.18
-8.92
-11.90
-14.02
-15.30
-15.70
-15.14
-13.61
-11.27
-8.54
-6.07
-4.57
-4.56
-6.18
-9.05
-12.42
-15.42
-17.43
-18.31
-18.38
-18.12
-17.89
-17.65
-17.10
-15.97
-14.36
-12.78
-11.89
-12.05
-13.01
-13.99
-14.04
-12.64
-10.01
-7.06
-4.94
-4.45
-5.59
-7.58
-9.32
-9.77
-8.53
-5.76
-1.94
2.29
6.18
8.79
9.13
6.57
1.47
-4.78
-10.13
-12.88
-12.46
-9.61
-5.80
-2.33
0.27
2.16
3.66
4.73
4.91
3.79
1.57
-0.95
-2.68
-3.00
-1.94
-0.22
1.37
2.35
2.59
2.35
1.85
1.19
0.43
-0.38
-1.15
-1.71
-1.93
-1.78
-1.37
-0.96
-0.81
-1.05
-1.60
-2.15
-2.27
-1.68
-0.40
1.17
2.42
2.85
2.33
1.16
-0.09
-0.86
-0.89
-0.40
0.17
0.35
0.00
-0.63
-1.08
-0.89
0.11
1.64
3.13
4.03
4.03
3.27
2.24
1.51
1.47
2.11
2.99
3.58
3.51
2.83
1.96
1.44
1.61
2.34
3.16
3.50
3.04
1.94
0.73
-0.01
0.05
0.76
1.62
2.05
1.69
0.64
-0.70
-1.78
-2.23
-2.08
-1.70
-1.57
-1.97
-2.77
-3.51
-3.69
-3.14
-2.15
-1.37
-1.38
-2.29
-3.66
-4.68
-4.74
-3.73
-2.17
-0.86
-0.43
-1.02
-2.23
-3.42
-4.06
-3.99
-3.44
-2.89
-2.72
-3.06
-3.63
-3.94
-3.59
-2.49
-1.00
0.24
0.71
0.29
-0.63
-1.34
-1.27
-0.33
1.06
2.18
2.51
1.97
0.98
0.18
-0.00
0.42
1.04
1.28
0.83
-0.21
-1.35
-2.02
-1.90
-1.11
-0.09
0.58
0.55
-0.15
-1.09
-1.79
-1.86
-1.29
-0.41
0.25
0.22
-0.68
-2.24
-3.92
-5.16
-5.62
-5.38
-4.92
-4.82
-5.45
-6.67
-7.90
-8.47
-7.95
-6.44
-4.50
-2.81
-1.79
-1.45
-1.40
-1.20
-0.70
-0.05
0.38
0.27
-0.34
-1.10
-1.47
-1.06
0.13
1.73
3.18
4.09
4.42
4.49
4.72
5.36
6.28
7.06
7.25
6.65
5.45
4.19
3.48
3.65
4.61
5.86
6.74
6.80
6.03
4.83
3.82
3.48
3.87
4.58
5.00
4.68
3.59
2.20
1.16
0.93
1.50
2.39
2.96
2.74
1.68
0.18
-1.18
-1.92
-1.90
-1.39
-0.91
-0.94
-1.65
-2.81
-3.86
-4.25
-3.69
-2.35
-0.76
0.46
0.93
0.69
0.12
-0.31
-0.41
-0.33
-0.51
-1.33
-2.85
-4.65
-6.01
-6.22
-4.99
-2.59
0.27
2.76
4.31
4.85
4.73
4.40
4.17
3.95
3.39
2.17
0.34
-1.64
-3.06
-3.33
-2.38
-0.68
0.94
1.80
1.65
0.84
0.00
-0.23
0.39
1.64
3.00
3.89
3.98
3.22
1.88
0.35
-1.10
-2.38
-3.64
-5.11
-6.91
-8.87
-10.51
-11.22
-10.55
-8.48
-5.45
-2.23
0.47
2.27
3.28
3.93
4.64
5.53
6.29
6.37
5.38
3.43
1.15
-0.56
-1.04
-0.22
1.31
2.65
3.09
2.55
1.55
0.87
0.96
1.68
2.36
2.29
1.18
-0.54
-1.98
-2.32
-1.32
0.50
2.08
2.47
1.36
-0.76
-2.83
-3.86
-3.46
-2.09
-0.72
-0.29
-1.18
-3.00
-4.81
-5.74
-5.38
-4.05
-2.55
-1.66
-1.73
-2.41
-3.00
-2.74
-1.41
0.65
2.63
3.74
3.61
2.49
1.13
0.31
0.48
1.49
2.68
3.28
2.84
1.49
-0.09
-1.10
-1.07
-0.15
0.95
1.37
0.63
-1.07
-2.97
-4.15
-4.13
-3.07
-1.74
-0.98
-1.26
-2.39
-3.65
-4.21
-3.59
-1.89
0.23
1.95
2.66
2.30
1.32
0.44
0.22
0.72
1.57
2.10
1.89
1.02
0.05
-0.31
0.24
1.32
2.03
1.51
-0.50
-3.33
-5.75
-6.64
-5.73
-3.74
-2.00
-1.58
-2.62
-4.24
-5.03
-3.92
-0.86
3.20
6.74
8.44
7.73
5.06
1.51
-1.59
-3.21
-3.02
-1.38
0.80
2.60
3.50
3.62
3.54
3.86
4.72
5.65
5.90
5.02
3.25
1.54
0.98
2.12
4.53
7.02
8.26
7.53
4.99
1.61
-1.48
-3.56
-4.53
-4.84
-5.08
-5.62
-6.44
-7.26
-7.83
-8.09
-8.22
-8.55
-9.30
-10.40
-11.53
-12.23
-12.18
-11.45
-10.46
-9.90
-10.31
-11.78
-13.87
-15.75
-16.54
-15.70
-13.31
-9.91
-6.33
-3.43
-1.86
-1.92
-3.43
-5.64
-7.49
-8.00
-6.79
-4.30
-1.54
0.45
1.24
1.13
0.85
0.96
1.50
2.15
2.62
3.14
4.29
6.53
9.64
12.57
14.00
13.20
10.55
7.31
5.00
4.56
5.87
7.91
9.43
9.54
8.18
6.07
4.27
3.64
4.35
5.77
6.82
6.53
4.70
2.04
-0.10
-0.54
1.05
3.86
6.43
7.42
6.47
4.43
2.83
2.97
5.07
8.17
10.56
10.81
8.54
4.70
1.01
-0.90
-0.39
1.86
4.26
5.17
3.85
0.81
-2.43
-4.24
-3.69
-1.10
2.20
4.64
5.26
4.21
2.58
1.67
2.21
3.90
5.64
6.19
4.97
2.36
-0.44
-2.15
-2.10
-0.62
1.21
2.14
1.53
-0.32
-2.35
-3.31
-2.55
-0.34
2.23
3.86
3.82
2.31
0.36
-0.83
-0.55
0.97
2.74
3.66
3.15
1.54
-0.24
-1.18
-0.85
0.39
1.59
1.81
0.63
-1.55
-3.80
-5.12
-5.00
-3.69
-2.05
-1.04
-1.15
-2.09
-2.97
-2.81
-1.21
1.31
3.45
3.87
1.94
-1.73
-5.53
-7.64
-7.00
-3.95
-0.06
2.78
3.40
2.02
0.05
-0.84
0.19
2.57
4.71
5.01
2.91
-0.64
-3.74
-4.69
-3.08
-0.07
2.26
2.20
-0.53
-4.56
-7.61
-7.85
-4.92
-0.22
3.81
5.07
2.94
-1.42
-5.60
-7.30
-5.51
-1.00
4.12
7.59
8.19
6.35
3.77
2.42
3.34
6.10
9.09
10.58
9.70
7.00
4.05
2.45
2.93
5.00
7.41
9.01
9.45
9.20
8.86
8.40
6.87
2.98
-3.95
-13.11
-22.25
-28.63
-30.22
-26.69
-19.46
-10.97
-3.56
1.45
3.99
4.86
5.02
5.07
5.06
4.63
3.49
1.66
-0.44
-2.14
-2.86
-2.52
-1.57
-0.78
-0.85
-2.04
-3.98
-5.94
-7.20
-7.51
-7.23
-7.18
-8.18
-10.62
-14.18
-17.94
-20.69
-21.40
-19.61
-15.48
-9.78
-3.62
1.77
5.29
6.26
4.56
0.82
-3.68
-7.34
-8.88
-7.82
-4.64
-0.50
3.38
6.32
8.26
9.59
10.58
11.19
11.12
10.29
9.07
8.28
8.50
9.56
10.45
9.83
6.90
2.13
-2.92
-6.34
-6.90
-4.64
-0.76
3.15
5.84
6.92
6.70
5.76
4.58
3.41
2.32
1.33
0.43
-0.47
-1.55
-2.99
-4.81
-6.74
-8.32
-8.97
-8.28
-6.19
-3.09
0.31
3.31
5.49
7.01
8.44
10.46
13.40
17.03
20.54
23.05
24.02
23.51
22.02
20.09
17.97
15.56
12.62
8.93
4.41
-0.97
-7.19
-13.98
-20.68
-26.32
-29.98
-31.41
-31.27
-30.97
-31.93
-34.77
-38.94
-42.99
-45.29
-44.94
-42.14
-37.96
-33.71
-30.30
-27.85
-25.86
-23.66
-20.94
-18.12
-16.16
-16.19
-18.80
-23.57
-29.02
-33.01
-33.63
-29.98
-22.39
-12.32
-1.77
7.17
12.76
13.82
10.08
2.49
-6.72
-14.42
-17.46
-13.81
-3.32
12.21
29.77
46.32
59.77
69.25
74.78
76.60
74.80
69.50
61.34
51.65
42.29
34.89
30.18
27.71
26.10
23.88
20.16
14.94
8.90
2.99
-2.08
-5.89
-8.25
-8.96
-7.77
-4.40
1.18
8.56
16.94
25.23
32.39
37.66
40.68
41.40
39.94
36.38
30.80
23.50
15.18
7.06
0.49
-3.60
-5.10
-4.82
-3.98
-3.56
-3.91
-4.79
-5.74
-6.45
-6.90
-7.14
-6.99
-5.92
-3.20
1.66
8.64
17.08
25.84
33.48
38.62
40.08
37.13
29.88
19.51
8.16
-1.72
-8.37
-11.54
-12.63
-13.94
-17.45
-23.70
-31.58
-39.00
-44.08
-46.07
-45.47
-43.36
-40.45
-36.67
-31.46
-24.52
-16.49
-8.89
-3.46
-1.17
-1.64
-3.38
-4.63
-4.42
-3.10
-2.14
-3.12
-6.77
-12.29
-17.82
-21.41
-22.08
-20.22
-17.27
-14.69
-13.18
-12.43
-11.47
-9.43
-6.07
-1.84
2.38
5.88
8.48
10.53
12.75
15.77
19.80
24.35
28.35
30.47
29.71
25.88
19.83
13.10
7.15
2.78
-0.25
-2.85
-6.01
-10.07
-14.55
-18.47
-20.98
-21.97
-22.11
-22.46
-23.67
-25.39
-26.22
-24.47
-19.07
-10.41
-0.32
8.67
14.58
16.81
16.33
14.90
13.94
13.68
13.19
11.15
6.90
1.09
-4.68
-8.82
-10.71
-10.96
-10.76
-10.93
-11.38
-11.25
-9.72
-6.73
-3.05
0.22
2.40
3.63
4.62
6.14
8.54
11.64
15.08
18.57
21.97
25.05
27.27
27.92
26.35
22.37
16.31
8.91
1.02
-6.64
-13.52
-19.15
-23.16
-25.36
-25.83
-25.05
-23.74
-22.59
-21.90
-21.39
-20.30
-17.85
-13.67
-8.13
-2.19
3.00
6.75
9.11
10.87
12.98
15.98
19.47
22.18
22.50
19.29
12.66
4.05
-4.31
-10.44
-13.58
-14.30
-13.97
-13.68
-13.48
-12.56
-10.04
-5.93
-1.44
1.67
2.26
0.63
-1.51
-2.02
0.38
5.52
11.91
17.74
21.78
23.74
23.99
22.96
20.74
17.08
11.80
5.25
-1.65
-7.66
-11.68
-13.26
-12.67
-10.80
-8.76
-7.58
-7.93
-10.05
-13.62
-17.86
-21.67
-23.91
-23.67
-20.64
-15.16
-8.15
-0.81
5.76
10.77
14.02
15.79
16.72
17.51
18.63
20.08
21.33
21.47
19.49
14.73
7.23
-2.12
-11.64
-19.29
-23.32
-22.94
-18.77
-12.75
-7.36
-4.53
-4.82
-7.11
-9.31
-9.41
-6.48
-1.01
5.51
11.53
16.13
19.26
21.37
22.77
23.24
22.16
19.07
14.19
8.54
3.48
-0.02
-2.02
-3.58
-6.09
-10.32
-15.72
-20.62
-23.10
-22.16
-18.33
-13.41
-9.46
-7.65
-7.72
-8.26
-7.65
-5.02
-0.67
4.26
8.53
11.50
13.37
14.89
16.70
18.76
20.17
19.66
16.21
9.87
1.82
-6.16
-12.62
-17.06
-19.88
-21.69
-22.45
-21.32
-17.29
-10.26
-1.59
6.19
10.67
10.90
7.94
4.33
2.62
4.10
8.28
13.51
17.95
20.51
21.05
20.04
18.00
15.16
11.53
7.05
1.93
-3.31
-8.00
-11.49
-13.42
-13.83
-13.13
-12.00
-11.19
-11.37
-12.87
-15.57
-18.87
-21.85
-23.53
-23.12
-20.27
-15.21
-8.59
-1.38
5.48
11.34
15.92
19.34
21.74
23.05
22.87
20.61
15.94
9.23
1.62
-5.48
-11.12
-15.24
-18.50
-21.54
-24.13
-25.03
-22.76
-16.75
-8.18
0.34
5.98
7.21
4.72
1.05
-0.80
1.16
7.03
15.19
23.31
29.45
32.58
32.61
29.90
24.94
18.32
10.78
3.38
-2.61
-6.20
-7.10
-6.00
-4.38
-3.98
-5.92
-10.32
-16.14
-21.72
-25.50
-26.60
-25.07
-21.67
-17.33
-12.73
-8.08
-3.22
1.98
7.42
12.66
17.18
20.59
22.66
23.37
22.69
20.56
17.02
12.21
6.35
-0.40
-7.93
-15.93
-23.54
-29.27
-31.39
-28.83
-22.03
-13.10
-5.00
-0.15
0.88
-0.39
-1.27
0.58
5.88
13.51
21.26
27.13
30.14
30.52
29.10
26.60
23.27
19.00
13.76
7.99
2.53
-1.80
-4.70
-6.70
-8.96
-12.54
-17.77
-23.88
-29.21
-32.02
-31.32
-27.27
-21.07
-14.27
-8.16
-3.19
0.77
4.30
7.81
11.31
14.42
16.63
17.54
17.15
15.78
13.90
11.90
9.80
7.20
3.37
-2.29
-9.62
-17.41
-23.55
-25.88
-23.35
-16.78
-8.62
-1.89
1.34
0.98
-1.22
-2.62
-1.23
3.38
9.99
16.75
22.25
25.97
28.13
28.96
28.20
25.22
19.68
12.02
3.59
-3.85
-9.07
-11.91
-13.36
-14.90
-17.64
-21.61
-25.73
-28.41
-28.38
-25.33
-19.96
-13.56
-7.43
-2.35
1.49
4.33
6.51
8.26
9.74
11.11
12.59
14.37
16.39
18.23
19.18
18.47
15.65
10.73
4.19
-3.22
-10.62
-17.11
-21.72
-23.56
-22.22
-18.07
-12.46
-7.26
-4.00
-3.18
-3.97
-4.70
-3.87
-0.94
3.48
8.18
12.19
15.33
18.16
21.25
24.51
26.88
26.80
23.11
15.78
6.19
-3.34
-10.56
-14.13
-14.15
-11.99
-9.55
-8.41
-9.32
-11.99
-15.51
-18.84
-21.20
-22.22
-21.74
-19.70
-16.00
-10.65
-3.92
3.52
10.70
16.63
20.58
22.24
21.70
19.21
15.12
9.88
4.01
-1.85
-7.10
-11.41
-14.73
-17.15
-18.62
-18.84
-17.46
-14.46
-10.43
-6.38
-3.26
-1.40
-0.33
0.93
3.28
7.02
11.80
16.95
21.88
26.18
29.47
31.14
30.40
26.63
19.90
11.30
2.68
-3.99
-7.43
-7.72
-6.21
-4.94
-5.64
-8.93
-14.10
-19.52
-23.51
-25.08
-24.23
-21.70
-18.33
-14.59
-10.42
-5.56
0.07
6.03
11.55
15.80
18.29
19.01
18.30
16.64
14.38
11.60
8.19
3.86
-1.62
-8.23
-15.45
-22.24
-27.12
-28.73
-26.49
-20.92
-13.68
-6.87
-2.12
0.16
0.78
1.31
3.14
6.81
12.03
17.98
23.92
29.38
33.89
36.66
36.60
32.87
25.59
16.27
7.40
1.34
-0.82
0.02
1.43
0.59
-4.17
-12.61
-22.65
-31.45
-36.74
-37.66
-34.94
-30.13
-24.75
-19.51
-14.29
-8.49
-1.73
5.64
12.59
17.85
20.59
20.78
19.25
17.27
16.00
16.02
17.03
17.82
16.54
11.40
1.60
-11.91
-26.38
-38.09
-43.81
-42.22
-34.44
-23.46
-12.60
-4.07
1.85
6.43
11.31
17.42
24.40
30.95
35.58
37.36
36.22
32.71
27.71
22.03
16.26
10.74
5.69
1.15
-2.98
-6.96
-11.02
-15.25
-19.42
-23.08
-25.73
-27.06
-26.97
-25.57
-22.95
-19.13
-14.15
-8.28
-2.16
3.31
7.27
9.44
10.30
10.92
12.34
14.98
18.45
21.71
23.63
23.39
20.45
14.35
4.75
-8.16
-22.90
-36.48
-45.07
-45.65
-37.72
-24.00
-9.45
0.97
4.69
2.56
-1.96
-4.83
-3.45
2.33
10.81
19.65
27.15
32.55
35.74
36.50
34.33
28.76
19.95
9.18
-1.29
-9.15
-12.99
-12.97
-10.72
-8.52
-8.12
-10.10
-13.71
-17.55
-20.25
-21.10
-19.98
-17.23
-13.24
-8.48
-3.47
1.17
4.88
7.44
9.12
10.55
12.31
14.44
16.33
17.07
15.96
13.02
8.82
4.06
-0.97
-6.55
-12.94
-19.71
-25.30
-27.56
-24.98
-17.88
-8.72
-1.06
2.30
0.83
-3.31
-6.51
-5.72
-0.06
8.83
17.82
24.00
26.14
24.96
22.33
19.99
18.58
17.44
15.22
10.81
4.12
-3.87
-11.54
-17.44
-20.89
-22.19
-22.34
-22.41
-22.95
-23.71
-23.77
-22.13
-18.23
-12.32
-5.48
0.86
5.53
8.14
9.30
10.23
12.19
15.68
20.07
23.85
25.38
23.69
19.00
12.51
5.67
-0.62
-6.38
-12.22
-18.33
-23.80
-26.74
-25.28
-19.01
-9.67
-0.73
4.38
4.00
-0.70
-6.42
-9.48
-7.74
-1.48
7.02
14.99
20.63
23.72
25.18
25.99
26.26
25.18
21.51
14.57
4.96
-5.49
-14.37
-19.70
-20.87
-18.85
-15.76
-13.89
-14.71
-18.24
-23.11
-27.25
-28.79
-26.89
-22.07
-15.87
-10.14
-6.25
-4.52
-4.24
-4.04
-2.61
0.69
5.52
10.58
14.17
14.79
11.77
5.55
-2.46
-10.56
-17.49
-22.86
-26.87
-29.55
-30.02
-26.71
-18.56
-6.60
5.69
13.92
15.68
12.68
10.47
15.16
29.19
48.91
66.32
73.85
69.28
57.29
46.33
42.99
47.68
54.54
55.61
46.22
27.92
7.32
-8.28
-15.22
-15.00
-12.60
-12.98
-18.17
-26.66
-34.90
-39.72
-40.03
-36.91
-32.66
-29.35
-27.67
-26.79
-25.02
-20.85
-13.80
-4.75
4.45
11.86
16.25
17.47
16.26
13.72
10.76
7.87
5.09
2.29
-0.77
-4.43
-8.98
-14.45
-20.21
-24.93
-27.02
-25.41
-20.32
-13.45
-7.24
-3.67
-3.21
-4.56
-5.43
-3.87
0.80
7.69
14.99
21.00
24.76
26.26
25.90
24.01
20.70
16.12
10.81
5.79
2.18
0.42
-0.24
-1.47
-4.96
-11.26
-19.22
-26.38
-30.23
-29.42
-24.44
-17.22
-10.02
-4.33
-0.42
2.33
4.65
6.79
8.52
9.45
9.68
9.80
10.61
12.50
15.08
17.25
17.78
15.93
11.76
6.00
-0.48
-7.06
-13.37
-19.00
-23.14
-24.73
-22.97
-18.08
-11.48
-5.37
-1.68
-1.12
-2.85
-5.09
-6.00
-4.63
-1.04
4.04
9.82
15.85
21.94
27.66
32.06
33.70
31.28
