1541859498.00
64.000000
-0.00
-0.00
-0.00
-0.00
-0.00
-0.00
-0.00
-0.00
-0.00
-0.00
0.00
0.01
0.01
-0.00
-0.03
-0.05
-0.05
0.00
0.13
0.36
0.66
1.01
1.37
1.72
2.06
2.40
2.79
3.24
3.80
4.42
5.07
5.69
6.25
6.77
7.30
7.93
8.70
9.72
10.91
12.16
13.34
14.42
15.43
16.54
17.96
19.84
22.40
25.44
28.70
31.88
34.82
37.59
40.52
44.06
48.52
54.31
61.08
68.33
75.46
82.13
88.38
94.70
101.78
110.18
120.49
132.27
144.78
157.16
168.83
179.78
190.59
202.61
214.59
228.90
246.26
266.88
289.51
311.14
327.29
333.18
325.44
303.28
269.34
227.73
182.95
138.16
94.64
52.23
10.44
-30.63
-70.05
-106.00
-137.23
-163.04
-183.84
-200.55
-214.11
-225.14
-233.63
-239.20
-241.15
-239.34
-234.33
-227.61
-221.26
-217.40
-217.49
-221.31
-227.43
-233.45
-237.34
-238.09
-236.37
-234.25
-234.32
-238.48
-247.32
-260.16
-275.40
-291.15
-305.41
-316.05
-320.69
-316.79
-302.56
-278.06
-246.01
-211.16
-178.45
-150.88
-128.40
-108.50
-88.04
-65.86
-44.06
-27.16
-19.08
-20.29
-26.65
-31.12
-27.05
-11.87
11.00
33.87
48.88
52.21
45.84
36.28
30.82
33.38
42.41
51.91
55.68
51.25
41.61
33.44
33.25
43.25
59.53
73.74
77.85
68.87
50.80
32.50
23.31
28.09
44.50
63.93
76.48
75.86
62.65
43.36
26.70
18.82
20.45
26.96
31.60
29.63
21.20
11.03
5.27
7.69
17.37
29.16
36.85
37.00
31.19
25.02
24.54
32.23
45.04
55.67
56.74
45.22
24.75
4.05
-7.56
-5.11
9.27
27.31
39.32
38.90
26.10
7.05
-9.88
-18.87
-19.73
-17.24
-17.39
-23.39
-33.26
-40.64
-38.73
-24.89
-3.02
17.97
28.76
24.33
6.83
-15.47
-32.71
-38.62
-33.67
-24.05
-17.40
-18.10
-24.46
-29.74
-26.58
-11.98
10.32
31.31
41.44
35.83
17.11
-6.01
-23.45
-29.00
-22.98
-11.34
-1.71
1.16
-2.01
-6.03
-4.94
3.94
17.95
30.22
33.46
24.17
4.92
-16.77
-32.25
-35.80
-27.40
-12.37
1.92
9.90
10.61
7.45
5.64
8.56
15.42
21.67
21.95
13.57
-1.30
-16.09
-22.85
-16.77
0.97
23.71
42.56
50.81
47.69
38.62
31.61
32.39
41.01
52.15
58.18
54.28
42.01
28.69
22.96
29.66
47.09
67.69
82.23
85.09
77.40
65.62
57.55
58.04
66.35
76.57
81.45
76.68
63.10
46.10
32.76
27.76
30.52
35.67
36.47
28.55
12.90
-4.18
-14.64
-13.37
-1.38
14.91
27.09
29.48
22.47
12.21
6.37
9.35
19.72
30.88
34.72
26.59
8.29
-13.21
-29.28
-34.14
-27.70
-15.42
-4.82
-1.31
-5.51
-13.00
-17.29
-13.72
-2.50
11.32
20.75
20.88
12.14
0.39
-6.49
-3.07
10.15
26.74
37.82
37.01
23.81
3.83
-14.52
-24.77
-25.63
-21.04
-17.26
-18.99
-26.14
-34.00
-36.21
-28.78
-12.71
6.08
19.81
23.24
16.64
5.56
-2.36
-1.88
6.72
17.80
23.90
20.14
7.18
-8.82
-19.91
-20.98
-12.68
-0.97
6.12
3.41
-8.36
-22.97
-32.31
-30.83
-18.76
-1.92
11.98
17.73
15.12
8.94
5.83
9.85
19.95
30.73
35.30
29.23
13.67
-5.15
-19.35
-23.42
-17.11
-5.96
2.14
1.50
-8.60
-23.21
-34.58
-36.72
-28.93
-15.73
-4.41
-0.78
-5.53
-14.14
-19.93
-17.85
-7.49
6.47
17.35
20.35
15.02
5.75
-0.99
-0.35
7.95
19.74
28.60
29.64
22.54
11.53
3.02
1.89
8.48
18.08
23.75
20.14
6.74
-11.39
-26.57
-32.67
-28.70
-19.23
-11.67
-11.71
-19.91
-31.31
-38.42
-35.76
-23.12
-5.91
7.94
12.43
6.91
-3.60
-11.49
-10.90
-1.14
13.33
25.63
30.44
27.10
19.62
14.01
14.66
21.72
30.77
35.72
32.30
20.69
5.80
-5.40
-7.98
-1.66
8.92
16.44
15.28
4.79
-10.26
-22.05
-24.08
-15.22
-0.13
13.21
17.59
10.81
-3.32
-17.60
-25.32
-24.16
-17.78
-13.06
-15.87
-27.59
-43.37
-55.10
-56.23
-45.34
-27.25
-10.57
-2.43
-4.51
-12.56
-18.57
-15.97
-3.68
13.69
28.49
34.29
29.98
19.97
11.17
9.33
15.39
24.93
31.31
29.28
18.04
2.35
-10.58
-15.00
-9.37
2.28
12.97
17.10
13.07
4.53
-2.01
-1.47
6.88
18.97
28.00
28.66
20.46
7.74
-2.52
-4.75
1.82
12.95
21.74
22.45
14.03
0.76
-10.16
-12.59
-5.09
8.07
19.21
21.59
13.26
-1.62
-15.10
-20.25
-15.05
-3.63
6.16
7.60
-0.89
-14.67
-25.59
-26.88
-17.16
-1.21
12.69
17.34
10.65
-3.41
-17.27
-24.05
-21.48
-12.83
-4.84
-3.89
-12.07
-26.18
-39.37
-44.96
-40.36
-28.29
-15.28
-7.96
-9.19
-16.58
-24.03
-25.42
-18.53
-6.60
3.82
6.65
0.24
-11.29
-20.38
-20.36
-9.43
8.09
24.45
32.84
31.19
23.21
15.58
13.91
19.33
28.02
33.82
32.13
22.86
10.64
2.12
2.26
11.49
25.39
36.88
40.04
33.18
19.78
6.49
-0.55
0.99
8.25
14.76
14.40
4.94
-10.24
-23.86
-29.09
-23.39
-10.23
2.58
7.71
2.28
-10.19
-21.77
-25.21
-18.07
-4.21
8.14
11.52
3.57
-11.60
-25.58
-30.79
-24.76
-11.31
1.46
6.20
0.58
-11.39
-21.54
-22.44
-11.80
6.15
22.60
29.29
22.98
7.33
-9.03
-17.58
-14.59
-3.20
8.25
11.52
3.13
-13.29
-28.95
-35.15
-28.13
-11.35
6.40
16.23
14.05
2.88
-9.26
-14.40
-9.18
2.94
13.98
16.40
7.41
-8.95
-24.52
-31.71
-27.63
-15.76
-3.34
3.00
1.15
-5.25
-9.40
-5.62
7.04
23.96
37.60
41.77
35.22
22.54
11.44
8.37
14.99
27.31
38.05
40.92
34.03
20.92
8.31
2.07
4.08
11.31
17.72
17.85
9.85
-3.51
-16.45
-23.59
-22.78
-16.23
-9.06
-6.18
-9.25
-15.70
-20.31
-18.44
-9.21
3.64
13.70
15.42
7.69
-5.40
-16.60
-19.56
-12.52
0.51
11.93
14.72
6.47
-9.10
-24.06
-30.77
-26.12
-13.40
-0.49
4.70
-1.23
-15.26
-29.67
-36.70
-33.12
-21.91
-10.23
-4.94
-8.09
-15.91
-21.02
-17.14
-3.24
15.63
31.05
35.90
28.60
13.89
0.23
-5.15
-0.11
11.64
22.74
26.79
21.71
10.90
1.00
-2.30
2.81
13.23
22.97
26.89
23.37
15.49
8.69
7.55
13.19
21.90
27.54
24.69
12.16
-5.89
-22.24
-30.06
-27.10
-16.98
-6.85
-3.75
-9.97
-22.15
-32.88
-35.37
-27.70
-13.62
-0.77
4.03
-1.22
-12.77
-23.09
-25.59
-18.11
-3.99
9.97
17.83
17.60
12.60
8.91
11.62
21.70
34.85
44.19
43.92
32.79
15.09
-1.88
-11.55
-11.93
-6.45
-1.83
-4.22
-15.23
-31.08
-44.31
-48.13
-40.27
-24.09
-7.00
3.99
5.90
1.46
-2.93
-1.12
9.15
24.53
38.41
44.52
40.70
30.15
19.42
14.56
17.55
25.21
30.96
28.80
16.74
-1.65
-19.23
-29.18
-28.73
-20.86
-12.30
-9.86
-15.90
-27.16
-36.35
-36.61
-25.77
-7.39
10.62
21.03
20.76
12.87
3.90
-0.09
3.04
9.73
13.90
10.20
-1.72
-17.05
-28.00
-28.30
-17.34
0.04
15.18
21.12
15.71
3.21
-8.68
-13.50
-9.10
0.45
8.40
8.61
0.02
-13.20
-23.73
-25.41
-17.19
-2.98
9.83
15.45
12.32
4.49
-1.51
-0.70
7.42
17.65
22.90
17.59
1.88
-18.58
-35.12
-40.87
-34.55
-20.49
-6.85
-0.33
-3.33
-12.09
-19.66
-19.61
-9.79
6.19
21.50
29.19
26.70
16.45
4.78
-2.23
-2.14
2.73
6.71
4.82
-4.31
-16.61
-25.28
-24.07
-11.35
8.73
28.29
39.71
39.68
30.42
18.42
10.12
8.66
12.10
15.27
13.23
4.70
-6.79
-15.10
-15.11
-6.22
7.20
17.94
20.04
12.12
-2.02
-15.56
-22.68
-21.68
-15.83
-11.03
-12.25
-20.22
-30.71
-36.90
-33.15
-18.43
2.84
22.88
34.53
34.89
26.57
16.06
9.53
9.76
14.51
18.44
16.64
7.97
-4.06
-13.31
-14.68
-7.59
3.73
12.11
11.73
1.34
-14.73
-29.08
-35.08
-30.45
-18.49
-5.47
2.67
4.10
1.57
0.62
5.46
16.36
28.83
36.07
32.82
18.52
-1.85
-20.21
-29.30
-26.57
-14.89
-1.19
7.65
8.19
2.08
-5.60
-9.55
-7.53
-1.79
2.79
1.72
-5.60
-15.31
-20.97
-17.71
-5.00
12.38
27.03
32.68
27.49
14.99
1.74
-6.29
-7.26
-3.72
-1.27
-4.23
-13.16
-23.68
-29.16
-24.24
-8.37
13.32
32.51
41.53
37.66
24.11
8.35
-2.52
-5.11
-1.74
2.06
0.84
-6.94
-18.08
-26.26
-25.99
-15.98
0.04
14.76
21.61
17.88
6.67
-5.46
-11.70
-9.16
0.22
10.65
16.50
15.33
9.47
3.83
2.74
6.87
12.54
13.95
6.87
-8.39
-26.58
-39.99
-42.50
-32.86
-15.72
1.01
9.81
7.68
-2.79
-14.90
-21.99
-20.81
-13.08
-3.77
2.39
3.95
3.55
5.69
13.26
24.87
35.12
37.47
28.11
8.79
-13.34
-28.96
-31.26
-19.26
1.46
21.46
31.76
28.20
13.17
-5.78
-19.84
-23.31
-16.37
-4.20
5.82
8.66
4.00
-3.85
-9.30
-8.92
-3.99
0.72
-0.00
-7.87
-19.55
-28.10
-27.13
-14.66
5.01
23.45
32.35
28.22
14.13
-1.77
-10.88
-8.55
3.53
18.79
29.47
30.94
23.77
12.80
3.91
0.41
1.52
3.34
1.97
-3.63
-10.70
-14.54
-11.70
-2.85
7.22
11.75
6.37
-8.09
-25.17
-36.14
-34.52
-20.10
0.94
18.61
24.74
17.00
0.37
-15.88
-22.90
-17.23
-1.96
14.83
25.04
24.58
15.49
3.98
-3.15
-2.80
3.39
10.04
12.07
7.77
-0.06
-6.10
-6.09
0.06
8.18
12.09
7.79
-3.75
-16.66
-23.57
-19.95
-7.33
7.43
15.86
12.77
-0.57
-17.01
-27.50
-26.22
-13.89
2.69
14.48
15.04
4.01
-12.83
-26.83
-31.17
-24.27
-10.45
2.75
8.50
4.48
-6.09
-16.30
-19.54
-13.07
0.33
14.06
21.37
19.37
10.69
1.84
-0.58
6.03
18.72
30.61
35.06
29.51
17.10
4.73
-0.86
3.00
13.52
24.24
28.78
24.30
12.75
-0.37
-9.48
-11.59
-7.99
-2.65
-0.15
-2.54
-8.66
-14.68
-16.77
-13.20
-5.74
1.70
4.86
1.80
-5.96
-14.30
-18.61
-16.43
-8.69
0.60
6.87
7.08
1.91
-5.35
-10.33
-10.65
-6.75
-2.02
-0.03
-2.49
-7.61
-11.43
-10.09
-2.68
7.96
16.46
18.07
11.76
0.89
-8.35
-10.82
-5.24
4.49
12.06
12.13
4.18
-7.34
-15.30
-14.62
-5.22
7.35
15.47
13.69
2.17
-13.29
-24.68
-26.16
-17.61
-4.31
5.91
7.56
0.33
-10.22
-16.39
-12.50
1.17
18.76
31.40
32.53
21.54
4.22
-10.35
-15.10
-8.74
3.25
12.36
11.75
0.88
-14.44
-24.96
-23.70
-9.82
10.28
26.68
31.32
22.47
5.85
-9.11
-14.56
-9.01
2.45
11.14
10.76
1.02
-12.12
-20.33
-18.27
-6.97
6.79
14.69
11.66
-0.85
-16.21
-26.34
-26.41
-17.07
-3.77
6.73
9.97
5.82
-1.82
-7.64
-7.77
-1.79
7.51
15.48
18.45
15.21
7.75
0.06
-3.99
-2.72
2.42
7.67
8.79
3.92
-5.43
-14.49
-17.98
-12.80
-0.27
14.38
24.45
25.41
17.74
6.57
-0.96
-0.07
8.96
20.69
27.86
25.74
15.01
1.44
-7.72
-8.22
-1.37
6.59
8.60
1.04
-13.58
-28.20
-35.25
-31.38
-19.64
-7.33
-2.03
-6.36
-17.00
-26.30
-27.60
-19.10
-5.07
6.94
10.93
5.54
-4.76
-13.35
-14.77
-8.35
2.27
11.30
14.02
9.52
0.11
-9.49
-15.26
-15.22
-10.81
-5.60
-3.56
-7.01
-14.50
-21.97
-24.26
-18.90
-7.47
4.38
10.21
7.16
-2.45
-11.46
-12.69
-3.21
13.02
27.54
32.28
24.58
9.47
-3.20
-3.70
12.22
41.62
76.39
107.83
130.67
144.38
152.25
158.46
165.68
174.67
185.03
196.16
207.86
219.82
230.57
237.29
236.02
222.47
194.42
150.47
91.80
23.21
-46.69
-107.65
-151.14
-174.22
-180.41
-178.92
-180.84
-193.55
-217.24
-245.57
-269.66
-283.15
-285.14
-279.31
-270.67
-262.06
-252.52
-238.35
-216.45
-185.43
-146.81
-104.74
-64.50
-30.98
-7.27
6.56
13.77
19.10
26.69
37.86
50.75
61.95
68.96
71.87
72.94
74.60
77.28
79.06
77.14
70.36
60.52
51.41
46.37
46.17
48.63
50.21
48.43
43.19
36.41
30.48
26.65
24.55
22.84
20.33
16.87
13.48
11.83
13.29
18.22
25.39
32.21
35.63
33.44
25.54
14.30
3.78
-1.83
0.19
10.13
25.80
43.38
58.70
68.61
72.02
70.40
67.36
67.18
73.04
85.55
102.63
120.30
134.42
141.90
140.62
129.37
108.11
78.90
46.85
19.38
3.17
0.39
7.04
14.76
15.26
5.09
-12.62
-30.10
-39.77
-38.43
-29.23
-20.09
-19.82
-33.60
-60.29
-92.56
-120.20
-135.01
-134.87
-124.69
-112.89
-106.33
-105.95
-107.22
-103.91
-93.06
-77.41
-63.55
-57.68
-61.77
-72.61
-83.38
-86.94
-78.52
-57.52
-28.34
0.37
18.32
18.30
0.49
-26.41
-49.42
-58.86
-54.71
-46.81
-47.60
-63.39
-89.43
-113.43
-124.13
-118.92
-104.66
-91.57
-85.27
-82.84
-75.81
-56.47
-23.49
17.74
58.70
91.99
113.80
123.64
123.52
117.02
109.13
104.56
105.32
108.62
107.86
97.07
75.70
50.29
30.44
22.48
24.92
29.73
28.50
18.25
3.21
-8.64
-11.37
-4.69
6.42
15.05
16.15
8.70
-4.36
-17.30
-24.04
-20.57
-7.36
10.03
23.20
25.35
15.46
-1.08
-15.93
-23.63
-24.74
-24.61
-28.38
-36.62
-45.02
-47.70
-41.67
-28.56
-13.49
-1.66
3.71
2.40
-3.73
-11.09
-15.57
-13.72
-4.81
8.17
19.52
24.10
20.54
12.02
3.99
0.34
0.92
1.99
-0.45
-7.10
-14.43
-16.70
-9.81
5.63
24.05
37.62
40.18
30.46
12.47
-6.53
-19.93
-25.05
-24.34
-23.26
-26.47
-34.21
-41.70
-41.92
-30.30
-8.29
16.62
34.54
38.42
28.12
10.80
-2.83
-4.63
6.79
25.52
41.78
47.64
41.65
29.59
21.22
24.43
40.37
62.34
79.24
81.61
66.88
40.27
11.34
-11.30
-23.99
-28.70
-30.36
-32.95
-36.42
-36.60
-28.01
-8.03
20.15
47.78
64.73
64.78
48.98
25.11
3.65
-7.75
-7.39
0.25
7.43
7.47
-1.64
-16.50
-29.80
-34.61
-28.08
-12.87
4.27
15.81
16.97
8.00
-5.96
-17.11
-18.95
-9.94
5.67
19.93
26.12
22.79
14.41
7.87
8.13
15.26
24.37
28.89
24.53
12.13
-2.56
-12.10
-12.02
-4.03
4.45
4.36
-9.18
-33.64
-59.95
-77.65
-80.54
-69.92
-53.53
-40.61
-36.29
-38.49
-39.48
-30.91
-9.87
18.55
43.84
55.87
50.31
30.30
4.01
-19.90
-36.16
-43.94
-45.76
-44.51
-41.43
-35.43
-24.73
-9.16
8.06
21.57
26.68
22.09
10.75
-1.16
-6.67
-0.71
17.64
44.11
70.20
86.26
85.79
68.49
40.61
12.38
-6.61
-11.70
-4.88
6.55
14.06
12.27
0.85
-16.33
-34.34
-49.57
-60.23
-64.99
-62.22
-50.13
-28.51
-0.07
29.11
51.15
58.79
48.50
22.55
-11.71
-44.73
-68.29
-78.38
-76.20
-66.89
-56.61
-49.50
-45.51
-40.69
-29.81
-10.09
16.43
43.54
63.91
72.77
70.14
60.75
51.66
48.73
54.12
65.34
76.81
82.48
78.72
65.31
44.85
21.00
-3.32
-26.59
-48.86
-70.64
-91.97
-111.94
-129.46
-144.02
-156.58
-169.42
-184.45
-201.85
-219.21
-231.82
-234.30
-223.35
-199.70
-168.71
-139.38
-120.98
-119.65
-136.08
-165.50
-199.94
-231.44
-254.72
-265.75
-263.16
-246.57
-215.80
-171.01
-113.62
-47.32
22.57
90.24
150.86
201.32
240.91
270.40
291.31
305.06
312.47
313.88
309.62
300.41
287.40
272.41
257.32
243.63
232.11
222.52
213.94
205.21
195.57
184.94
174.14
164.31
156.53
151.29
147.95
144.84
139.84
131.16
117.91
100.48
80.39
58.82
36.72
14.25
-9.21
-34.54
-62.41
-93.18
-125.71
-159.33
-192.40
-221.36
-240.92
-245.48
-231.58
-200.07
-156.64
-110.22
-69.80
-40.98
-24.61
-17.77
-16.27
-16.95
-18.62
-21.50
-25.69
-30.56
-34.67
-36.69
-36.36
-34.68
-33.29
-33.67
-36.05
-39.33
-41.62
-40.88
-35.78
-26.34
-13.62
0.57
14.79
28.64
42.43
56.76
71.84
86.90
100.10
109.11
111.84
107.29
95.95
79.56
60.25
39.76
18.67
-3.68
-28.49
-56.43
-86.86
-117.66
-145.73
-168.18
-183.60
-192.66
-197.98
-202.06
-206.19
-209.45
-208.46
-198.85
-176.22
-137.85
-83.27
-14.52
63.67
143.77
215.78
269.08
296.13
296.52
278.15
254.71
240.16
242.47
260.77
285.59
304.67
308.85
295.42
267.33
230.02
187.82
142.06
93.19
41.94
-9.18
-56.23
-95.22
-124.13
-143.73
-157.15
-168.48
-180.70
-194.82
-209.54
-222.25
-230.44
-232.89
-230.23
-224.41
-217.87
-212.19
-207.78
-203.54
-197.53
-187.93
-173.88
-155.82
-135.38
-114.67
-95.51
-79.01
-65.15
-52.97
-40.92
-27.67
-12.57
4.05
21.04
36.78
49.84
59.56
66.33
71.49
76.49
82.09
87.91
92.29
92.95
88.10
77.57
63.02
47.54
34.28
25.21
20.38
18.22
16.57
13.98
10.04
5.09
-0.26
-5.50
-9.77
-11.30
-7.21
5.57
28.09
57.48
87.07
109.17
118.99
117.69
112.35
111.94
121.85
140.45
159.71
169.98
165.79
149.00
127.76
111.88
106.83
110.67
115.28
111.27
93.51
63.84
29.90
1.28
-15.24
-18.80
-13.99
-7.51
-4.32
-5.50
-8.35
-9.03
-5.36
1.24
6.80
7.43
2.22
-6.27
-13.42
-15.13
-10.23
-0.86
8.19
11.86
7.60
-3.67
-18.31
-31.61
-40.11
-43.11
-42.81
-43.09
-46.65
-53.46
-60.72
-65.06
-64.47
-59.76
-53.92
-49.63
-47.27
-43.76
-34.43
-16.22
9.63
37.13
58.04
65.52
57.58
38.20
15.89
0.06
-3.61
4.69
18.95
30.50
32.64
24.07
9.52
-2.54
-5.37
2.19
14.99
24.40
23.62
11.60
-5.89
-19.58
-22.21
-13.30
0.34
9.08
5.72
-10.34
-33.19
-53.60
-64.19
-63.10
-54.42
-44.85
-39.53
-40.24
-45.11
-50.23
-52.21
-49.80
-44.54
-39.46
-37.10
-38.53
-42.35
-44.70
-41.23
-29.49
-11.05
8.55
22.40
25.54
17.95
4.88
-6.00
-8.98
-3.31
7.02
16.11
20.17
19.50
17.61
18.41
23.00
28.92
32.05
29.95
24.21
20.32
24.49
39.83
63.84
88.93
106.04
109.48
99.96
84.58
73.62
75.05
90.44
114.44
137.76
152.09
153.59
143.75
127.62
110.39
94.67
80.25
65.98
51.18
37.05
26.29
21.29
22.20
26.21
28.05
21.88
3.40
-27.71
-67.08
-107.39
-141.31
-164.42
-176.24
-178.77
-174.09
-162.82
-145.11
-122.16
-97.56
-76.57
-63.47
-59.23
-61.18
-65.14
-68.26
-70.19
-71.79
-72.95
-71.45
-64.07
-49.52
-30.12
-10.79
3.46
10.43
11.00
8.19
4.12
-1.61
-12.51
-32.72
-64.46
-106.26
-153.10
-198.38
-236.52
-264.97
-284.52
-298.22
-308.64
-316.12
-318.33
-311.21
-290.79
-254.83
-203.70
-140.69
-71.69
-4.31
53.33
94.62
116.56
121.26
115.14
106.56
102.57
106.61
118.10
133.89
150.55
166.39
181.37
196.07
210.04
221.23
226.42
222.31
206.79
178.54
137.70
86.25
28.59
-28.51
-77.25
-111.11
-127.35
-127.35
-116.94
-103.61
-93.18
-87.58
-84.50
-79.21
-66.45
-42.59
-6.72
38.82
88.92
136.60
174.15
195.71
199.41
188.11
167.82
145.14
124.65
108.06
94.97
84.46
76.23
70.46
67.02
64.66
61.27
54.86
44.79
32.19
19.38
9.01
2.68
0.39
0.67
1.36
0.55
-2.55
-7.50
-12.91
-17.16
-19.16
-18.80
-16.82
-14.47
-12.89
-12.63
-13.55
-14.98
-16.05
-16.15
-15.09
-13.15
-10.87
-8.76
-7.15
-6.03
-5.18
-4.26
-3.01
-1.34
0.70
2.94
5.19
7.35
9.40
11.39
13.38
15.41
17.51
19.65
21.83
23.95
25.89
27.55
28.74
29.34
29.20
28.18
26.19
23.21
19.27
14.44
8.90
2.91
-3.27
-9.30
-14.89
-19.79
-23.79
-26.77
-28.65
-29.50
-29.37
-28.39
-26.75
-24.60
-22.09
-19.33
-16.43
-13.44
-10.39
-7.32
-4.24
-1.13
2.00
5.17
8.43
11.77
15.23
18.72
22.17
25.50
28.66
31.66
34.47
37.12
39.72
42.35
44.96
47.54
50.13
52.80
55.68
58.83
62.38
66.45
71.18
76.31
81.69
87.24
92.89
98.54
104.18
109.79
115.36
120.99
126.33
131.14
135.23
138.40
140.36
140.71
138.81
133.70
127.31
120.27
112.95
105.51
98.04
90.61
83.29
76.14
69.32
63.05
57.15
51.55
46.34
41.64
37.62
34.41
32.07
30.57
29.88
29.49
29.03
28.25
27.03
25.37
23.30
20.96
18.48
16.01
13.57
11.31
9.47
8.38
8.29
9.29
11.25
13.73
16.15
17.79
18.14
17.02
14.62
11.35
7.63
3.60
-0.94
-6.49
-13.58
-22.38
-32.52
-43.08
-52.98
-61.49
-68.67
-75.41
-83.18
-93.25
-106.04
-120.84
-135.96
-149.66
-161.04
-170.56
-179.92
-191.21
-205.61
-222.83
-241.44
-260.00
-278.03
-296.26
-315.19
-333.53
-347.76
-353.32
-347.01
-329.37
-304.78
-279.05
-256.22
-236.19
-215.44
-189.94
-158.91
-126.32
-99.05
-82.90
-78.51
-80.33
-79.43
-68.66
-46.68
-18.99
5.07
17.96
18.28
11.62
7.23
12.49
28.09
47.62
61.29
61.56
48.03
28.03
12.35
9.06
18.85
34.43
44.73
41.39
23.62
-1.04
-20.97
-26.98
-17.69
-0.05
14.73
17.75
7.85
-7.70
-17.47
-12.70
7.38
34.63
56.63
63.51
53.56
34.38
18.27
15.21
27.02
46.42
61.41
62.61
48.97
28.65
14.35
15.75
33.64
59.18
79.08
83.01
69.61
47.27
28.84
23.94
33.31
48.29
56.09
47.48
22.40
-9.76
-35.47
-44.87
-37.25
-21.36
-9.93
-12.35
-29.09
-51.78
-68.38
-70.43
-58.07
-39.50
-25.89
-24.69
-35.20
-49.45
-57.34
-52.85
-37.49
-19.41
-8.17
-9.06
-20.30
-34.01
-41.19
-36.99
-23.34
-7.58
1.76
0.01
-11.08
-24.57
-32.27
-29.34
-17.01
-1.47
9.72
11.69
5.12
-4.67
-11.03
-9.84
-1.90
7.47
11.97
7.95
-3.38
-16.21
-23.70
-21.89
-11.70
1.52
11.20
13.71
10.38
6.74
9.39
21.83
42.14
64.12
80.63
87.59
86.72
84.47
88.22
102.05
123.74
145.46
158.08
155.76
139.51
117.08
98.55
90.75
93.47
99.15
97.26
80.57
49.41
12.29
-18.70
-34.92
-35.92
-29.73
-28.38
-40.55
-66.49
-98.06
-123.35
-133.72
-128.84
-116.17
-106.24
-106.29
-115.89
-127.65
-132.05
-123.12
-101.98
-76.15
-54.80
-43.80
-42.58
-44.80
-42.42
-30.47
-9.64
13.99
32.71
41.36
40.22
34.68
32.16
37.75
51.55
68.60
81.84
86.30
82.00
74.13
69.90
74.34
87.14
102.65
113.05
112.93
102.92
89.51
81.78
86.09
101.89
121.52
133.95
130.33
109.25
77.66
47.04
27.35
21.39
23.26
22.22
8.75
-19.59
-56.47
-90.51
-111.85
-117.35
-112.34
-106.85
-109.21
-121.45
-138.02
-149.67
-149.37
-136.48
-116.88
-99.57
-91.05
-91.47
-95.11
-93.63
-81.19
-57.87
-29.51
-4.11
12.31
19.27
21.91
27.68
42.15
65.76
92.96
115.50
126.68
125.00
115.43
106.48
105.29
113.70
126.84
135.72
132.83
116.39
92.03
69.79
58.24
59.37
67.41
71.88
63.84
41.57
11.77
-13.83
-25.04
-19.39
-3.52
10.52
11.87
-2.67
-26.88
-48.88
-57.95
-50.86
-33.73
-18.20
-14.53
-25.47
-44.60
-60.19
-62.47
-49.40
-28.00
-10.22
-5.79
-16.41
-34.76
-48.79
-48.82
-33.38
-10.03
9.13
14.20
3.42
-16.05
-32.51
-36.32
-25.60
-7.03
8.38
11.58
0.88
-17.24
-32.14
-35.24
-25.12
-8.25
4.96
6.16
-5.93
-24.80
-39.97
-43.12
-32.98
-16.04
-2.54
-0.58
-11.30
-28.29
-41.59
-43.59
-33.37
-17.21
-4.31
-1.38
-8.75
-20.14
-26.87
-23.02
-8.91
9.11
22.63
26.16
20.01
10.26
4.75
8.56
21.09
36.31
46.44
46.38
36.51
22.66
12.46
11.10
18.54
29.48
36.72
35.29
25.04
10.86
-0.71
-5.22
-2.79
1.91
2.75
-4.12
-18.02
-33.63
-44.15
-45.31
-37.75
-27.15
-21.08
-24.59
-37.29
-52.81
-62.16
-58.71
-41.88
-17.96
3.05
12.93
9.62
-1.33
-10.15
-8.42
6.05
27.61
46.20
53.30
46.95
33.58
24.14
27.61
45.59
70.64
90.59
95.35
82.88
60.74
41.60
35.85
45.49
62.66
74.32
69.90
47.46
15.22
-13.32
-27.00
-23.19
-9.13
2.83
2.47
-12.33
-34.50
-52.43
-56.94
-46.61
-28.56
-13.71
-10.40
-19.52
-34.19
-44.31
-42.58
-28.88
-10.14
4.05
6.83
-1.88
-15.56
-25.21
-24.56
-13.62
1.45
12.27
12.85
3.12
-11.20
-21.93
-23.17
-14.44
-0.85
10.04
12.55
6.15
-4.35
-11.76
-10.83
-1.50
10.96
19.08
17.49
6.46
-8.07
-17.78
-16.73
-5.04
11.10
22.86
23.74
13.32
-2.42
-14.53
-16.25
-6.90
7.79
19.09
20.26
10.47
-4.71
-16.61
-18.50
-9.48
5.08
16.82
19.25
11.46
-1.37
-11.28
-12.35
-4.29
7.36
14.62
11.82
-0.81
-17.04
-28.12
-27.87
-16.33
0.09
12.12
12.79
1.48
-15.57
-28.76
-30.60
-19.89
-2.47
12.17
16.29
8.28
-6.30
-18.09
-19.40
-8.65
8.50
22.57
25.79
16.78
1.54
-10.14
-10.42
1.75
19.94
33.89
35.45
23.40
4.28
-11.52
-15.70
-6.90
8.67
20.99
21.98
10.07
-8.96
-25.53
-31.74
-25.79
-12.86
-1.63
0.70
-7.42
-21.14
-32.38
-34.82
-27.87
-16.97
-10.39
-14.30
-28.89
-48.21
-63.48
-68.25
-62.14
-50.91
-43.22
-45.56
-58.39
-75.66
-88.20
-88.89
-76.83
-57.92
-41.85
-36.46
-43.41
-56.66
-65.88
-62.14
-43.03
-14.56
12.39
28.02
29.47
22.61
18.42
26.61
49.30
79.59
105.62
117.23
112.36
98.03
86.36
87.04
101.63
122.72
138.48
139.78
125.62
103.66
85.70
80.75
89.94
106.14
118.27
117.92
103.88
82.86
64.95
57.88
62.69
73.05
79.62
75.18
58.93
36.62
16.85
6.19
5.25
8.83
9.28
0.93
-16.42
-37.95
-56.63
-67.68
-71.33
-72.19
-76.63
-88.62
-107.33
-127.35
-141.73
-145.90
-140.26
-130.11
-122.66
-123.03
-131.19
-141.40
-145.45
-137.09
-115.88
-87.98
-62.86
-48.23
-45.36
-48.20
-46.78
-33.20
-6.66
25.70
52.56
64.83
61.02
48.16
37.84
39.62
55.43
78.70
98.22
104.72
96.20
79.31
65.28
63.35
75.25
93.83
107.23
105.48
86.60
57.75
31.40
18.12
20.39
31.41
39.09
33.11
11.13
-19.85
-47.49
-61.41
-59.06
-47.20
-37.67
-40.37
-57.20
-80.75
-98.52
-100.32
-84.31
-58.17
-34.88
-25.10
-31.22
-45.79
-56.19
-51.97
-31.01
-0.85
26.02
39.20
36.55
25.03
16.39
20.08
37.41
60.92
78.87
82.23
70.12
50.35
34.85
32.55
44.30
62.45
75.55
75.13
60.73
40.20
25.16
24.36
38.73
60.93
79.72
86.27
79.11
64.63
53.12
52.48
63.66
80.17
91.99
91.62
78.45
58.99
42.68
36.21
39.54
46.01
46.72
35.82
14.17
-11.31
-31.77
-41.63
-41.61
-37.94
-38.39
-47.65
-64.60
-83.05
-95.56
-97.86
-91.15
-81.34
-75.63
-78.48
-89.22
-102.62
-112.22
-114.04
-108.95
-102.10
-99.83
-105.86
-118.63
-131.80
-137.44
-130.67
-112.62
-90.33
-73.23
-67.87
-74.16
-84.85
-89.54
-80.54
-57.29
-27.09
-0.74
13.51
15.12
11.38
13.03
27.51
53.96
83.40
103.81
107.21
94.63
75.85
63.82
67.02
84.69
107.05
121.31
119.11
101.49
78.51
63.36
64.99
82.95
107.82
126.84
130.95
119.95
102.01
88.77
88.05
99.66
115.43
124.23
118.52
98.40
71.48
47.82
34.54
31.59
32.65
29.28
15.91
-6.68
-32.58
-54.16
-67.07
-72.30
-75.62
-83.65
-99.74
-121.97
-143.71
-157.73
-159.84
-151.75
-139.98
-132.46
-134.13
-143.81
-154.96
-159.03
-150.85
-131.55
-108.69
-91.83
-87.14
-93.44
-102.40
-103.27
-88.95
-60.72
-27.39
-0.74
11.45
9.88
3.32
3.24
16.81
42.71
71.49
91.56
95.74
86.00
72.09
66.05
75.03
96.92
121.87
137.68
137.06
121.52
100.62
86.10
85.31
97.27
113.37
123.02
119.59
104.68
86.56
75.62
77.89
91.67
108.48
118.11
114.44
98.74
78.77
63.64
58.66
62.03
66.38
63.32
48.49
24.37
-1.56
-21.25
-30.93
-33.15
-35.17
-44.17
-62.83
-87.17
-108.55
-118.52
-113.70
-97.96
-80.37
-70.33
-72.36
-83.58
-95.65
-99.72
-91.72
-74.62
-56.83
-46.85
-48.62
-58.73
-68.95
-70.95
-61.40
-43.78
-26.16
-16.38
-17.30
-25.37
-32.75
-32.43
-22.30
-6.60
6.75
11.00
4.59
-7.56
-17.06
-16.77
-4.95
13.77
30.97
39.33
36.52
26.47
16.72
13.96
20.06
31.28
40.43
41.33
32.12
16.55
1.30
-7.69
-8.83
-5.53
-3.91
-9.08
-21.83
-37.97
-50.67
-54.65
-49.07
-38.54
-30.27
-30.37
-40.24
-55.71
-69.20
-74.17
-68.78
-57.00
-46.80
-45.40
-55.33
-72.18
-87.04
-91.01
-80.75
-60.24
-39.20
-27.36
-28.95
-39.51
-48.37
-44.27
-21.96
14.54
54.03
84.21
98.33
98.73
94.91
97.62
112.36
136.04
159.12
171.32
167.76
151.81
132.88
120.50
118.80
124.07
127.38
120.19
99.44
69.20
37.98
13.46
-1.88
-11.87
-23.90
-44.06
-73.18
-105.72
-132.67
-146.32
-144.56
-132.26
-118.64
-112.41
-116.87
-127.50
-134.24
-126.95
-101.04
-60.66
-16.73
18.58
38.52
45.21
48.06
57.72
79.66
110.56
140.38
158.07
158.08
143.10
122.12
104.37
94.02
87.76
77.61
56.29
22.23
-18.95
-57.08
-83.28
-94.60
-95.73
-95.81
-103.14
-119.80
-140.03
-152.82
-148.17
-122.73
-82.23
-38.63
-3.92
16.26
25.15
32.20
46.71
71.76
102.20
127.60
138.66
132.54
114.32
93.49
78.12
70.03
64.38
53.00
29.91
-4.73
-44.07
-78.12
-98.87
-104.61
-100.40
-95.08
-95.90
-104.12
-113.66
-114.43
-97.83
-62.29
-14.69
32.54
67.92
86.48
91.89
93.10
98.49
110.21
123.27
128.39
118.38
92.37
56.84
21.70
-5.04
-21.77
-33.28
-47.46
-69.86
-99.83
-130.06
-150.27
-152.57
-136.15
-107.71
-78.35
-57.36
-47.45
-42.98
-34.00
-11.99
24.20
67.46
105.64
128.57
133.17
124.99
114.00
108.60
110.36
113.71
109.55
91.45
59.58
21.19
-13.78
-37.85
-50.41
-57.19
-66.76
-84.87
-110.48
-135.38
-148.31
-140.63
-111.34
-67.72
-22.06
14.84
38.44
52.22
64.00
80.60
102.65
124.27
136.10
131.31
109.53
77.36
44.38
17.96
-0.61
-15.85
-34.65
-61.19
-93.84
-125.21
-146.26
-151.03
-140.59
-122.50
-107.16
-102.17
-107.92
-117.23
-119.29
-105.91
-76.52
-38.96
-5.25
15.03
20.17
17.26
17.94
31.38
58.85
92.86
121.53
135.33
132.53
119.86
108.56
107.55
118.63
135.45
147.72
147.01
131.68
107.38
83.55
67.63
60.94
58.20
51.05
33.22
4.35
-29.68
-60.28
-81.03
-91.38
-96.76
-105.00
-121.36
-144.53
-166.69
-177.28
-168.84
-141.42
-103.23
-66.42
-40.91
-28.85
-23.92
-15.27
5.78
40.24
80.59
114.97
133.95
135.72
126.55
116.48
112.84
115.95
119.12
113.42
93.36
60.60
23.19
-9.18
-30.58
-42.09
-50.64
-64.44
-87.88
-118.29
-146.58
-161.85
-156.90
-132.14
-95.66
-59.15
-32.13
-17.24
-9.38
0.59
20.08
49.97
83.78
111.03
123.09
117.71
99.85
77.93
58.67
43.14
26.79
3.18
-30.88
-71.86
-110.07
-134.11
-136.62
-118.29
-87.63
-56.57
-34.11
-21.98
-14.20
-1.47
22.68
57.39
94.34
122.19
132.72
125.19
106.11
84.89
68.17
56.06
42.86
21.34
-11.96
-53.42
-93.27
-120.47
-128.40
-118.46
-99.34
-82.07
-74.04
-74.63
-75.79
-66.90
-41.23
-0.42
45.97
85.44
109.04
115.77
112.15
107.52
108.07
113.14
116.07
108.75
86.79
52.56
14.18
-18.93
-41.17
-53.41
-62.08
-74.94
-96.00
-122.53
-145.67
-154.84
-143.37
-112.50
-70.96
-30.82
-1.19
16.30
27.49
41.42
64.12
94.39
123.97
142.34
142.71
126.21
100.78
76.56
59.79
49.68
39.19
20.29
-10.70
-50.01
-87.98
-113.88
-122.13
-114.81
-100.67
-89.75
-87.63
-92.14
-94.52
-84.72
-57.22
-14.97
32.25
72.34
97.54
107.45
108.50
108.79
113.04
119.33
120.82
110.13
84.41
47.77
9.34
-21.53
-40.32
-49.39
-56.43
-69.30
-91.25
-118.22
-140.87
-149.30
-139.07
-113.51
-82.55
-57.10
-43.30
-39.10
-35.73
-23.03
4.44
43.79
85.41
117.89
134.48
135.91
129.36
123.21
122.02
123.70
121.60
108.75
82.72
47.49
11.40
-17.38
-35.32
-45.23
-54.35
-69.58
-93.32
-121.22
-144.50
-154.43
-147.82
-128.78
-107.27
-93.52
-92.40
-100.37
-107.26
-101.93
-78.53
-40.27
2.55
37.87
58.84
67.20
71.72
82.40
104.12
133.50
160.76
175.71
173.52
157.76
137.84
123.30
118.15
118.83
116.78
104.05
78.32
44.33
11.22
-12.82
-24.99
-29.14
-33.01
-43.65
-63.28
-88.05
-110.36
-123.26
-124.37
-117.35
-109.86
-109.20
-118.22
-133.26
-146.25
-148.97
-138.15
-117.21
-94.83
-79.88
-76.28
-80.42
-83.19
-75.52
-53.77
-22.49
8.18
27.93
32.46
25.99
18.85
21.35
37.51
62.53
85.28
94.95
87.44
68.16
49.06
41.87
51.24
71.99
92.36
100.84
93.20
75.24
59.18
56.60
71.28
97.13
121.56
132.99
127.16
109.41
90.93
81.94
85.86
97.31
106.09
103.09
85.84
59.58
33.88
16.92
10.77
10.93
9.12
-1.12
-20.99
-45.61
-67.40
-80.56
-84.32
-83.50
-85.02
-94.18
-110.92
-129.91
-143.27
-145.15
-135.19
-118.93
-105.07
-100.54
-106.95
-118.88
-127.24
-124.04
-107.22
-82.10
-58.58
-45.82
-46.63
-56.09
-64.09
-61.69
-46.36
-23.73
-4.41
2.67
-4.58
-19.21
-29.56
-25.65
-5.43
23.89
50.09
62.77
59.79
48.06
39.75
44.53
63.98
90.41
111.44
117.39
106.80
87.62
72.18
70.30
83.49
104.24
120.90
124.20
112.95
94.08
78.53
74.54
82.95
96.97
106.19
103.00
86.68
63.86
44.19
34.87
36.58
43.34
46.61
40.17
23.96
3.58
-13.17
-21.21
-21.19
-18.76
-21.29
-33.17
-53.28
-75.58
-92.81
-100.77
-100.75
-98.86
-102.17
-114.60
-134.07
-153.37
-164.04
-161.04
-145.86
-125.85
-110.38
-105.37
-109.77
-115.66
-112.81
-94.58
-62.09
-24.01
8.11
26.28
30.79
29.82
34.58
52.51
82.72
116.39
142.12
152.44
148.19
137.38
129.91
131.29
139.12
144.83
138.75
116.18
80.17
39.93
5.55
-17.53
-31.06
-42.49
-59.89
-86.89
-119.72
-148.71
-163.37
-157.73
-133.98
-101.23
-70.77
-50.01
-38.62
-29.29
-12.69
16.34
55.11
94.03
121.85
131.65
124.58
108.29
91.93
80.56
72.22
59.96
36.66
0.31
-43.67
-84.75
-112.50
-122.12
-116.61
-104.83
-96.12
-94.92
-97.93
-96.04
-79.84
-45.51
2.22
51.96
91.40
113.46
119.54
117.53
116.38
120.42
126.66
127.22
114.36
85.74
46.47
6.32
-25.47
-45.19
-56.17
-66.22
-82.51
-106.61
-132.84
-150.62
-149.99
-127.17
-86.74
-39.95
1.22
29.60
45.94
57.10
70.86
90.61
112.60
128.42
129.82
113.86
84.99
52.26
24.46
5.08
-8.84
-24.22
-47.01
-77.65
-109.93
-133.88
-141.08
-129.60
-105.23
-78.72
-59.90
-52.24
-51.04
-46.28
-28.73
4.28
47.03
88.07
116.68
127.90
124.63
114.57
104.91
98.01
90.24
75.36
48.93
12.01
-28.56
-63.66
-86.48
-96.23
-98.04
-99.96
-108.11
-122.79
-137.83
-143.83
-133.38
-105.61
-67.24
-29.57
-2.62
10.18
13.56
17.38
30.59
55.77
87.65
116.16
132.64
134.64
127.35
119.93
119.71
127.92
138.63
143.02
134.29
111.95
81.90
52.65
30.41
15.54
3.08
-13.82
-39.24
-71.52
-103.60
-126.90
-136.03
-131.97
-121.55
-113.82
-114.93
-124.24
-134.53
-135.60
-120.02
-87.44
-45.16
-4.43
25.65
42.58
51.49
61.19
78.41
103.41
129.42
146.95
149.05
135.61
113.04
90.35
73.97
64.35
56.64
44.27
23.44
-4.32
-33.08
-55.95
-69.26
-74.67
-78.16
-86.61
-103.46
-126.02
-146.38
-154.92
-145.49
-118.56
-81.45
-44.33
-15.03
4.68
19.30
35.61
57.85
84.40
108.30
121.41
119.10
102.97
79.62
56.50
37.51
21.13
2.13
-24.23
-58.10
-93.22
-119.12
-125.91
-109.25
-72.90
-27.16
15.81
47.39
65.87
75.56
82.75
90.84
97.94
97.83
84.15
54.88
14.56
-27.37
-60.96
-80.46
-86.69
-85.61
-84.32
-86.32
-89.22
-86.10
-69.80
-37.75
5.70
50.59
86.23
106.19
111.01
106.83
100.79
96.56
92.26
82.16
60.98
27.93
-11.92
-49.64
-76.97
-90.50
-93.07
-91.81
-93.57
-100.45
-108.06
-107.66
-91.17
-56.31
-8.74
40.15
78.72
100.57
107.06
105.28
102.90
103.03
102.59
94.41
72.35
35.86
-8.50
-49.67
-77.51
-87.77
-83.82
-74.35
-67.93
-68.00
-70.46
-66.36
-47.49
-11.84
34.07
78.02
108.16
118.88
113.12
99.66
87.45
80.36
75.67
66.50
47.09
16.87
-18.52
-50.34
-71.73
-81.35
-84.15
-87.85
-98.19
-114.90
-131.00
-136.33
-122.84
-89.39
-42.85
4.97
43.09
66.41
77.47
83.61
91.75
103.70
115.05
118.05
106.64
80.46
45.56
10.98
-16.01
-33.85
-46.74
-61.20
-81.42
-105.49
-125.57
-131.73
-117.24
-82.85
-36.87
8.55
43.21
63.42
72.70
78.16
85.21
93.39
96.48
86.43
58.72
16.57
-29.74
-67.30
-86.60
-86.16
-72.20
-54.75
-41.65
-34.43
-28.25
-15.94
6.79
37.49
67.85
87.93
91.73
80.42
61.51
44.29
34.59
31.80
30.28
23.30
7.80
-13.47
-33.60
-45.56
-46.39
-38.72
-29.04
-23.90
-26.34
-34.25
-42.14
-44.38
-38.58
-26.91
-14.55
-6.93
-6.53
-11.55
-17.35
-18.99
-14.20
-4.57
5.57
11.74
11.96
7.86
3.43
2.43
5.94
11.60
15.28
13.50
5.80
-4.82
-13.55
-16.40
-12.31
-3.68
5.08
9.99
9.36
4.65
-0.82
-3.76
-2.80
0.86
4.37
5.01
1.80
-3.73
-8.54
-9.79
-6.51
-0.18
6.01
9.07
7.67
3.07
-1.75
-3.82
-1.81
3.15
8.26
10.62
8.91
4.15
-0.83
-3.28
-1.86
2.45
7.01
9.05
7.24
2.45
-2.69
-5.43
-4.42
-0.48
3.77
5.57
3.61
-1.12
-5.84
-7.54
-4.96
0.67
6.26
8.67
6.58
1.41
-3.55
-5.05
-2.06
3.75
8.83
9.89
6.00
-0.89
-6.96
-8.88
-5.79
0.11
4.95
5.37
0.63
-6.87
-13.11
-14.70
-10.94
-4.26
1.29
2.46
-1.28
-7.29
-11.58
-10.99
-5.22
2.98
9.55
11.47
8.51
3.46
0.22
1.68
7.76
15.60
21.20
21.75
17.34
10.93
6.40
6.50
11.12
17.29
21.12
19.86
13.51
4.87
-2.35
-5.89
-6.12
-6.19
-9.87
-19.06
-32.35
-45.12
-51.81
-49.11
-37.78
-22.43
-9.12
-2.05
-1.23
-2.68
-0.90
7.83
22.81
39.32
51.10
53.79
47.29
35.63
24.20
16.78
13.22
9.88
2.49
-11.10
-28.76
-44.78
-52.91
-49.85
-36.97
-20.03
-5.83
1.48
2.35
1.35
4.26
14.09
29.27
44.43
53.26
52.32
42.91
29.83
18.63
12.10
8.75
4.34
-5.32
-21.26
-40.10
-55.76
-62.80
-59.32
-48.30
-35.80
-27.48
-25.60
-27.69
-28.04
-21.57
-6.71
13.41
32.44
44.58
47.75
44.28
39.50
38.15
41.37
46.51
48.84
44.61
33.63
19.29
6.26
-2.00
-5.56
-7.89
-13.31
-24.51
-40.49
-56.36
-65.87
-64.64
-52.17
-32.62
-12.71
1.77
8.32
8.69
7.61
9.35
15.27
23.27
28.85
28.14
20.39
8.33
-3.23
-10.02
-10.84
-7.93
-5.20
-6.02
-10.85
-16.81
-19.75
-16.55
-7.12
5.04
14.83
18.30
14.56
6.29
-1.64
-5.38
-3.84
0.80
4.36
3.44
-2.34
-10.43
-16.42
-16.71
-10.94
-1.85
6.19
9.57
7.67
3.25
0.11
1.19
6.61
13.29
17.31
16.09
9.83
1.66
-4.22
-5.39
-2.11
2.64
4.80
2.02
-5.06
-13.31
-18.45
-17.75
-11.71
-3.45
2.86
4.32
1.24
-3.37
-5.75
-3.36
3.29
10.88
15.56
14.98
9.55
2.58
-2.15
-2.61
0.65
4.58
5.56
1.90
-5.34
-13.01
-17.19
-15.90
-10.07
-2.74
2.39
3.10
0.19
-3.35
-4.29
-0.69
6.35
13.44
17.00
15.12
8.64
1.07
-3.87
-4.36
-1.27
2.22
2.61
-1.50
-8.54
-14.93
-16.81
-12.56
-3.82
5.56
11.48
11.88
7.97
3.17
1.01
2.98
7.55
11.09
10.16
3.69
-6.11
-14.80
-18.16
-14.50
-5.69
3.90
9.84
10.04
5.69
0.62
-1.41
1.06
6.31
10.45
9.67
2.87
-7.46
-16.73
-20.37
-16.61
-7.57
2.24
8.47
9.13
5.70
2.07
1.58
5.06
10.30
13.20
10.49
2.01
-9.01
-17.70
-19.91
-14.88
-5.50
3.45
7.94
6.82
2.46
-0.90
-0.01
5.59
13.13
18.15
17.13
9.76
-1.02
-10.51
-14.75
-12.85
-7.29
-2.14
-0.70
-3.57
-8.18
-10.53
-7.84
-0.09
9.67
16.94
18.39
13.87
6.16
-0.52
-2.88
-0.76
3.03
4.61
1.40
-6.19
-14.58
-19.08
-16.80
-8.11
3.37
12.55
15.73
12.69
6.24
0.51
-1.34
0.74
3.92
4.53
0.38
-7.85
-16.49
-21.00
-18.73
-10.29
0.69
9.44
12.56
10.07
4.86
0.83
0.60
3.93
7.75
8.32
3.74
-4.98
-14.08
-18.95
-16.96
-8.87
1.58
9.72
12.35
9.56
4.38
0.71
0.82
4.05
7.15
6.47
0.43
-9.27
-18.33
-22.13
-18.27
-7.99
4.46
13.92
16.90
13.27
5.99
-0.62
-3.26
-1.33
2.98
6.44
6.94
4.92
3.17
5.07
12.14
22.61
32.07
35.83
31.40
20.27
7.35
-1.56
-3.07
2.07
9.18
12.25
7.57
-3.85
-16.61
-23.95
-21.49
-10.06
4.37
13.85
12.78
1.06
-16.09
-30.98
-37.88
-36.09
-29.58
-23.76
-21.63
-21.58
-18.38
-6.98
13.50
38.12
57.98
64.42
53.47
28.40
-1.96
-27.42
-41.18
-42.39
-35.60
-27.20
-21.22
-17.01
-10.33
3.24
24.67
49.37
68.81
74.83
64.16
40.45
12.42
-10.68
-24.14
-30.22
-35.73
-47.12
-65.73
-85.85
-97.18
-90.79
-64.49
-24.57
17.24
49.44
66.13
69.24
65.88
62.97
62.98
62.99
56.81
39.51
11.19
-22.21
-51.93
-70.57
-75.71
-71.04
-64.22
-62.28
-67.59
-76.22
-80.18
-71.68
-47.94
-13.56
21.68
47.94
60.36
61.16
57.95
58.64
66.24
77.27
84.08
79.65
61.79
34.36
5.07
-19.21
-36.23
-48.71
-61.65
-78.51
-98.05
-114.08
-118.60
-106.57
-78.82
-42.29
-6.74
19.79
34.60
40.75
43.91
48.02
52.45
52.36
41.86
18.47
-14.01
-46.58
-68.97
-74.65
-64.27
-45.15
-27.21
-17.84
-18.02
-21.67
-18.77
-0.13
37.75
90.19
145.48
188.97
208.48
198.79
163.01
110.32
51.71
-4.34
-53.34
-93.48
-122.81
-137.58
-133.33
-108.47
-67.54
-20.97
18.39
40.89
44.33
34.26
20.08
9.79
6.13
6.48
6.69
4.25
-0.13
-2.80
0.03
9.81
25.16
41.62
54.25
61.17
63.95
66.17
70.63
77.62
84.77
88.98
89.84
85.35
74.03
54.14
23.81
-17.55
-68.16
-123.80
-178.34
-224.68
-257.53
-271.58
-267.67
-252.90
-236.75
-225.96
-225.12
-231.06
-239.56
-247.97
-254.70
-257.44
-255.04
-246.66
-232.21
-212.93
-190.87
-168.87
-149.34
-132.88
-118.98
-106.62
-94.86
-83.53
-73.42
-65.12
-58.75
-52.95
-44.78
-31.26
-10.63
16.89
48.90
81.27
109.52
129.46
138.23
134.68
119.65
96.08
69.05
45.16
30.76
29.54
40.12
55.95
68.34
70.92
63.38
51.68
44.53
47.36
58.06
67.26
63.73
41.41
4.06
-35.43
-61.35
-62.44
-36.98
7.70
60.15
110.77
155.41
195.08
232.96
270.50
305.65
333.50
349.35
351.91
344.56
334.01
326.90
326.31
329.74
329.90
318.53
290.89
248.98
201.14
158.46
129.45
115.84
112.06
108.91
98.84
79.71
55.40
32.12
14.10
0.42
-14.24
-35.38
-64.05
-94.70
-117.42
-123.14
-108.80
-79.50
-46.21
-20.32
-8.21
-8.90
-15.97
-22.60
-25.93
-28.66
-36.71
-54.21
-79.25
-103.07
-113.88
-103.17
-70.59
-25.11
18.53
46.33
51.11
35.21
8.57
-17.12
-34.03
-41.08
-42.79
-44.92
-49.86
-54.49
-52.27
-38.00
-12.31
17.31
39.32
43.79
27.55
-3.80
-38.22
-63.19
-71.57
-64.36
-48.98
-34.38
-25.88
-22.67
-19.30
-10.27
5.36
22.47
32.49
28.35
9.00
-19.39
-46.24
-61.89
-62.52
-51.61
-37.09
-26.29
-21.77
-20.21
-15.31
-2.45
17.36
37.19
47.58
42.02
20.91
-8.24
-34.52
-49.06
-49.27
-39.48
-27.47
-19.45
-16.30
-13.56
-5.01
12.47
35.79
56.09
62.92
50.00
19.39
-18.63
-50.10
-63.80
-56.38
-33.45
-6.05
15.15
25.12
26.01
24.25
25.47
30.27
33.52
27.43
6.99
-25.64
-60.61
-84.40
-86.55
-65.07
-27.57
12.39
41.73
53.61
49.59
36.92
23.27
12.00
1.07
-13.95
-35.17
-58.87
-76.01
-76.87
-56.80
-19.97
21.61
53.55
65.69
56.65
33.56
7.72
-11.58
-21.18
-24.19
-26.35
-31.23
-37.15
-38.13
-27.89
-4.59
26.65
55.12
69.19
61.90
34.74
-2.62
-36.63
-55.93
-56.24
-41.50
-20.70
-2.72
8.25
13.88
18.89
26.66
35.84
40.44
33.56
12.14
-19.75
-51.77
-71.93
-72.62
-54.50
-26.17
0.69
17.26
21.74
19.31
17.86
22.52
32.10
39.53
36.32
18.14
-11.59
-42.61
-62.68
-63.63
-45.59
-16.51
12.12
31.04
37.41
35.10
30.99
30.08
32.01
31.19
20.68
-2.70
-34.84
-65.28
-81.93
-77.26
-52.41
-16.82
16.65
38.05
44.66
41.21
35.41
32.53
32.02
28.22
14.88
-9.71
-39.86
-64.49
-72.42
-58.56
-26.97
10.81
41.33
55.71
53.45
41.79
30.64
26.69
29.64
32.92
28.20
11.03
-15.40
-41.51
-56.23
-53.09
-33.69
-6.91
15.99
27.21
26.27
19.32
14.69
17.43
26.37
35.08
36.03
25.38
5.50
-16.38
-32.40
-38.73
-37.57
-35.17
-37.48
-45.92
-55.86
-58.95
-48.07
-22.08
12.55
44.34
62.65
63.01
49.35
31.59
19.64
17.69
21.80
22.41
10.43
-16.79
-52.73
-84.27
-97.94
-86.77
-53.86
-10.87
27.55
50.40
54.78
45.36
30.34
15.98
3.33
-10.98
-30.47
-54.44
-76.13
-85.53
-75.05
-44.53
-2.83
35.67
57.92
58.63
42.28
20.33
4.34
-0.20
4.14
9.13
6.56
-6.42
-25.28
-40.65
-43.73
-31.62
-9.33
13.14
26.23
26.07
16.57
6.58
4.54
13.32
28.25
39.98
40.21
26.98
5.96
-12.93
-21.63
-18.63
-9.50
-3.41
-7.50
-22.37
-41.34
-53.89
-51.50
-32.70
-4.23
22.44
37.09
36.18
24.45
11.72
7.00
13.27
25.76
35.08
33.14
18.26
-3.57
-22.38
-30.25
-25.80
-14.53
-5.16
-4.39
-12.96
-25.39
-33.18
-29.77
-14.66
6.22
23.65
30.22
24.70
12.84
4.08
6.12
20.43
40.86
56.95
59.79
47.24
25.24
4.32
-6.67
-5.46
2.83
9.43
7.38
-4.41
-20.62
-33.25
-36.59
-31.02
-22.79
-20.09
-27.91
-44.15
-60.20
-65.30
-52.59
-23.24
13.66
45.62
62.70
62.15
49.13
32.77
20.49
13.95
8.66
-2.06
-21.96
-47.95
-70.83
-79.63
-67.87
-37.50
1.37
35.50
54.77
56.61
46.43
33.24
23.99
19.62
15.30
4.38
-16.43
-43.56
-67.55
-77.48
-66.83
-37.36
1.23
36.00
56.91
60.95
52.68
40.22
29.92
22.81
14.85
0.63
-21.86
-48.28
-69.34
-75.17
-60.88
-29.63
8.15
39.70
55.97
55.32
43.49
29.37
19.56
14.80
10.43
0.30
-18.37
-41.91
-61.54
-67.76
-55.72
-28.22
5.27
33.28
48.04
48.81
41.46
34.07
31.87
34.01
34.42
25.98
5.53
-23.03
-50.14
-65.18
-62.16
-42.94
-16.28
6.75
18.63
19.03
14.28
12.75
19.42
32.17
42.83
42.10
25.38
-3.59
-34.39
-55.15
-58.88
-46.71
-26.58
-8.40
1.39
2.99
2.27
6.23
18.22
35.06
48.10
47.99
30.32
-0.90
-34.62
-58.22
-64.09
-53.34
-34.25
-16.92
-7.24
-4.11
-1.36
7.12
22.81
40.93
52.97
51.42
34.12
6.10
-22.54
-41.18
-43.82
-31.76
-12.76
3.45
10.53
9.00
5.45
7.58
18.69
34.81
46.75
45.70
28.87
1.65
-25.33
-42.10
-44.49
-35.76
-23.96
-16.68
-16.78
-20.88
-21.79
-12.94
7.10
33.00
54.89
63.37
54.79
33.59
9.79
-6.70
-11.94
-9.90
-9.41
-17.84
-35.80
-55.96
-67.14
-60.86
-36.34
-1.33
31.97
52.95
57.32
48.53
34.87
24.59
21.56
23.67
24.41
17.21
-0.16
-23.43
-43.73
-52.38
-46.31
-30.15
-13.73
-6.09
-9.64
-18.37
-21.71
-11.64
11.75
39.74
59.82
63.04
48.77
24.62
1.51
-12.56
-16.30
-14.77
-15.40
-23.06
-37.12
-51.39
-57.17
-48.02
-23.65
9.03
38.61
54.55
52.55
36.79
17.17
3.39
-0.63
1.45
1.81
-5.75
-21.24
-38.18
-47.74
-44.42
-29.51
-10.40
3.55
6.40
-1.42
-13.41
-20.45
-15.59
2.35
27.95
51.49
63.61
59.95
43.39
22.31
5.83
-1.43
-1.82
-2.77
-11.58
-29.80
-51.17
-64.88
-62.15
-42.08
-13.17
11.37
21.23
15.12
1.39
-7.32
-2.12
16.64
39.87
55.49
55.62
40.97
19.56
1.43
-7.19
-6.82
-3.38
-3.83
-12.04
-26.57
-41.23
-48.39
-42.99
-25.57
-2.73
15.68
21.44
12.90
-3.44
-16.02
-14.88
2.13
27.50
48.23
53.55
41.54
19.95
0.98
-6.43
-1.99
6.67
9.60
1.12
-16.70
-35.73
-46.95
-45.64
-33.64
-17.89
-6.14
-2.77
-6.70
-12.10
-11.63
-0.42
20.82
45.66
64.58
69.62
58.67
36.82
13.48
-2.89
-9.71
-11.50
-16.54
-30.79
-52.89
-73.70
-81.22
-67.84
-35.64
3.94
36.03
50.34
46.39
32.77
20.99
18.12
22.93
27.50
23.13
6.28
-18.92
-43.06
-56.90
-56.24
-43.73
-26.43
-11.48
-2.30
2.42
6.94
14.77
25.73
35.24
36.26
23.27
-4.02
-39.14
-70.80
-87.67
-83.72
-61.39
-30.32
-2.92
11.35
9.84
-3.09
-19.26
-31.43
-36.34
-34.83
-29.92
-24.12
-17.98
-10.19
1.09
16.23
33.16
47.71
55.42
53.56
43.31
29.92
20.96
22.85
37.67
61.74
87.16
105.30
110.94
104.46
90.91
76.91
66.83
61.34
58.00
53.62
46.32
36.25
25.13
14.39
4.03
-7.21
-20.42
-34.73
-46.65
-51.72
-46.80
-32.60
-14.25
0.81
6.37
0.19
-14.91
-32.58
-46.09
-51.13
-47.23
-37.28
-25.71
-16.49
-11.82
-11.69
-14.70
-19.25
-24.58
-30.79
-38.13
-45.57
-50.53
-49.96
-42.08
-28.18
-12.61
-0.98
2.78
-1.66
-10.65
-18.61
-20.97
-16.10
-6.13
4.75
12.72
16.27
16.91
18.36
23.88
34.15
46.21
54.28
52.87
40.40
20.88
2.74
-5.24
1.24
19.45
41.34
57.83
63.84
60.55
53.18
46.51
40.88
31.43
11.66
-20.98
-61.35
-96.86
-113.03
-101.23
-63.78
-14.10
28.93
49.56
42.08
12.73
-23.78
-51.89
-62.37
-55.45
-39.14
-23.50
-14.66
-11.99
-9.97
-3.13
9.12
20.96
23.33
9.83
-18.23
-50.74
-73.12
-73.60
-49.46
-8.78
33.34
61.93
68.64
54.72
29.04
2.80
-16.02
-25.22
-27.47
-26.82
-25.13
-20.76
-10.61
6.62
27.71
45.42
51.55
41.58
17.63
-11.49
-34.36
-42.51
-34.63
-17.27
-1.06
5.14
-0.84
-13.28
-22.08
-18.80
-1.90
21.98
41.22
45.62
31.92
5.81
-21.18
-37.81
-38.92
-27.69
-12.98
-3.81
-4.20
-10.93
-16.12
-12.43
2.18
23.00
41.04
48.07
41.06
23.65
3.62
-11.61
-18.92
-20.31
-20.39
-22.45
-25.66
-25.20
-15.56
4.94
31.62
54.28
61.50
46.60
11.79
-31.63
-67.64
-82.56
-71.11
-38.64
1.77
35.69
53.70
54.87
45.29
33.23
23.90
16.83
7.49
-8.25
-29.70
-50.14
-59.99
-52.38
-27.70
5.75
35.82
52.55
52.88
41.36
26.53
15.25
8.74
2.64
-8.98
-28.42
-51.16
-67.06
-65.80
-43.02
-3.90
38.06
66.75
70.65
48.05
7.99
-33.97
-62.63
-69.30
-54.52
-26.18
5.23
31.61
49.68
60.01
63.85
60.36
46.42
19.62
-18.05
-57.97
-86.72
-91.80
-68.14
-21.84
31.38
72.46
87.10
71.67
34.26
-9.57
-44.07
-59.73
-55.90
-39.01
-17.68
2.07
18.66
33.50
47.25
57.18
57.44
42.40
11.34
-28.94
-65.23
-83.41
-75.05
-42.03
3.67
45.32
68.88
69.02
50.55
24.77
2.85
-9.69
-14.64
-18.33
-26.27
-38.71
-50.03
-52.24
-40.28
-15.69
13.65
37.58
48.84
46.52
35.68
23.63
15.22
10.09
3.58
-9.28
-29.33
-51.09
-64.56
-60.56
-36.21
2.32
41.48
66.08
66.14
41.56
2.25
-36.42
-60.60
-63.72
-48.23
-22.78
2.96
22.97
36.52
46.10
53.48
56.82
50.86
30.57
-4.20
-45.98
-81.35
-96.50
-84.01
-46.97
1.90
45.94
71.85
74.86
59.64
36.37
14.80
-0.37
-10.38
-19.61
-31.00
-42.83
-49.21
-43.71
-24.05
5.24
34.15
52.01
52.98
39.18
19.47
4.17
-0.78
2.93
7.09
2.26
-16.23
-44.67
-71.97
-85.20
-76.36
-46.64
-6.02
31.56
54.64
58.96
48.27
31.02
14.73
1.86
-10.26
-25.76
-45.46
-64.43
-73.74
-65.63
-38.59
-0.33
34.60
51.75
44.29
16.75
-17.55
-43.72
-52.68
-44.28
-26.11
-8.31
2.46
5.54
6.20
11.24
22.78
36.15
44.40
45.08
41.15
39.97
49.30
73.01
108.68
148.53
178.30
186.34
168.02
127.55
75.85
25.26
-15.52
-43.60
-61.29
-72.28
-77.39
-75.38
-65.06
-46.70
-22.72
2.88
25.77
41.73
47.78
43.46
30.33
11.11
-11.35
-34.88
-58.27
-81.04
-102.96
-123.44
-141.12
-154.64
-163.47
-168.14
-170.17
-171.33
-173.10
-176.20
-180.52
-184.94
-187.86
-188.02
-184.78
-179.36
-171.70
-161.91
-150.31
-137.18
-122.81
-107.47
-91.78
-76.63
-63.13
-52.22
-44.85
-41.69
-42.95
-48.43
-57.23
-68.29
-80.43
-92.39
-102.82
-110.54
-114.50
-113.62
-109.08
-101.61
-92.10
-81.63
-71.36
-62.30
-55.28
-50.84
-49.14
-49.93
-52.37
-55.45
-58.14
-59.51
-58.83
-55.76
-50.45
-43.45
-35.69
-28.02
-21.37
-16.50
-13.84
-13.46
-15.07
-18.11
-21.79
-25.38
-28.09
-29.41
-29.16
-27.47
-24.79
-21.76
-19.13
-17.49
-17.19
-18.19
-20.12
-22.35
-24.14
-24.82
-23.89
-21.22
-17.09
-12.06
-6.91
-2.50
0.42
1.37
0.23
-2.67
-6.69
-10.94
-14.41
-16.15
-15.49
-12.08
-6.01
2.10
11.22
20.09
27.44
32.27
34.07
33.05
30.03
26.26
23.09
21.62
22.51
25.82
31.16
37.89
45.39
53.23
61.18
69.15
76.95
84.20
90.33
95.00
98.33
101.21
105.23
112.29
123.89
140.52
161.15
183.43
204.40
221.66
234.38
244.01
254.03
268.65
290.81
320.41
353.57
383.71
403.75
408.61
396.81
370.51
334.37
294.29
256.25
225.68
206.58
200.30
204.46
212.68
216.11
206.61
180.43
140.41
95.20
55.59
29.71
19.75
21.79
28.62
33.75
34.39
31.45
27.34
23.04
16.82
5.47
-12.49
-34.12
-51.82
-56.52
-42.84
-12.92
23.19
51.36
59.56
43.44
8.52
-32.37
-65.01
-80.08
-76.73
-61.65
-44.40
-32.15
-26.42
-23.74
-19.51
-12.28
-5.48
-5.57
-17.44
-40.12
-65.42
-81.22
-77.54
-52.13
-12.42
27.48
53.04
55.78
36.91
6.05
-23.99
-43.27
-48.85
-44.66
-37.63
-33.04
-31.49
-29.64
-23.78
-13.77
-4.42
-3.26
-15.79
-40.99
-70.18
-90.41
-90.70
-67.73
-28.00
15.13
47.46
60.16
53.30
34.60
14.82
2.22
-1.02
1.51
4.03
2.88
-0.96
-2.97
1.04
10.89
20.54
20.66
3.90
-29.84
-71.57
-106.52
-120.96
-108.96
-75.43
-33.60
1.42
19.39
19.06
7.12
-6.39
-13.62
-12.30
-5.40
2.29
7.99
12.77
20.26
33.10
49.66
63.36
65.38
49.41
16.04
-25.96
-62.81
-81.86
-77.58
-54.21
-23.32
2.10
13.93
12.33
4.09
-2.37
-2.48
1.81
3.70
-3.64
-22.08
-46.40
-66.50
-72.82
-61.78
-38.10
-12.64
3.19
3.36
-9.67
-26.72
-37.25
-35.26
-22.37
-6.11
5.03
6.88
2.09
-1.91
2.18
16.77
37.86
57.22
67.33
65.50
55.32
44.30
39.17
41.88
48.29
50.54
41.57
19.40
-11.11
-40.44
-59.15
-62.89
-54.70
-43.30
-38.08
-43.85
-57.72
-70.88
-73.70
-61.61
-38.09
-12.83
3.76
6.59
-1.17
-10.23
-11.06
0.24
19.49
36.80
42.52
32.71
11.53
-11.40
-26.52
-29.67
-24.05
-17.72
-18.40
-28.49
-43.26
-53.47
-50.71
-32.42
-3.76
24.89
43.10
45.50
34.04
16.19
0.35
-8.65
-11.72
-13.90
-20.40
-32.75
-47.13
-56.21
-53.34
-36.58
-10.24
16.93
36.12
42.68
38.18
28.83
21.46
19.45
20.88
20.21
12.11
-4.54
-24.98
-40.43
-42.44
-27.36
1.54
35.51
64.62
82.43
88.50
87.46
85.09
84.10
82.02
72.85
51.17
16.58
-24.35
-60.25
-80.21
-79.24
-60.78
-34.95
-13.03
-1.80
-0.67
-3.22
-2.41
4.36
12.94
14.93
2.95
-23.99
-58.51
-87.89
-100.20
-90.49
-63.11
-29.38
-1.63
12.88
14.75
10.71
8.41
11.26
16.14
15.71
3.47
-21.34
-51.81
-76.41
-84.69
-72.92
-45.92
-14.53
10.17
22.44
24.07
22.21
24.02
31.86
41.48
44.75
34.82
11.00
-19.68
-45.52
-55.95
-47.00
-23.01
5.82
29.03
41.05
43.27
41.87
42.98
48.34
53.76
51.84
36.75
8.64
-25.03
-52.56
-63.54
-54.12
-28.76
1.96
26.87
39.49
40.45
35.79
32.21
32.44
33.34
28.28
11.89
-15.44
-46.13
-68.65
-73.28
-57.31
-26.70
6.82
31.66
41.79
38.99
30.63
24.45
23.63
24.86
20.73
4.91
-23.05
-56.00
-82.18
-91.32
-80.31
-55.19
-28.18
-11.26
-9.83
-20.04
-31.58
-33.89
-22.24
-0.16
23.11
38.34
41.48
35.55
27.90
25.05
28.30
32.80
30.59
15.77
-11.13
-42.30
-66.04
-72.53
-58.92
-30.80
0.76
24.94
36.36
37.05
33.88
33.56
38.03
43.20
41.69
27.80
1.75
-29.19
-53.90
-62.82
-52.73
-28.25
0.67
23.88
35.83
37.57
34.82
33.46
35.38
37.03
31.89
15.08
-12.41
-42.72
-64.43
-68.27
-52.17
-22.50
9.01
31.38
39.78
37.40
32.57
33.14
41.40
52.60
57.91
49.86
27.21
-3.61
-31.71
-47.38
-47.33
-36.15
-23.46
-18.17
-23.36
-34.47
-42.27
-38.46
-20.79
5.42
30.21
44.57
45.29
36.38
26.07
21.47
24.09
28.91
27.53
13.38
-13.82
-46.87
-74.31
-86.14
-79.04
-58.10
-33.94
-16.94
-11.58
-14.43
-16.88
-10.95
5.39
26.47
41.99
42.88
26.73
-0.46
-27.40
-43.44
-44.14
-32.99
-18.77
-9.92
-9.55
-13.88
-15.08
-6.67
11.85
33.94
49.28
49.31
32.20
4.26
-23.17
-39.38
-39.57
-26.55
-8.39
6.60
14.39
16.83
19.28
26.13
37.05
46.23
45.70
30.24
1.49
-31.50
-56.22
-62.71
-48.45
-19.53
12.58
36.70
46.89
44.19
34.54
24.28
16.29
8.89
-1.84
-18.04
-37.08
-51.73
-53.74
-38.94
-10.56
21.12
43.10
45.61
27.09
-4.72
-36.44
-55.24
-54.68
-37.05
-11.14
12.98
28.92
36.32
39.11
41.33
43.43
41.53
30.19
6.98
-24.05
-52.77
-67.28
-60.15
-32.82
4.28
36.22
50.33
41.97
16.46
-13.96
-36.26
-42.60
-33.29
-15.10
3.38
16.46
23.64
28.15
33.04
37.83
37.96
27.52
3.96
-28.57
-59.48
-76.14
-70.27
-42.65
-3.58
31.54
49.07
43.34
18.95
-11.95
-35.80
-43.84
-35.34
-16.44
4.38
20.82
31.26
37.57
41.76
43.02
37.42
20.59
-8.06
-42.61
-71.59
-82.82
-69.71
-35.49
7.18
41.55
54.26
41.55
10.92
-22.73
-44.42
-45.88
-28.75
-2.56
20.84
33.16
32.88
24.41
14.12
6.19
0.75
-4.91
-12.88
-21.72
-26.25
-20.36
-1.52
26.21
52.54
65.19
55.71
24.28
-19.21
-59.08
-80.63
-76.56
-50.03
-12.68
21.18
40.89
43.61
34.03
20.36
9.26
2.76
-1.45
-6.65
-13.46
-18.48
-16.28
-3.72
16.64
36.16
43.83
31.96
1.08
-39.09
-73.36
-87.91
-76.66
-44.02
-2.56
32.93
51.77
51.54
37.54
18.84
3.19
-6.31
-11.19
-14.58
-17.73
-18.30
-11.94
3.97
26.96
48.96
59.44
50.68
22.56
-16.28
-51.74
-70.70
-67.07
-44.41
-13.61
12.97
27.44
29.53
25.23
21.98
23.56
27.71
27.77
17.42
-4.67
-32.55
-55.56
-63.61
-52.73
-27.28
2.14
24.25
32.76
29.03
20.36
14.84
16.17
21.34
22.82
13.69
-7.34
-33.92
-54.84
-59.89
-45.46
-16.70
14.91
37.31
43.68
35.25
19.76
6.46
0.89
2.04
3.83
-0.43
-13.19
-30.30
-42.90
-42.46
-26.06
1.36
28.91
45.25
44.18
27.90
5.44
-12.42
-18.85
-14.29
-5.24
0.30
-2.05
-10.32
-17.52
-16.28
-3.71
16.34
34.85
42.46
34.47
13.71
-10.93
-29.12
-34.42
-27.52
-15.28
-6.54
-6.97
-15.75
-26.14
-29.53
-20.67
-0.92
22.22
39.35
44.23
37.23
24.67
14.68
12.14
15.64
18.52
13.13
-4.16
-29.93
-54.96
-68.75
-65.11
-45.36
-17.51
8.14
24.31
29.96
29.84
30.44
35.29
42.28
44.68
35.33
11.35
-22.96
-57.28
-79.82
-82.99
-67.11
-40.02
-12.89
5.57
13.25
14.90
18.18
28.29
44.17
58.72
62.92
51.23
25.40
-5.87
-31.21
-42.35
-38.26
-25.12
-12.42
-7.39
-11.02
-17.80
-19.50
-10.61
7.95
28.78
42.08
41.00
25.76
3.55
-15.39
-23.49
-19.78
-9.91
-2.31
-2.84
-11.19
-20.94
-23.71
-14.43
5.13
26.79
40.27
38.64
22.25
-1.44
-21.88
-31.05
-27.35
-15.87
-4.79
-0.42
-3.60
-9.50
-10.97
-3.24
12.77
30.48
41.09
38.31
22.05
-1.36
-22.44
-33.57
-32.97
-25.25
-18.20
-17.89
-24.78
-33.16
-34.59
-23.08
0.90
30.01
53.75
63.89
58.72
43.62
27.60
17.89
15.95
16.93
13.10
-0.96
-24.49
-50.14
-67.69
-69.72
-55.93
-33.64
-13.82
-5.08
-8.84
-18.72
-24.47
-18.16
1.20
27.10
49.28
59.41
55.24
41.09
24.68
12.28
5.29
0.17
-8.53
-23.78
-43.13
-59.02
-62.50
-48.36
-18.63
17.45
47.32
60.89
55.16
35.42
12.11
-4.78
-10.61
-7.89
-3.62
-4.45
-12.17
-22.48
-27.70
-21.87
-4.86
16.85
33.37
36.83
25.86
6.40
-11.71
-20.27
-17.32
-7.89
-0.53
-1.86
-12.29
-25.36
-31.49
-23.72
-2.10
25.66
47.89
54.79
43.41
19.03
-7.83
-26.86
-32.89
-27.64
-17.52
-9.08
-5.00
-2.92
2.25
13.96
30.69
45.54
49.48
36.33
6.91
-30.09
-61.70
-76.44
-69.71
-45.66
-14.80
11.38
25.70
28.03
23.86
19.99
20.11
22.44
21.38
11.54
-7.97
-31.78
-50.51
-55.60
-44.14
-20.60
5.36
24.01
30.43
26.63
19.48
15.87
18.16
22.42
21.09
7.96
-17.06
-46.43
-68.14
-71.66
-53.61
-19.76
17.46
44.89
54.56
46.86
29.16
11.07
-0.82
-5.87
-8.31
-13.20
-22.14
-31.41
-34.05
-24.36
-2.27
25.52
48.18
56.28
46.68
24.50
0.41
-15.05
-16.93
-8.29
2.08
5.07
-3.36
-19.64
-34.69
-39.14
-28.92
-7.39
16.37
32.94
37.59
32.59
25.06
21.97
25.42
30.96
30.41
16.95
-10.05
-43.41
-71.11
-82.04
-71.53
-43.57
-8.75
21.14
38.62
43.33
40.65
37.21
36.33
35.89
30.22
14.40
-11.50
-40.85
-63.18
-69.37
-56.70
-30.68
-2.54
16.43
20.49
12.20
0.50
-4.57
2.37
19.21
37.66
48.07
44.57
28.21
6.02
-13.05
-23.05
-23.96
-20.99
-20.88
-27.29
-38.01
-45.96
-43.40
-26.94
-0.26
27.19
45.09
47.79
37.46
22.69
13.33
14.65
24.19
33.25
32.01
15.40
-13.43
-44.38
-65.41
-68.82
-55.05
-32.10
-10.71
1.53
4.04
2.65
5.06
15.51
31.73
46.33
51.53
44.10
27.70
10.88
2.02
4.38
14.07
22.11
19.39
1.82
-27.03
-57.35
-77.79
-81.19
-68.18
-46.66
-27.50
-18.65
-20.91
-27.94
-30.41
-21.92
-3.07
18.84
34.35
37.63
30.23
20.19
17.07
26.03
44.65
64.05
73.92
68.10
47.87
21.09
-2.18
-15.13
-17.38
-14.54
-14.36
-21.83
-35.91
-50.07
-56.11
-49.23
-31.14
-9.31
7.29
13.45
10.74
6.39
8.62
21.20
40.62
57.44
61.37
46.88
16.68
-19.08
-47.52
-59.16
-52.34
-33.63
-14.07
-3.37
-4.90
-14.48
-23.26
-23.13
-11.38
8.15
27.77
40.69
44.82
43.26
41.37
42.60
45.77
45.75
36.86
17.00
-10.15
-36.14
-52.03
-53.32
-42.69
-29.08
-22.96
-30.46
-49.47
-70.29
-80.65
-72.64
-47.41
-14.88
11.70
23.02
18.89
7.91
2.10
9.67
30.25
55.39
73.72
77.62
67.37
50.54
37.16
33.73
39.68
48.03
49.75
39.20
17.45
-8.21
-28.33
-36.58
-33.29
-25.11
-21.24
-28.00
-44.96
-64.84
-77.51
-75.72
-59.40
-35.86
-15.54
-6.20
-8.42
-15.64
-18.47
-10.50
7.78
29.59
46.21
52.34
48.97
42.31
39.24
42.62
49.22
51.67
43.05
21.41
-8.35
-36.58
-53.66
-55.13
-44.11
-29.68
-21.78
-25.74
-39.09
-52.83
-56.62
-44.83
-19.93
8.77
30.52
39.12
36.27
29.85
28.57
36.10
48.53
56.55
51.14
29.31
-3.45
-35.55
-55.21
-56.64
-42.98
-24.33
-11.94
-11.91
-21.85
-32.68
-34.25
-21.60
1.98
26.93
43.03
45.31
36.54
24.97
18.86
21.10
27.43
29.20
18.90
-4.82
-35.57
-62.08
-73.92
-66.88
-45.03
-18.32
2.86
12.97
13.61
11.69
14.43
24.72
39.22
50.35
50.82
37.90
15.21
-9.11
-26.43
-31.93
-26.72
-16.81
-9.66
-10.25
-18.29
-28.41
-33.07
-26.74
-9.02
14.86
36.55
48.88
49.38
41.31
31.34
25.52
25.52
27.66
25.15
12.40
-10.81
-38.13
-59.09
-64.42
-51.06
-24.13
5.48
26.73
34.07
29.91
22.11
18.36
20.89
24.77
21.36
4.39
-24.76
-56.37
-76.97
-76.71
-55.00
-20.90
11.74
31.85
36.51
31.30
25.42
25.13
29.50
31.34
22.45
-0.37
-32.13
-61.38
-75.96
-69.25
-43.37
-7.94
24.63
44.86
49.61
42.39
30.35
19.98
13.93
10.13
3.99
-8.01
-24.97
-41.00
-47.81
-39.37
-16.01
14.78
41.48
54.45
50.97
36.62
21.53
14.12
15.80
20.14
17.29
0.67
-28.01
-58.73
-78.38
-78.25
-58.98
-30.24
-5.19
6.84
5.13
-2.79
-6.43
1.05
18.96
39.89
54.30
55.99
45.21
27.94
12.04
2.83
0.53
0.69
-2.77
-13.60
-30.35
-46.36
-52.80
-43.50
-18.92
12.98
40.12
52.10
45.53
25.76
3.58
-11.03
-14.44
-10.79
-8.42
-13.83
-27.14
-41.66
-48.00
-39.96
-18.32
9.44
32.92
44.21
41.39
29.05
15.06
6.22
4.61
6.77
6.22
-2.35
-19.14
-38.12
-49.78
-46.45
-27.01
1.80
28.73
44.18
45.25
36.78
27.50
24.07
26.69
29.24
23.65
5.50
-22.38
-50.68
-68.24
-67.79
-49.61
-21.26
6.19
23.67
28.21
23.96
19.07
20.46
29.42
40.32
43.84
32.62
6.43
-26.66
-53.96
-64.96
-57.06
-36.88
-16.24
-5.27
-6.90
-15.71
-21.94
-17.80
-2.05
19.60
38.17
46.73
43.97
34.38
25.07
21.32
23.55
27.09
24.96
12.00
-11.51
-38.95
-59.96
-65.48
-52.65
-26.64
1.91
22.52
30.39
28.37
24.10
24.31
30.06
35.90
33.70
18.24
-8.66
-38.27
-59.36
-64.02
-51.65
-28.88
-5.89
8.91
12.91
10.03
7.74
12.17
24.12
38.03
44.96
37.75
15.75
-13.94
-39.79
-51.90
-47.29
-31.14
-13.39
-2.69
-1.52
-5.35
-6.09
2.19
19.26
38.29
49.62
45.93
26.49
-2.04
-28.72
-43.64
-42.68
-29.23
-11.78
1.13
5.70
4.72
5.11
12.72
27.82
44.04
51.85
44.12
20.83
-10.31
-37.58
-51.24
-48.26
-33.34
-15.69
-3.73
-0.59
-2.91
-3.56
3.39
18.45
35.70
45.93
41.77
22.36
-5.62
-31.28
-45.13
-43.84
-31.40
-16.24
-6.08
-3.60
-5.35
-4.52
4.21
20.63
38.26
47.51
41.00
18.21
-13.33
-41.46
-55.43
-51.20
-33.06
-10.71
6.35
13.81
14.24
14.35
19.93
31.50
43.26
46.40
34.31
7.21
-26.79
-55.29
-67.52
-59.68
-36.53
-8.54
13.79
25.13
27.25
26.58
29.11
35.83
41.60
38.34
20.45
-10.67
-45.89
-72.25
-79.32
-64.39
-33.74
0.65
27.19
39.98
40.72
36.20
33.06
33.30
32.93
25.23
5.73
-23.55
-53.63
-72.67
-71.95
-50.64
-16.52
17.62
40.27
46.37
38.99
26.34
16.40
12.30
11.19
7.23
-3.72
-20.46
-36.24
-42.25
-32.83
-9.20
20.36
44.06
52.29
42.39
19.76
-5.13
-22.33
-27.08
-21.47
-12.00
-5.10
-3.23
-3.53
-0.27
10.80
28.69
46.46
54.38
45.23
18.94
-16.41
-47.88
-63.82
-59.29
-38.21
-10.87
11.63
22.97
24.18
21.65
22.00
27.26
33.31
32.60
19.22
-6.58
-37.22
-61.13
-68.49
-56.50
-30.93
-3.01
16.60
23.23
19.95
14.70
14.75
22.00
31.70
35.39
26.21
3.50
-25.88
-50.87
-62.01
-56.40
-38.91
-19.07
-5.69
-2.09
-4.71
-5.65
2.06
19.82
41.96
58.64
61.24
47.25
22.02
-4.07
-21.06
-24.53
-17.64
-8.91
-6.97
-15.35
-30.26
-42.77
-44.12
-30.88
-6.97
18.52
36.47
42.64
39.55
34.21
33.15
38.07
44.65
45.26
33.83
9.95
-20.09
-46.09
-59.11
-56.06
-41.31
-24.12
-13.52
-13.41
-20.47
-26.54
-23.63
-8.93
13.34
34.24
45.17
42.56
29.82
14.84
5.22
3.72
6.89
7.43
-0.91
-19.00
-41.01
-57.09
-58.53
-42.57
-14.16
16.43
38.86
47.80
45.03
37.37
31.92
31.56
33.22
30.07
16.31
-8.49
-38.01
-61.97
-71.35
-63.16
-41.88
-17.14
1.47
9.23
8.49
6.21
9.09
19.18
32.53
41.56
39.68
25.47
4.05
-15.51
-25.12
-21.88
-9.33
4.84
13.09
12.06
4.23
-3.95
-6.11
0.02
11.42
21.57
24.18
16.70
1.88
-13.66
-23.06
-22.95
-15.02
-4.65
2.41
3.07
-1.54
-7.14
-9.14
-5.86
0.19
3.77
0.21
-11.42
-27.07
-39.32
-41.10
-29.59
-8.22
14.72
30.02
31.95
20.98
3.16
-13.09
-21.33
-20.04
-12.68
-4.73
0.07
2.04
4.95
12.67
25.75
39.78
47.09
40.98
20.01
-10.09
-38.70
-55.22
-54.57
-39.79
-20.40
-7.14
-6.00
-14.97
-25.65
-28.46
-18.31
2.44
25.61
42.01
46.82
42.32
35.95
35.40
43.54
56.72
67.03
67.28
55.31
35.30
15.40
2.86
0.05
3.17
4.58
-2.81
-21.35
-46.70
-69.80
-81.48
-77.53
-61.26
-41.86
-29.56
-30.01
-40.91
-53.30
-56.65
-44.84
-20.01
8.78
30.77
39.76
37.37
31.36
30.22
37.59
49.98
58.83
55.70
37.35
8.14
-21.90
-42.12
-46.66
-37.12
-21.02
-7.41
-1.67
-2.79
-4.50
0.27
14.27
33.45
48.47
49.72
32.82
2.05
-31.30
-54.27
-58.66
-44.78
-20.57
3.16
18.56
24.13
24.35
25.37
30.06
35.53
34.84
21.79
-4.23
-36.18
-61.88
-69.89
-55.60
-24.03
12.60
40.98
53.00
49.00
36.32
24.21
18.16
16.83
13.69
2.06
-19.71
-45.91
-65.86
-69.42
-52.71
-20.73
14.68
40.64
49.30
41.12
23.56
6.44
-3.49
-5.75
-5.28
-8.07
-16.37
-26.57
-31.20
-23.64
-2.85
24.78
47.64
54.54
40.47
9.84
-25.39
-51.09
-57.34
-42.78
-14.51
15.93
38.28
47.97
46.59
39.33
30.85
22.40
11.78
-3.62
-23.18
-41.41
-50.09
-42.85
-19.72
11.36
37.32
45.97
32.23
1.23
-33.79
-57.70
-60.58
-42.18
-11.47
18.50
37.21
41.32
34.90
25.62
19.34
16.60
12.88
2.51
-16.62
-40.20
-59.19
-64.37
-51.76
-25.20
5.21
28.26
37.17
32.62
21.58
12.75
11.34
16.06
20.21
16.18
0.44
-23.60
-46.81
-58.89
-53.87
-33.40
-5.93
17.83
30.36
30.67
23.93
17.49
15.94
18.13
18.21
10.02
-8.25
-31.66
-50.30
-54.49
-40.19
-11.71
20.07
43.01
49.40
39.46
20.45
2.26
-7.89
-8.82
-4.88
-2.20
-4.23
-9.25
-11.48
-5.13
11.15
32.35
48.78
50.87
34.37
3.27
-31.53
-57.14
-64.47
-52.35
-27.30
0.35
21.64
32.78
35.56
34.64
33.44
31.59
25.25
10.63
-12.30
-37.82
-56.22
-58.40
-41.02
-9.19
25.19
48.67
52.18
35.24
6.24
-21.86
-37.75
-36.72
-21.92
-1.64
15.60
25.44
28.72
29.10
29.16
27.87
21.17
5.30
-18.93
-44.46
-60.39
-57.57
-33.99
2.96
39.12
59.79
56.55
31.16
-5.39
-38.06
-54.56
-50.51
-30.39
-4.17
18.00
30.26
32.78
29.62
24.93
19.76
11.99
-1.13
-19.42
-37.81
-47.85
-42.21
-19.80
12.35
41.34
54.05
43.49
12.64
-26.65
-59.03
-72.36
-62.72
-35.54
-2.24
25.36
39.91
40.63
32.06
20.44
9.97
1.33
-6.95
-15.77
-23.28
-24.98
-16.63
1.96
24.82
41.48
41.80
21.55
-13.99
-51.44
-75.14
-74.59
-49.58
-10.36
27.27
49.40
50.09
33.22
9.42
-9.77
-17.45
-13.69
-3.72
6.39
13.54
18.77
25.19
34.23
42.95
44.72
32.98
5.99
-30.26
-63.36
-79.91
-72.17
-42.28
-1.52
34.97
55.09
55.03
39.89
19.77
3.99
-3.40
-4.71
-5.66
-10.54
-18.95
-25.66
-23.88
-9.91
13.71
38.60
54.36
53.70
36.30
9.31
-16.28
-31.02
-31.61
-21.81
-9.51
-1.94
-1.35
-4.05
-3.48
5.02
20.51
36.03
41.96
31.43
4.71
-30.06
-60.31
-74.85
-69.06
-46.74
-17.70
7.51
22.46
27.19
26.56
25.95
27.02
26.45
18.42
-0.87
-29.09
-57.21
-73.46
-69.42
-44.82
-8.20
27.11
49.44
54.11
44.71
30.00
18.43
13.55
12.57
9.28
-1.27
-18.88
-37.42
-47.94
-43.62
-24.09
4.02
30.13
45.16
45.98
36.75
25.85
20.68
23.19
28.83
29.52
18.70
-4.27
-33.05
-57.20
-67.60
-61.21
-42.61
-21.46
-7.23
-4.11
-8.94
-13.56
-9.96
4.69
26.11
45.43
54.36
49.95
36.22
21.46
13.06
13.09
17.12
17.17
6.84
-14.39
-39.86
-58.98
-62.66
-48.37
-21.54
7.19
27.42
34.29
30.37
23.30
20.63
25.21
33.39
37.60
31.19
12.70
-12.59
-35.28
-46.93
-44.72
-33.08
-21.34
-18.51
-28.08
-45.61
-61.01
-64.19
-50.83
-25.02
2.93
22.33
28.00
23.00
16.07
16.10
26.56
43.67
59.01
64.81
58.58
44.51
30.59
23.63
25.06
30.05
30.26
18.85
-5.23
-35.87
-62.57
-75.65
-71.39
-54.16
-34.11
-21.73
-22.24
-32.57
-43.34
-44.42
-30.85
-5.89
20.97
39.40
44.12
37.76
28.82
26.24
34.01
49.04
63.19
68.58
62.24
47.79
33.01
25.04
26.11
32.40
36.53
32.11
17.54
-2.85
-21.27
-30.87
-29.70
-21.96
-15.68
-18.25
-32.18
-53.26
-72.59
-81.41
-76.07
-60.24
-43.20
-34.65
-39.24
-53.61
-68.08
-72.16
-60.52
-36.27
-9.15
9.87
14.85
8.31
-0.65
-1.96
9.47
30.73
52.95
66.88
68.23
60.05
50.36
46.88
52.09
61.71
67.37
61.61
42.55
15.35
-10.43
-25.97
-28.03
-20.68
-13.14
-14.55
-28.73
-51.70
-73.42
-83.11
-75.18
-52.52
-24.86
-3.56
4.58
1.06
-5.88
-6.54
4.34
24.49
45.66
58.98
60.16
51.93
41.98
37.93
42.51
51.96
58.41
54.68
38.68
14.95
-7.76
-21.39
-23.05
-16.72
-11.12
-14.60
-30.42
-54.29
-76.28
-86.02
-78.36
-56.40
-29.71
-9.32
-1.57
-4.71
-10.59
-9.89
2.21
23.04
44.18
56.86
56.90
47.23
35.74
30.10
32.88
39.95
42.86
33.93
11.16
-20.05
-49.28
-66.36
-66.68
-53.60
-36.48
-25.44
-25.87
-35.21
-44.77
-44.93
-30.97
-6.01
20.75
39.28
44.54
39.05
30.89
28.51
35.44
48.21
58.56
58.52
45.09
22.25
-1.27
-16.87
-20.90
-16.51
-11.79
-14.70
-28.17
-47.82
-64.00
-66.99
-52.58
-24.69
6.62
30.40
40.50
38.43
31.40
27.30
29.60
35.16
36.41
26.38
3.35
-26.96
-53.86
-66.92
-61.49
-41.05
-15.42
4.45
12.26
9.35
3.17
2.44
11.62
28.15
43.99
50.47
43.44
25.92
6.28
-6.63
-8.71
-2.89
2.74
-0.10
-14.82
-37.32
-57.84
-66.13
-57.09
-33.55
-4.87
18.30
29.46
29.46
24.99
23.84
29.71
39.73
46.25
41.51
22.76
-5.33
-32.69
-48.94
-48.97
-35.64
-18.09
-6.55
-6.62
-16.07
-26.45
-28.21
-16.50
5.83
29.70
45.12
46.59
36.11
21.39
10.95
8.90
12.66
14.74
7.73
-10.62
-35.19
-55.63
-61.80
-49.33
-22.23
9.13
33.25
43.45
40.83
32.57
26.97
28.05
33.03
34.30
24.47
1.22
-30.03
-58.46
-73.15
-68.56
-47.28
-18.59
6.61
21.25
25.09
23.79
24.30
29.97
38.04
41.16
31.98
8.38
-24.14
-54.43
-70.94
-67.70
-47.25
-19.06
5.52
19.24
22.16
20.55
22.12
30.73
43.46
52.30
48.91
29.85
-0.32
-31.06
-50.94
-53.57
-40.78
-21.40
-5.94
-0.95
-5.45
-12.04
-11.96
-0.68
19.05
38.32
47.25
40.67
21.18
-2.16
-18.94
-23.25
-16.68
-6.95
-3.12
-9.87
-24.43
-38.18
-41.50
-29.57
-5.43
21.74
41.54
47.99
42.50
32.29
25.43
25.66
30.07
30.99
21.16
-1.58
-31.89
-59.17
-72.81
-67.69
-46.65
-19.04
4.37
16.94
19.02
16.91
18.20
26.67
39.60
49.26
47.35
30.31
2.20
-27.03
-46.35
-49.49
-38.27
-21.22
-8.64
-6.82
-14.40
-23.54
-24.93
-13.44
8.52
32.29
48.14
50.62
41.50
28.30
19.30
18.39
22.81
24.82
16.58
-4.54
-33.72
-60.48
-74.00
-69.01
-48.73
-23.20
-3.91
2.39
-2.65
-10.61
-11.55
-0.12
21.07
43.07
55.91
54.14
39.93
21.38
7.47
2.89
5.55
8.12
2.99
-12.93
-35.70
-56.02
-64.22
-55.54
-32.76
-4.82
18.03
29.64
30.73
27.65
27.84
34.65
45.01
50.99
44.62
23.06
-8.68
-39.74
-58.49
-58.50
-41.70
-17.07
4.50
15.90
17.25
14.71
15.67
23.51
34.91
41.58
35.36
13.64
-17.97
-47.84
-63.98
-60.34
-39.86
-12.97
8.09
15.69
10.65
1.05
-2.93
4.81
22.70
42.82
55.81
56.43
46.59
33.74
25.97
26.96
33.92
39.44
36.29
21.78
-0.36
-21.94
-34.95
-36.15
-28.84
-21.09
-21.22
-32.92
-52.85
-72.18
-81.34
-75.55
-57.84
-37.74
-26.16
-29.17
-44.21
-61.32
-68.66
-59.40
-35.86
-8.32
10.83
14.27
4.03
-9.82
-15.37
-5.91
16.17
40.96
57.22
58.96
48.83
36.10
30.73
37.36
52.82
68.24
74.65
68.17
52.10
34.68
23.82
22.31
26.22
27.15
17.29
-5.56
-36.11
-63.66
-77.66
-73.39
-54.58
-31.58
-15.91
-13.77
-22.91
-34.12
-36.90
-25.77
-3.28
21.61
39.09
44.29
39.70
33.16
32.33
39.57
50.51
56.48
49.85
28.85
-0.92
-28.99
-45.56
-46.60
-35.77
-22.27
-15.54
-19.84
-31.84
-42.59
-42.83
-28.68
-3.87
22.06
39.29
43.09
36.11
26.31
21.52
24.57
31.57
34.27
25.37
3.33
-25.95
-51.76
-64.15
-59.34
-41.73
-21.55
-9.16
-9.39
-18.86
-28.15
-27.49
-12.53
13.04
39.51
56.85
60.14
51.92
40.00
32.14
31.10
33.06
30.15
15.72
-10.92
-42.84
-68.63
-78.00
-67.29
-41.26
-10.59
13.81
26.10
27.77
25.61
26.44
32.55
39.99
41.01
29.15
3.77
-28.39
-55.96
-68.69
-62.56
-41.72
-16.31
3.25
11.53
10.50
7.45
9.85
20.47
34.98
44.77
41.85
23.86
-3.63
-30.17
-45.41
-44.89
-31.80
-14.79
-2.72
0.52
-2.32
-3.89
2.41
17.66
36.24
48.36
45.69
26.38
-3.34
-31.93
-48.51
-48.37
-35.03
-17.80
-6.15
-4.53
-9.91
-14.34
-10.25
4.86
26.14
44.44
51.39
44.18
27.34
9.71
-0.55
-0.99
4.20
6.91
0.32
-16.35
-37.02
-51.51
-51.37
-34.68
-7.16
20.49
38.34
41.98
34.23
22.51
13.86
10.79
9.94
5.13
-8.08
-28.55
-48.93
-59.37
-52.80
-29.29
3.41
33.30
50.06
49.85
36.67
19.45
6.77
2.04
2.38
1.30
-6.38
-20.48
-34.88
-40.83
-32.25
-9.80
18.72
41.90
50.27
41.03
19.33
-4.68
-21.17
-25.37
-19.31
-9.60
-2.77
-1.25
-2.11
0.37
10.26
26.17
40.89
44.77
31.19
1.20
-35.66
-65.51
-76.57
-65.02
-36.61
-3.30
23.02
36.10
37.35
33.29
30.20
29.89
28.55
19.98
0.47
-27.35
-54.49
-69.65
-65.17
-41.38
-6.76
25.87
45.69
48.69
38.91
25.13
15.43
12.37
12.00
7.14
-7.31
-30.01
-52.65
-64.10
-56.63
-30.61
4.92
36.33
51.99
47.58
27.80
3.27
-15.14
-21.56
-16.93
-6.90
2.49
8.63
13.21
20.08
30.90
42.76
48.52
40.65
16.39
-19.27
-54.22
-74.80
-71.96
-46.38
-8.32
27.18
46.84
45.33
26.53
1.28
-18.90
-26.91
-22.62
-11.46
0.06
8.03
13.27
19.15
28.34
39.43
46.54
42.46
22.94
-9.20
-44.52
-70.31
-77.06
-63.12
-35.44
-6.07
14.44
21.77
19.64
16.16
18.41
27.83
39.07
43.77
35.28
13.62
-14.47
-38.40
-49.61
-45.93
-32.20
-17.58
-9.75
-10.99
-16.63
-18.66
-10.67
7.84
30.32
46.93
49.32
35.89
12.33
-11.00
-24.83
-25.72
-17.20
-7.46
-3.75
-8.46
-17.23
-22.14
-16.51
0.78
23.86
43.21
50.26
42.47
24.24
4.63
-7.97
-10.50
-6.26
-2.79
-6.47
-18.70
-34.18
-44.10
-41.13
-23.76
2.25
27.18
42.11
43.88
35.83
25.42
19.01
17.90
17.96
12.36
-3.08
-26.85
-51.05
-65.50
-62.92
-42.95
-12.85
16.41
35.20
40.03
34.14
25.08
19.39
18.73
19.29
14.36
-0.54
-24.27
-49.31
-65.44
-65.09
-47.40
-19.25
8.63
26.85
32.40
29.28
25.62
28.13
37.57
48.34
51.39
40.07
14.19
-18.63
-46.68
-59.91
-54.73
-35.90
-13.19
3.68
10.32
9.22
7.34
11.14
21.71
34.11
39.64
31.58
9.41
-19.84
-44.80
-55.80
-49.45
-30.61
-8.98
5.97
10.34
7.28
4.27
8.24
20.50
36.02
45.70
42.11
23.79
-3.16
-28.08
-41.55
-39.87
-27.13
-11.88
-2.48
-1.91
-6.59
-9.05
-2.85
12.66
31.81
45.05
44.75
29.19
4.27
-19.80
-33.84
-34.17
-24.53
-12.81
-6.64
-8.39
-14.21
-16.51
-9.13
8.31
29.65
44.92
46.11
31.40
6.80
-17.32
-31.57
-32.49
-24.02
-14.39
-11.19
-16.34
-25.23
-29.32
-21.85
-2.15
23.17
43.50
49.86
39.70
18.43
-3.80
-17.50
-19.03
-11.88
-4.03
-2.67
-9.58
-19.92
-25.16
-18.55
0.50
25.36
45.51
52.09
42.65
22.55
1.75
-10.79
-11.96
-5.83
-0.88
-4.65
-19.01
-38.68
-53.87
-55.68
-41.12
-14.83
13.34
33.52
40.94
37.79
31.05
27.55
29.47
32.87
30.43
16.36
-9.19
-38.88
-61.43
-67.38
-54.01
-26.97
2.77
24.59
33.41
31.54
26.34
25.00
29.76
36.64
37.76
26.74
2.86
-27.21
-52.72
-63.97
-57.54
-37.97
-15.11
1.05
5.85
1.88
-2.86
-0.59
11.79
30.18
45.94
50.69
41.24
21.56
0.47
-13.24
-15.86
-10.43
-4.87
-6.70
-18.44
-35.42
-48.43
-48.71
-33.37
-7.10
20.10
38.42
43.26
37.27
27.86
21.89
21.55
22.73
18.41
3.41
-21.23
-47.84
-65.36
-65.33
-46.36
-15.14
16.55
37.84
43.52
36.29
23.89
14.61
12.01
13.54
12.50
2.91
-16.07
-38.68
-55.18
-57.31
-42.82
-17.37
8.69
25.49
29.10
23.09
16.15
16.44
26.80
43.19
57.38
62.13
55.38
41.42
27.93
21.35
22.75
27.45
27.71
17.53
-3.62
-29.82
-51.73
-61.48
-57.05
-43.73
-31.35
-29.13
-40.31
-60.10
-77.87
-83.28
-71.87
-48.20
-23.06
-7.75
-7.40
-18.18
-29.53
-30.51
-16.40
8.89
34.94
51.45
53.84
45.98
37.04
35.92
45.54
61.35
73.96
74.90
61.47
38.39
15.10
0.36
-2.61
2.03
5.40
-1.00
-19.98
-46.55
-70.13
-80.25
-72.09
-49.52
-22.65
-2.47
5.30
2.94
-1.33
1.09
13.72
32.77
49.56
55.86
48.76
32.46
15.54
5.69
5.22
9.74
10.87
1.36
-20.14
-47.60
-70.26
-78.07
-67.24
-42.26
-13.71
7.47
15.55
12.88
7.61
8.41
19.03
36.06
51.26
56.74
49.82
34.60
19.40
11.57
12.84
18.35
19.50
9.33
-13.09
-41.23
-64.24
-72.62
-63.19
-41.01
-16.36
0.70
5.72
1.88
-2.62
0.13
12.66
30.56
45.02
48.19
37.64
18.01
-1.79
-13.60
-14.55
-8.46
-3.24
-6.06
-18.61
-35.85
-48.49
-48.32
-32.98
-7.54
18.17
34.91
38.90
33.61
27.07
26.77
35.09
48.00
57.56
56.86
44.03
23.59
3.74
-8.10
-9.71
-5.04
-2.15
-8.35
-25.89
-50.04
-71.43
-80.88
-74.39
-55.61
-33.48
-17.52
-12.33
-15.35
-18.78
-14.74
-0.15
21.20
41.03
51.35
49.12
37.78
24.98
17.66
18.01
22.06
22.21
11.96
-9.78
-37.13
-59.88
-68.45
-59.00
-35.50
-7.69
14.02
23.81
23.20
19.16
19.30
26.98
38.97
47.50
45.03
29.03
4.05
-20.40
-35.00
-35.66
-25.73
-13.83
-8.88
-14.71
-27.73
-38.95
-39.33
-25.14
-0.49
25.09
41.83
45.13
37.71
27.37
21.61
23.02
27.57
27.39
15.92
-7.40
-35.92
-58.73
-66.40
-56.09
-33.13
-8.25
8.21
11.69
5.47
-1.88
-1.85
8.84
26.52
43.05
50.93
47.62
36.89
26.13
21.59
24.43
30.07
30.63
19.88
-2.96
-31.96
-57.22
-69.67
-65.97
-50.19
-31.91
-20.83
-21.65
-31.20
-40.64
-40.52
-26.67
-2.56
22.56
39.29
43.29
37.83
30.94
30.46
38.79
51.77
61.08
59.75
46.25
25.67
6.61
-3.69
-3.80
1.28
2.74
-6.58
-28.05
-55.53
-78.52
-87.29
-78.39
-56.26
-31.09
-13.06
-7.14
-10.45
-14.89
-12.03
1.45
22.05
41.54
52.20
51.15
42.05
32.35
28.67
32.41
38.93
40.05
29.16
5.40
-24.93
-51.25
-63.88
-59.33
-42.01
-21.94
-9.06
-7.81
-14.76
-21.16
-18.40
-3.52
18.92
39.43
49.33
45.51
32.12
17.65
9.57
9.86
14.06
14.06
3.33
-18.62
-45.27
-65.95
-71.38
-58.70
-33.20
-5.61
13.45
19.06
14.26
7.71
8.08
18.84
36.15
51.30
56.05
47.50
29.77
11.45
0.30
-1.01
3.41
5.63
-1.40
-19.12
-42.04
-60.23
-64.67
-52.12
-27.16
0.46
20.75
28.93
27.46
23.73
24.97
33.33
44.13
48.67
39.49
15.46
-16.64
-45.17
-59.59
-55.83
-38.33
-17.21
-2.52
1.11
-3.31
-7.74
-4.47
8.91
27.83
43.45
47.71
38.10
19.13
-0.35
-12.21
-13.51
-7.84
-2.66
-4.71
-15.67
-30.96
-42.32
-42.61
-29.89
-8.80
12.13
25.09
27.15
21.51
15.09
13.95
19.57
27.79
31.40
24.52
6.40
-17.51
-38.17
-47.55
-42.90
-28.08
-11.34
-0.72
0.18
-5.87
-11.88
-10.88
-0.22
16.97
33.51
42.53
41.14
31.99
21.31
14.80
14.11
15.68
13.08
1.12
-20.23
-44.93
-63.31
-67.09
-53.85
-28.70
-1.52
17.95
25.18
22.86
18.47
19.28
27.82
40.24
48.77
46.71
32.45
10.95
-9.01
-19.81
-19.37
-12.27
-7.25
-11.92
-28.06
-50.10
-67.73
-71.54
-58.21
-32.63
-4.99
14.52
21.37
18.70
14.68
17.14
28.56
44.39
55.86
55.30
40.60
16.92
-6.17
-19.95
-21.35
-14.34
-7.55
-8.90
-20.69
-37.94
-50.94
-50.80
-34.68
-7.65
20.04
38.51
43.53
38.35
31.00
28.91
34.22
42.35
44.96
35.08
11.68
-18.97
-46.12
-60.10
-57.30
-41.98
-23.78
-12.23
-11.48
-18.14
-23.67
-19.85
-3.91
19.52
40.90
51.22
46.93
31.88
14.71
3.63
1.69
5.22
6.53
-1.08
-18.61
-40.13
-55.62
-56.38
-40.14
-12.40
16.15
35.47
41.11
36.18
28.66
26.07
30.74
38.50
41.42
32.70
11.29
-17.06
-42.42
-55.91
-54.35
-42.05
-28.30
-22.12
-27.27
-39.79
-50.44
-49.94
-34.57
-8.31
19.30
38.58
45.12
41.81
36.47
36.42
43.75
53.73
57.81
48.89
25.85
-4.98
-32.86
-48.03
-46.86
-33.49
-17.42
-8.16
-9.90
-19.30
-27.69
-26.41
-12.04
11.33
34.36
47.69
46.97
35.09
20.08
10.10
8.49
12.12
13.42
5.41
-13.63
-38.30
-58.67
-65.37
-54.82
-31.29
-4.73
14.64
21.70
18.84
13.90
14.70
24.10
37.83
47.10
43.74
25.28
-3.01
-30.58
-47.03
-47.53
-35.01
-18.28
-6.63
-4.60
-9.64
-14.12
-10.44
3.89
24.12
40.71
44.50
32.03
7.93
-17.48
-33.66
-35.28
-24.86
-10.73
-2.06
-3.49
-12.50
-21.08
-20.77
-7.84
14.14
35.97
47.98
45.20
30.06
10.72
-3.72
-8.39
-5.08
-0.59
-2.03
-12.07
-26.65
-37.17
-35.49
-18.86
7.92
34.56
50.48
49.96
35.04
13.92
-3.73
-12.02
-11.63
-8.41
-9.19
-16.93
-28.51
-36.35
-32.93
-15.71
10.76
36.60
51.54
50.20
34.91
14.14
-2.25
-8.44
-5.53
-0.31
-0.74
-10.82
-27.82
-43.49
-48.76
-39.02
-16.93
8.92
28.74
36.90
34.58
28.43
25.85
30.08
37.99
41.95
34.40
12.75
-18.43
-49.12
-68.66
-70.93
-57.22
-35.22
-14.67
-2.29
1.38
1.45
4.74
14.95
29.84
42.15
43.79
30.74
6.14
-20.94
-40.01
-44.62
-35.66
-20.40
-8.10
-4.53
-8.82
-14.29
-12.93
-0.72
19.44
38.93
48.08
41.53
21.44
-3.48
-22.64
-29.17
-23.40
-12.13
-4.36
-5.86
-15.63
-26.59
-29.84
-20.05
1.03
25.37
43.18
48.25
41.42
29.74
21.90
22.98
31.46
40.32
41.35
30.00
8.33
-16.04
-33.94
-39.70
-34.16
-24.15
-18.42
-22.63
-35.79
-50.65
-57.64
-50.32
-29.11
-1.21
23.29
36.84
38.02
31.66
25.05
23.06
25.07
25.43
17.48
-1.77
-28.54
-53.40
-65.82
-59.71
-37.01
-6.72
19.59
33.77
34.95
29.09
24.77
27.59
36.75
45.47
45.31
31.46
6.00
-22.60
-43.74
-50.36
-42.40
-26.71
-12.93
-8.11
-12.69
-20.56
-22.99
-14.08
5.46
28.55
45.71
50.27
42.16
27.60
15.10
10.41
12.97
16.57
13.01
-2.56
-28.29
-55.83
-74.20
-75.66
-59.68
-33.62
-8.67
5.94
7.69
1.56
-3.51
-0.28
12.47
29.62
43.20
47.48
42.42
33.54
27.97
29.74
36.80
42.02
37.26
18.33
-11.91
-44.15
-66.87
-72.11
-59.52
-36.77
-15.53
-5.34
-8.69
-19.83
-28.35
-25.43
-8.80
15.89
38.70
51.10
50.89
42.98
35.85
36.15
44.49
55.45
61.10
56.11
40.91
21.73
6.79
1.58
5.85
13.91
18.08
13.16
-0.62
-17.77
-30.81
-34.59
-29.41
-20.97
-17.32
-24.32
-42.08
-64.37
-81.67
-86.28
-76.68
-58.68
-42.32
-36.47
-43.55
-57.84
-68.53
-65.93
-47.21
-18.30
9.43
25.57
26.62
17.75
9.40
10.86
24.78
45.85
64.39
72.33
67.95
56.70
47.43
46.82
55.44
67.55
74.76
71.01
55.96
35.24
17.07
7.61
7.51
11.52
11.59
1.54
-19.14
-44.47
-64.87
-72.30
-64.91
-48.44
-33.36
-29.25
-39.26
-58.02
-74.52
-78.24
-65.11
-39.85
-13.06
4.92
9.71
5.27
0.85
5.02
20.34
41.77
59.75
65.88
57.73
40.12
22.07
11.40
10.16
13.76
14.05
4.55
-15.10
-38.16
-54.20
-54.67
-37.69
-9.30
19.71
39.42
45.61
41.34
34.28
31.36
34.47
39.13
37.60
23.82
-2.15
-33.20
-58.36
-68.13
-59.64
-37.70
-12.35
6.71
15.03
15.06
13.70
17.28
27.12
38.27
42.34
32.74
9.04
-21.69
-48.03
-60.06
-54.24
-35.33
-13.40
1.65
5.44
1.07
-3.35
-0.05
13.29
31.92
46.59
48.81
36.01
13.09
-10.23
-24.60
-26.36
-18.99
-10.78
-9.60
-17.96
-31.40
-40.90
-38.38
-21.44
4.77
30.13
45.10
45.39
34.18
19.59
9.57
7.44
10.06
10.37
2.07
-15.89
-37.81
-54.00
-55.97
-41.38
-15.61
11.03
28.57
32.73
26.83
19.04
17.52
25.27
38.79
50.39
53.18
45.21
30.46
16.37
9.09
9.76
13.80
13.39
2.31
-20.14
-47.89
-70.67
-79.45
-71.18
-50.86
-28.91
-15.71
-16.06
-26.32
-36.80
-37.47
-23.73
0.75
26.59
44.01
48.47
42.95
35.34
33.37
39.47
49.61
55.66
50.61
32.94
7.96
-15.04
-27.82
-27.92
-19.97
-13.14
-15.91
-30.96
-53.26
-72.32
-77.88
-65.61
-39.49
-9.67
13.21
23.58
23.57
20.92
23.49
34.15
48.87
59.13
57.21
40.94
15.40
-9.74
-25.31
-27.75
-20.53
-11.90
-9.69
-16.61
-28.39
-36.28
-32.35
-14.55
11.68
35.89
48.20
44.55
28.62
9.46
-3.81
-7.19
-3.52
-0.25
-4.23
-17.02
-33.48
-44.24
-41.32
-22.87
5.29
32.28
47.83
47.42
34.16
16.57
3.40
-1.30
0.18
1.22
-4.23
-17.24
-32.81
-42.23
-38.39
-20.26
6.10
29.97
41.49
36.67
19.16
-1.88
-16.78
-20.59
-14.86
-6.25
-1.90
-4.98
-12.89
-18.96
-16.82
-4.62
13.77
30.48
38.11
33.83
20.96
6.86
-1.33
-1.06
4.34
7.74
2.37
-13.59
-35.55
-54.48
-61.51
-53.03
-32.60
-9.14
7.81
13.32
9.52
3.70
3.91
13.68
30.19
46.09
54.02
51.08
40.35
28.73
22.52
23.32
26.92
25.92
14.12
-9.27
-38.20
-62.53
-72.87
-65.47
-44.30
-18.70
1.53
11.15
11.85
10.41
13.69
24.02
37.22
44.89
39.49
19.07
-10.75
-39.27
-56.00
-56.12
-42.52
-23.87
-9.56
-4.37
-6.22
-8.17
-3.13
11.13
30.08
44.77
46.70
32.88
8.13
-17.49
-33.77
-35.72
-25.96
-12.58
-4.11
-4.41
-10.49
-14.58
-9.39
7.13
29.81
48.71
54.53
43.69
20.53
-5.06
-22.92
-27.91
-22.21
-13.32
-9.19
-13.34
-22.65
-29.35
-25.93
-9.96
13.98
36.23
47.18
42.28
24.56
2.75
-13.50
-18.86
-14.63
-7.14
-3.38
-6.20
-12.44
-15.10
-7.93
9.86
31.84
47.25
46.30
25.67
-8.56
-43.50
-65.43
-65.95
-46.04
-14.89
15.18
34.39
39.60
34.44
25.34
17.21
10.93
3.57
-7.85
-22.72
-35.81
-39.46
-28.07
-2.75
28.04
51.67
56.83
39.50
5.51
-32.14
-58.79
-64.87
-50.23
-22.97
5.25
24.94
33.22
33.49
31.31
30.07
28.32
20.93
3.84
-21.85
-48.55
-64.85
-61.57
-37.41
-0.17
36.17
57.79
57.64
38.51
10.81
-12.66
-23.20
-20.14
-9.39
0.82
5.23
4.71
4.93
11.56
26.05
43.41
54.24
50.14
28.54
-5.05
-38.95
-60.92
-64.16
-50.07
-27.07
-5.76
6.90
10.56
10.50
13.50
22.70
34.95
42.50
37.56
17.21
-13.59
-44.06
-62.87
-63.75
-48.60
-26.26
-7.36
1.36
0.18
-4.35
-4.03
5.61
22.48
38.78
45.63
38.20
18.80
-4.30
-21.36
-26.53
-21.03
-12.00
-7.96
-13.56
-26.46
-38.46
-40.35
-27.46
-2.65
24.88
44.57
50.23
42.94
29.91
19.78
17.18
20.23
22.14
15.65
-2.06
-26.74
-49.16
-59.77
-53.75
-33.84
-8.91
10.92
19.43
17.34
11.52
10.25
18.05
32.95
47.14
51.60
41.31
18.44
-8.63
-29.31
-36.66
-31.06
-19.44
-11.25
-12.78
-23.13
-34.71
-38.03
-27.19
-3.93
23.12
43.34
49.72
42.60
28.82
17.04
12.25
13.17
13.32
5.67
-12.30
-36.26
-56.78
-64.04
-53.25
-27.40
4.12
30.09
42.82
41.58
31.89
21.62
16.24
15.61
14.74
7.48
-8.93
-31.15
-50.67
-58.17
-48.60
-24.31
5.91
31.07
43.61
42.84
34.59
27.02
25.41
28.91
31.18
24.65
5.59
-22.61
-50.41
-66.78
-64.89
-45.84
-17.94
7.61
22.61
25.66
22.09
19.76
23.79
33.21
41.33
40.01
24.73
-2.03
-31.47
-52.71
-58.49
-48.81
-30.53
-13.45
-4.80
-5.50
-10.07
-10.65
-1.92
15.25
33.96
45.27
43.26
28.42
7.55
-10.01
-17.74
-15.25
-8.20
-4.68
-10.11
-23.65
-38.36
-45.07
-37.57
-16.57
10.39
33.06
43.86
41.75
32.42
24.20
22.68
27.53
32.56
29.69
14.05
-12.54
-41.95
-63.46
-69.20
-58.36
-37.37
-16.43
-4.18
-3.11
-8.56
-12.08
-6.67
8.99
29.57
46.44
52.76
47.50
35.72
25.31
21.81
24.77
28.14
23.81
6.91
-20.53
-49.65
-69.10
-70.84
-54.56
-28.05
-2.97
11.30
12.55
6.22
1.74
6.27
20.39
38.00
50.14
50.53
39.32
22.88
9.59
4.89
8.07
12.57
10.31
-3.38
-26.51
-50.76
-65.48
-63.39
-44.58
-16.24
10.88
28.07
32.95
29.95
26.48
28.07
34.56
39.85
36.06
18.56
-10.41
-41.86
-63.97
-68.25
-53.54
-26.39
2.31
23.04
32.12
32.68
31.48
34.35
42.29
50.82
53.23
45.06
27.28
6.35
-9.16
-13.58
-7.55
2.23
6.46
-1.37
-21.04
-44.94
-61.76
-62.67
-46.22
-20.03
2.85
10.65
-1.07
-27.16
-55.85
-75.59
-81.04
-75.08
-66.11
-62.07
-65.28
-71.14
-71.54
-60.28
-37.28
-8.79
16.20
31.17
35.74
35.48
38.49
50.40
70.97
94.11
111.23
115.79
107.01
90.39
74.74
67.50
70.54
78.92
83.66
76.67
55.46
25.00
-4.79
-24.76
-31.55
-29.38
-27.61
-34.71
-52.90
-76.44
-94.81
-98.95
-87.16
-66.40
-48.58
-43.81
-54.14
-72.21
-85.24
-82.46
-61.44
-29.60
0.05
16.14
15.34
4.16
-5.63
-3.68
12.82
37.67
59.90
70.33
66.66
54.47
43.59
41.79
50.47
64.32
74.71
75.01
64.42
48.26
34.28
28.34
30.94
37.00
39.22
32.39
16.31
-3.95
-20.72
-28.36
-26.41
-19.76
-16.10
-21.50
-36.61
-55.83
-70.38
-72.92
-62.04
-43.57
-27.36
-22.00
-29.80
-45.17
-57.60
-57.89
-43.41
-19.79
2.08
12.35
7.80
-6.28
-19.33
-21.86
-11.30
6.22
19.43
18.58
1.50
-24.50
-46.31
-52.42
-39.40
-13.83
11.40
24.37
20.88
6.65
-6.58
-7.85
6.46
30.67
53.70
65.61
63.15
51.27
39.68
36.58
43.97
56.99
67.09
67.48
57.12
41.05
27.00
20.80
22.73
27.25
26.45
14.62
-8.22
-35.74
-58.27
-68.13
-63.87
-51.14
-39.85
-38.70
-49.95
-67.68
-81.12
-80.59
-63.18
-34.71
-6.41
11.45
15.30
9.80
4.62
8.20
22.49
42.09
57.86
62.58
55.29
41.81
30.73
28.09
33.78
41.61
42.99
32.12
9.60
-17.54
-39.40
-48.30
-43.13
-29.90
-18.37
-16.75
-27.05
-43.53
-55.87
-55.02
-38.37
-11.28
15.90
33.58
38.30
34.05
29.10
30.48
39.58
51.41
57.86
53.12
37.26
16.39
-0.84
-8.40
-6.55
-1.66
-2.55
-15.22
-38.93
-65.78
-84.65
-87.26
-72.89
-49.09
-27.78
-18.75
-24.10
-37.14
-46.23
-41.64
-21.17
8.50
35.82
50.91
51.01
41.64
32.77
32.66
43.17
59.05
71.52
73.80
65.06
50.63
38.49
34.31
38.09
44.41
46.01
38.18
21.65
2.29
-12.22
-16.92
-12.48
-4.81
-2.05
-10.05
-28.87
-52.21
-70.60
-76.18
-67.06
-48.79
-31.57
-24.78
-31.60
-47.06
-60.77
-63.04
-50.87
-30.09
-11.94
-6.45
-16.16
-34.18
-48.02
-47.15
-29.39
-2.20
21.63
31.40
24.76
8.96
-3.71
-3.32
12.23
36.27
57.61
67.24
63.32
51.86
42.42
42.36
52.57
67.07
76.81
75.15
61.61
41.73
23.79
13.83
12.18
13.31
9.50
-4.47
-27.84
-53.61
-72.08
-76.26
-66.12
-48.87
-35.28
-33.85
-45.82
-64.09
-77.09
-75.49
-57.43
-29.67
-3.75
10.56
10.80
2.93
-2.76
1.95
18.42
40.57
58.71
65.52
60.35
49.31
41.11
41.79
50.99
62.11
66.31
57.75
37.13
11.44
-9.82
-19.84
-18.44
-12.19
-10.55
-20.43
-41.78
-67.12
-85.17
-87.09
-71.61
-45.93
-21.68
-8.60
-9.13
-17.37
-23.03
-17.90
-0.74
22.27
41.55
49.93
46.78
37.92
31.42
32.24
39.03
44.96
41.74
24.85
-3.29
-33.87
-55.93
-61.94
-51.70
-32.41
-14.74
-7.19
-11.39
-21.55
-28.06
-23.21
-5.71
18.56
40.16
51.56
51.27
44.14
37.84
37.78
43.69
49.79
48.36
34.58
9.78
-18.61
-40.81
-49.77
-45.06
-33.18
-23.92
-25.05
-37.66
-55.30
-67.52
-65.68
-48.09
-21.00
4.92
20.60
23.57
18.96
15.80
21.05
35.18
51.78
61.13
56.05
36.20
8.71
-15.63
-28.14
-26.72
-16.74
-7.57
-7.01
-16.55
-30.34
-38.79
-34.41
-16.32
8.88
30.82
41.39
39.15
29.82
22.21
22.56
30.69
39.98
41.43
29.14
4.24
-25.22
-48.36
-57.12
-50.54
-35.16
-21.22
-16.85
-23.40
-34.70
-40.88
-34.34
-14.29
12.53
35.69
47.14
45.50
36.42
28.49
27.67
33.56
39.61
37.07
20.68
-7.60
-38.76
-61.07
-66.02
-52.71
-28.40
-4.52
9.39
10.63
4.24
-0.73
3.12
17.00
35.16
48.58
50.56
40.70
25.05
12.29
8.31
12.73
18.98
18.12
4.30
-21.34
-50.63
-72.28
-77.70
-65.61
-42.87
-20.73
-8.84
-9.99
-18.88
-25.70
-22.07
-5.89
17.50
38.81
50.47
50.93
45.02
40.31
42.00
49.46
56.63
55.58
41.61
16.48
-11.96
-33.71
-42.00
-36.83
-25.18
-17.28
-21.03
-37.35
-59.40
-76.21
-78.75
-65.14
-42.05
-21.17
-12.67
-19.33
-34.79
-47.29
-46.66
-30.31
-4.80
17.93
27.48
21.26
5.90
-6.75
-6.70
8.38
32.06
53.01
61.81
56.22
42.34
30.51
29.09
39.68
56.55
70.35
73.63
65.10
50.05
36.77
31.43
34.41
40.33
41.43
32.19
12.69
-11.13
-30.83
-40.21
-38.90
-32.66
-30.03
-37.46
-55.16
-76.35
-90.64
-89.77
-72.49
-45.51
-20.06
-5.72
-5.22
-13.04
-19.06
-14.74
1.74
24.61
44.36
53.52
51.00
42.42
36.15
37.95
47.36
58.06
61.92
54.05
35.84
14.39
-1.57
-6.66
-2.05
5.03
5.35
-7.19
-31.61
-59.89
-80.83
-85.89
-73.77
-51.25
-29.43
-17.62
-18.27
-25.80
-30.36
-23.77
-4.47
21.49
44.01
54.67
51.36
39.01
26.09
19.22
19.16
20.54
15.61
-0.54
-26.00
-52.08
-67.51
-64.52
-43.18
-11.65
18.06
36.33
40.54
35.55
29.87
29.80
35.46
40.66
37.05
19.52
-9.81
-41.68
-64.06
-68.10
-52.69
-24.84
4.01
23.79
30.52
27.54
22.30
21.27
25.64
30.52
28.22
13.36
-12.89
-42.39
-63.79
-68.47
-55.24
-31.06
-7.22
6.79
8.21
2.13
-2.19
2.69
17.81
37.11
51.21
53.14
42.49
25.51
11.23
5.79
8.78
13.57
11.35
-3.28
-28.48
-55.33
-72.26
-71.05
-51.35
-20.88
8.62
27.40
32.47
28.35
23.35
23.93
30.60
37.49
36.23
21.48
-5.13
-34.97
-56.63
-61.97
-50.52
-29.79
-11.19
-3.71
-9.02
-20.76
-28.43
-23.82
-5.80
18.94
40.01
49.31
45.84
35.88
28.89
31.65
44.20
60.17
70.75
70.00
58.21
41.46
27.74
22.16
24.11
27.92
26.45
15.35
-4.16
-25.74
-41.52
-46.55
-41.71
-33.46
-30.26
-37.78
-55.33
-75.71
-88.98
-88.01
-72.72
-50.47
-32.17
-26.10
-32.97
-45.45
-52.38
-45.38
-23.85
4.69
28.99
40.55
38.52
29.82
24.54
29.76
45.27
63.94
76.17
75.46
62.03
42.54
25.88
17.91
18.10
19.88
14.73
-2.42
-29.48
-57.62
-75.44
-75.18
-57.01
-29.24
-3.97
9.26
8.60
0.25
-5.61
-1.16
14.50
35.14
51.47
56.62
50.01
37.32
26.53
22.89
25.77
29.05
25.07
9.44
-15.86
-42.86
-61.65
-65.71
-55.64
-38.99
-26.22
-24.92
-35.14
-49.39
-56.80
-49.51
-27.33
2.17
28.05
42.04
43.01
36.89
32.38
35.24
44.61
53.51
53.34
39.23
13.37
-15.72
-37.50
-44.92
-38.01
-23.51
-10.97
-7.35
-12.99
-21.73
-24.64
-15.61
4.73
29.13
47.68
53.22
45.15
29.48
14.95
7.82
8.22
10.25
5.91
-9.66
-34.45
-59.88
-75.13
-73.08
-54.35
-27.25
-3.30
8.83
7.94
0.45
-3.84
2.14
18.44
38.11
51.37
51.51
38.65
19.47
3.16
-3.99
-1.98
3.19
3.50
-5.94
-23.36
-40.74
-48.12
-39.33
-15.70
14.19
39.05
50.49
47.03
34.15
20.42
12.29
10.48
10.10
4.42
-10.12
-30.71
-48.82
-54.69
-42.94
-15.96
16.74
43.04
54.04
48.23
31.53
13.48
1.65
-2.36
-3.12
-7.55
-19.83
-37.76
-53.45
-57.66
-45.31
-18.81
12.71
37.98
49.30
46.16
34.95
24.50
20.54
22.29
23.16
15.43
-4.38
-32.30
-58.23
-71.12
-64.93
-42.05
-12.20
12.66
24.41
22.67
14.31
8.76
12.16
23.77
36.54
41.66
33.93
15.14
-6.82
-22.51
-26.31
-19.59
-9.88
-6.32
-14.21
-31.65
-50.17
-59.38
-52.80
-31.62
-4.11
18.97
30.22
29.54
23.65
21.49
28.51
43.15
57.70
62.97
53.73
31.96
5.84
-14.78
-23.83
-22.08
-16.26
-14.91
-23.30
-40.07
-57.67
-66.40
-59.83
-38.53
-10.04
15.20
29.62
32.53
29.87
29.82
36.96
48.86
57.29
53.28
33.02
0.90
-32.30
-54.84
-59.98
-49.10
-30.55
-14.75
-8.84
-13.00
-20.91
-23.68
-15.22
3.96
26.73
43.13
46.08
35.41
17.97
3.46
-1.57
2.52
8.95
9.21
-1.10
-18.86
-35.04
-39.86
-28.70
-4.89
22.02
41.24
46.07
36.84
19.99
4.07
-4.97
-6.73
-6.00
-9.32
-20.58
-37.80
-53.32
-57.56
-44.63
-16.35
17.80
44.94
55.40
47.78
29.23
10.92
1.32
1.63
5.98
6.16
-2.50
-17.47
-30.57
-32.97
-20.77
2.52
27.73
44.95
48.53
39.44
24.09
10.33
3.11
1.97
1.70
-4.12
-19.14
-41.14
-62.33
-72.81
-65.92
-42.19
-9.58
20.15
37.72
41.00
35.32
29.25
28.50
31.94
32.59
22.80
0.32
-28.68
-52.20
-58.79
-44.08
-13.38
20.87
45.27
51.64
40.06
17.82
-4.99
-20.43
-25.74
-23.52
-18.91
-16.09
-15.60
-14.23
-7.33
7.32
26.84
43.34
47.26
32.64
1.60
-35.24
-63.27
-71.00
-55.93
-25.58
6.85
29.73
38.75
37.72
34.51
34.75
37.90
37.72
27.00
3.08
-29.06
-58.63
-74.21
-69.68
-47.43
-17.04
9.53
23.75
24.37
17.37
11.97
15.00
26.81
40.91
47.83
40.83
20.35
-5.71
-26.26
-33.31
-26.39
-12.56
-1.95
-1.58
-11.14
-23.52
-29.34
-22.69
-4.52
18.17
36.49
44.51
42.08
34.12
27.20
25.57
28.71
31.81
28.65
15.18
-7.56
-33.06
-52.12
-57.61
-48.68
-31.86
-18.10
-16.67
-29.50
-49.50
-64.34
-63.84
-46.18
-19.25
4.14
13.96
9.02
-2.74
-9.61
-3.60
14.93
37.97
55.25
60.44
54.44
43.97
36.90
37.34
43.38
48.62
45.99
31.78
7.86
-18.89
-39.76
-48.45
-44.43
-33.49
-24.94
-26.68
-40.29
-59.38
-72.51
-69.57
-47.87
-14.22
18.43
38.27
41.21
32.83
24.34
25.33
37.94
56.13
70.05
72.60
63.68
49.78
39.28
37.12
41.96
47.44
46.42
35.27
15.85
-5.47
-21.44
-27.64
-24.86
-18.61
-16.17
-22.68
-37.95
-56.13
-68.71
-69.44
-58.37
-42.31
-31.19
-32.14
-44.85
-61.34
-70.61
-65.19
-45.81
-20.92
-1.75
4.12
-2.98
-15.43
-22.99
-18.67
-2.40
19.28
37.34
45.22
42.30
33.98
28.24
30.88
41.89
55.33
62.67
57.71
40.60
18.10
-0.04
-6.80
-2.01
7.43
11.83
4.55
-13.68
-35.04
-49.23
-49.48
-36.39
-17.28
-1.61
4.48
1.25
-5.56
-8.90
-4.77
5.70
17.39
24.64
24.40
17.59
8.03
0.11
-3.66
-3.76
-3.15
-5.53
-13.33
-26.06
-39.91
-49.17
-48.81
-37.27
-17.70
3.29
18.82
25.54
25.38
24.12
27.32
36.33
46.77
50.79
41.91
19.71
-8.90
-32.84
-42.77
-36.27
-19.06
-1.40
8.05
7.35
1.92
0.52
9.03
26.09
43.37
50.42
41.02
17.25
-11.18
-32.38
-38.62
-30.42
-15.59
-4.12
-2.22
-8.85
-16.85
-17.80
-7.47
11.37
30.40
40.49
36.70
20.87
0.29
-16.38
-23.75
-22.03
-16.07
-11.90
-13.10
-18.69
-23.99
-23.58
-14.72
0.91
17.77
29.34
31.36
23.86
11.04
-1.29
-8.83
-11.03
-11.09
-13.79
-22.45
-36.53
-51.34
-60.33
-58.49
-45.39
-25.81
-7.62
2.18
1.21
-6.98
-14.86
-15.16
-5.05
12.22
29.13
38.23
36.50
27.20
18.07
16.72
26.04
42.36
57.63
64.23
59.63
48.13
38.16
37.13
46.73
61.83
73.62
74.99
64.93
49.09
36.13
32.24
37.41
45.53
48.31
40.57
23.49
4.16
-8.89
-10.58
-2.36
8.90
15.40
13.44
6.01
1.03
6.44
24.45
49.22
68.95
72.09
53.54
17.86
-21.95
-50.06
-54.45
-32.07
10.65
61.32
107.28
139.99
156.50
158.24
148.05
128.23
99.21
61.10
15.63
-32.40
-75.94
-108.77
-127.68
-133.86
-131.35
-125.42
-119.62
-114.29
-106.69
-90.95
-64.58
-30.18
0.92
18.10
13.68
-13.30
-58.11
-110.81
-159.29
-193.22
-206.78
-200.04
-177.68
-147.55
-117.32
-92.32
-74.42
-63.26
-58.38
-59.74
-67.49
-80.29
-95.27
-108.32
-115.89
-116.63
-112.55
-108.47
-109.44
-118.19
-133.30
-150.39
-164.15
-171.04
-168.35
-156.85
-139.90
-120.76
-100.56
-77.80
-50.05
-16.15
22.19
60.02
93.37
119.66
138.51
151.44
160.60
167.50
172.47
174.90
173.10
166.76
157.22
147.23
139.83
136.64
137.00
138.31
137.45
132.57
124.32
115.14
107.85
103.98
102.58
100.64
94.66
82.66
65.41
46.28
29.27
17.08
9.87
5.45
0.73
-6.35
-15.66
-25.04
-31.65
-33.90
-32.33
-29.19
-27.02
-26.90
-27.79
-27.08
-22.18
-12.20
1.31
15.01
25.60
31.58
34.14
36.44
41.74
51.51
64.54
77.45
86.49
89.39
86.54
80.52
74.62
70.81
68.68
65.62
58.45
45.25
26.61
5.32
-15.20
-32.51
-46.12
-56.99
-66.25
-73.89
-78.51
-78.30
-72.47
-62.08
-49.57
-37.42
-26.79
-16.97
-6.16
7.04
22.34
37.48
49.22
55.02
54.42
49.44
43.89
41.22
43.21
48.39
51.71
46.77
29.52
1.01
-32.48
-62.41
-83.37
-95.59
-103.86
-114.44
-130.86
-151.26
-168.88
-175.11
-163.86
-132.26
-84.74
-30.64
19.60
58.41
83.15
95.32
98.57
96.47
91.70
85.96
81.20
79.17
80.54
83.53
83.24
72.78
45.29
-3.10
-71.12
-150.87
-229.22
-291.13
-324.48
-324.21
-293.96
-244.30
-188.44
-137.53
-97.35
-68.55
-49.00
-36.47
-30.46
-31.17
-37.27
-44.37
-45.60
-34.51
-8.82
27.62
65.73
95.00
108.72
107.15
97.49
90.06
92.98
107.90
129.30
147.64
154.50
147.26
129.99
110.73
96.78
90.90
90.51
90.27
86.01
77.44
68.32
63.45
64.78
69.05
68.54
55.08
24.92
-17.78
-61.68
-93.00
-101.97
-87.70
-58.55
-27.65
-6.24
1.59
-0.13
-3.21
-1.08
7.01
15.90
18.31
9.93
-7.35
-26.15
-37.58
-36.58
-24.99
-10.80
-4.01
-11.04
-30.97
-55.66
-73.82
-76.90
-63.62
-40.44
-17.63
-3.65
-0.63
-3.95
-6.12
-2.22
6.60
12.93
7.69
-14.30
-50.40
-90.31
-120.52
-130.70
-118.32
-89.15
-54.05
-22.72
1.21
21.13
43.19
71.58
104.22
132.90
150.71
154.94
150.10
146.28
152.24
172.27
203.25
235.96
259.92
268.88
263.21
249.36
235.61
226.86
222.17
215.12
197.58
164.54
117.39
63.22
11.85
-28.90
-56.72
-74.65
-88.17
-101.15
-112.96
-118.76
-112.98
-93.43
-64.30
-35.97
-20.85
-27.65
-56.79
-99.21
-139.70
-163.21
-160.86
-132.74
-88.71
-43.37
-9.48
7.86
12.29
12.03
12.46
12.46
4.96
-17.67
-56.67
-103.88
-144.99
-166.51
-164.09
-145.62
-126.95
-122.87
-138.63
-166.98
-192.59
-201.49
-189.77
-166.35
-147.96
-149.59
-175.86
-218.74
-261.98
-289.01
-291.65
-273.03
-244.04
-215.03
-190.02
-161.85
-118.35
-51.14
37.08
131.88
211.62
257.07
260.14
227.31
176.02
125.55
88.54
66.92
54.13
41.71
26.71
14.55
15.88
39.25
84.13
139.26
187.51
214.38
214.82
195.05
167.88
144.76
129.73
118.12
100.98
71.60
30.89
-11.91
-43.62
-53.91
-40.92
-12.19
19.03
40.60
47.15
41.83
33.26
29.55
33.16
39.33
39.63
27.39
2.83
-26.02
-46.92
-49.91
-32.73
-2.05
29.82
51.47
57.74
51.54
40.94
33.39
30.91
28.92
19.67
-2.30
-35.45
-70.49
-94.48
-97.20
-76.71
-40.28
-0.95
29.10
44.06
46.21
43.12
41.81
44.04
45.07
37.04
14.40
-21.30
-60.69
-90.44
-99.75
-85.95
-55.71
-21.60
4.50
17.10
19.02
18.40
22.75
33.89
46.49
51.28
40.94
15.21
-17.85
-45.63
-57.32
-49.85
-29.20
-6.92
6.56
7.71
1.43
-2.43
4.26
22.53
45.16
60.68
60.09
42.33
15.19
-8.96
-20.01
-15.68
-2.54
8.18
7.06
-7.75
-29.23
-45.37
-46.02
-28.67
0.14
28.47
45.80
48.71
42.14
35.39
35.74
43.60
52.08
51.45
35.42
5.50
-28.97
-55.47
-65.21
-58.18
-43.54
-35.10
-43.88
-71.77
-109.59
-141.42
-152.62
-137.57
-102.62
-62.29
-31.22
-16.18
-13.04
-10.53
1.79
26.48
56.47
79.65
86.73
77.36
60.58
49.22
52.14
68.72
89.06
99.58
90.90
63.17
26.29
-5.39
-20.91
-18.67
-7.38
-1.15
-11.77
-41.60
-81.53
-115.41
-128.28
-114.25
-79.31
-37.53
-3.16
16.98
26.06
33.63
48.24
71.31
95.88
110.57
106.57
83.04
48.07
14.27
-7.91
-15.71
-14.93
-15.94
-27.07
-49.06
-73.91
-89.13
-84.72
-58.93
-19.46
20.72
50.22
64.79
68.38
69.30
74.05
82.81
89.17
84.18
62.16
24.96
-17.91
-53.66
-72.59
-73.07
-62.11
-51.21
-49.72
-59.22
-72.42
-77.44
-64.91
-33.62
8.43
48.37
75.47
86.33
85.74
82.43
82.79
86.65
87.42
76.20
47.79
4.76
-42.57
-80.69
-99.37
-96.72
-80.01
-61.40
-51.39
-52.95
-59.92
-61.04
-46.95
-16.10
23.77
59.78
81.01
84.19
74.87
63.08
56.74
56.76
56.84
47.80
23.82
-13.13
-53.30
-83.78
-95.19
-86.55
-65.80
-45.36
-35.42
-38.25
-46.95
-49.84
-37.47
-8.53
28.77
61.27
78.08
76.49
63.02
48.78
42.22
44.09
47.22
41.24
19.54
-16.10
-55.79
-86.68
-99.88
-95.26
-81.18
-69.84
-70.95
-86.76
-111.73
-136.40
-152.82
-158.10
-154.86
-147.58
-139.14
-128.70
-111.92
-84.44
-45.44
0.76
46.10
82.34
105.61
118.53
129.12
147.31
179.59
225.02
274.68
315.19
331.65
316.91
275.02
219.37
167.05
130.40
111.43
102.65
93.35
76.80
54.28
35.04
25.52
26.47
32.70
36.23
31.00
16.20
-3.63
-21.40
-31.88
-34.82
-35.15
-38.97
-50.57
-69.54
-90.29
-104.69
-106.38
-94.55
-75.09
-57.28
-48.94
-52.15
-61.96
-69.02
-64.93
-47.32
-21.34
3.18
17.62
19.79
14.86
12.11
19.41
38.46
63.75
86.05
97.88
98.06
92.29
89.34
95.55
111.40
131.24
146.58
150.99
143.39
127.41
109.43
94.47
81.57
65.11
38.95
0.72
-45.40
-89.65
-121.09
-133.06
-127.14
-112.99
-103.48
-107.98
-127.08
-151.65
-167.39
-162.43
-133.77
-89.26
-43.51
-10.13
5.24
6.80
4.96
9.29
22.53
39.44
50.62
48.72
33.62
12.72
-3.59
-8.19
-1.57
8.40
11.16
-0.30
-25.49
-56.62
-83.26
-98.39
-102.33
-102.26
-107.80
-124.88
-151.73
-179.41
-196.75
-197.12
-182.84
-164.91
-157.07
-168.07
-195.78
-227.51
-246.75
-242.53
-216.28
-181.55
-156.71
-154.59
-175.19
-204.83
-223.09
-212.95
-168.32
-95.43
-8.34
78.25
155.52
219.86
271.70
312.74
343.75
364.06
372.91
370.98
361.66
350.07
341.12
336.88
334.84
327.33
304.10
256.74
183.60
93.03
1.63
-71.59
-113.21
-121.30
-105.76
-82.35
-64.02
-54.93
-50.48
-43.37
-31.16
-19.68
-19.86
-40.20
-79.79
-127.16
-166.61
-187.61
-191.58
-190.75
-200.56
-228.47
-268.44
-303.53
-315.24
-294.60
-247.85
-194.07
-155.08
-144.33
-160.29
-187.95
-207.02
-201.63
-166.99
-110.26
-46.18
9.74
46.80
61.67
57.47
41.07
20.10
1.10
-11.20
-13.57
-3.83
19.75
58.04
110.04
171.23
233.14
284.56
315.22
320.14
302.48
272.46
242.68
222.18
212.47
207.76
199.07
180.41
152.32
121.25
95.18
78.50
69.73
63.22
53.44
38.77
22.19
8.69
1.46
-0.64
-2.48
-9.61
-24.52
-44.63
-63.14
-72.53
-68.75
-53.59
-33.95
-18.15
-11.44
-13.32
-18.30
-19.68
-13.85
-2.46
9.14
15.61
15.44
12.04
11.35
17.72
30.53
44.04
50.53
44.75
27.07
3.56
-17.02
-27.50
-25.68
-14.86
-1.69
7.61
10.34
8.35
6.27
8.47
15.98
25.48
30.51
24.62
4.66
-27.56
-65.62
-100.96
-126.23
-137.90
-136.81
-126.98
-113.23
-98.80
-84.55
-69.17
-50.61
-27.18
2.26
38.46
81.61
130.65
182.05
229.44
264.70
280.27
271.55
237.83
181.99
109.16
25.95
-59.52
-137.57
-197.68
-230.74
-231.83
-201.96
-148.17
-81.74
-15.64
37.83
68.86
72.29
49.44
8.69
-36.10
-69.55
-79.75
-62.33
-21.45
32.54
87.57
133.68
165.11
180.03
178.93
163.15
134.40
95.08
48.83
0.73
-43.37
-77.76
-97.78
-100.49
-84.82
-51.81
-5.11
48.61
100.04
138.77
156.05
147.75
115.62
66.44
9.36
-47.45
-98.82
-142.79
-179.29
-208.71
-231.43
-248.26
-261.02
-272.78
-286.88
-305.63
-329.05
-354.79
-378.26
-394.58
-399.96
-392.40
-371.88
-339.74
-297.89
-248.20
-192.25
-131.46
-67.57
-2.86
59.84
117.45
167.26
207.44
237.40
257.71
269.82
275.48
276.27
273.34
267.36
258.69
247.64
234.64
220.33
205.53
191.01
177.35
164.84
153.47
143.08
133.44
124.43
116.03
108.46
101.98
96.74
92.73
89.74
87.39
85.39
83.61
82.19
81.69
82.72
85.56
90.01
95.25
99.96
102.76
102.81
99.43
92.64
82.83
70.30
55.02
36.47
13.99
-12.34
-41.61
-71.94
-100.63
-125.16
-143.79
-156.08
-162.96
-166.14
-167.60
-169.30
-172.95
-179.41
-188.10
-196.25
-198.91
-190.51
-167.29
-129.50
-82.26
-34.43
5.92
33.66
48.04
51.92
49.54
44.24
37.41
29.04
18.96
7.90
-2.81
-11.87
-19.02
-25.26
-32.31
-41.96
-55.02
-71.11
-88.85
-106.68
-123.53
-139.24
-154.33
-169.58
-185.33
-200.99
-214.82
-224.29
-227.16
-221.59
-206.92
-183.81
-153.95
-119.65
-83.34
-47.22
-13.16
17.31
42.97
62.90
76.66
84.52
87.52
87.37
86.12
85.65
87.17
90.89
95.98
100.96
104.22
104.64
101.84
96.00
87.66
77.19
64.60
49.49
31.39
10.44
-12.19
-34.31
-53.26
-66.82
-73.96
-75.22
-72.30
-66.95
-59.96
-50.59
-36.78
-16.23
12.82
51.04
98.30
153.91
215.69
279.64
339.09
385.31
409.90
408.04
380.86
335.26
281.06
227.16
178.59
135.72
96.39
58.73
23.25
-7.22
-29.52
-42.82
-49.99
-56.53
-67.49
-83.80
-100.58
-108.47
-98.16
-65.59
-14.77
43.54
96.97
137.03
161.74
173.92
176.73
169.86
149.35
111.17
55.74
-9.88
-73.75
-123.91
-153.36
-162.29
-156.67
-144.70
-132.80
-123.74
-116.94
-110.30
-101.98
-91.51
-79.59
-67.63
-57.08
-48.80
-43.13
-40.17
-40.15
-43.32
-49.57
-57.83
-65.85
-70.72
-70.02
-63.03
-51.21
-37.72
-25.94
-18.08
-14.41
-13.56
-13.62
-13.38
-12.75
-12.52
-13.62
-16.24
-19.60
-22.23
-22.65
-20.06
-14.83
-8.55
-3.68
-2.79
-7.56
-17.95
-31.92
-46.13
-57.29
-63.54
-65.06
-63.73
-61.96
-61.14
-61.03
-59.80
-54.97
-44.41
-26.98
-2.58
27.87
62.38
97.85
129.86
153.43
164.36
160.84
144.23
118.94
91.03
66.46
49.64
42.32
43.65
50.87
60.29
68.04
70.74
66.01
52.18
29.63
0.42
-32.31
-65.23
-95.79
-122.69
-145.78
-165.55
-182.38
-195.96
-205.30
-209.12
-206.28
-196.23
-179.08
-155.45
-126.10
-91.80
-53.32
-11.85
30.49
70.48
103.95
126.54
134.81
127.30
105.25
72.66
35.56
0.82
-25.14
-37.76
-35.20
-18.91
6.75
35.50
60.92
78.28
85.85
84.99
79.22
72.49
67.67
65.82
66.48
68.62
71.59
75.39
80.43
86.92
94.37
101.84
108.43
113.88
118.64
123.28
127.85
131.61
133.60
133.57
132.70
133.50
138.73
149.80
165.90
184.15
200.75
212.50
217.85
216.83
210.29
198.95
182.93
161.99
136.17
106.33
74.19
41.86
11.24
-16.78
-42.58
-67.70
-94.11
-123.11
-154.23
-184.85
-210.68
-227.20
-231.43
-223.27
-205.74
-184.01
-163.54
-148.32
-139.68
-136.43
-135.89
-135.31
-132.90
-128.18
-121.48
-113.16
-103.13
-90.89
-76.12
-59.35
-42.28
-27.32
-16.67
-11.24
-10.22
-11.46
-12.46
-11.50
-8.26
-3.66
0.83
4.13
6.14
7.66
9.92
13.88
19.71
26.87
34.58
42.23
49.37
55.26
58.43
57.02
49.64
36.55
20.07
4.10
-7.52
-12.58
-11.49
-6.73
-1.34
2.52
4.33
4.88
5.20
5.48
4.72
1.13
-6.93
-19.86
-36.36
-53.63
-68.35
-78.05
-82.02
-81.43
-78.53
-75.35
-72.75
-70.30
-66.90
-61.81
-55.26
-48.34
-42.29
-37.79
-34.53
-31.59
-27.96
-23.19
-17.67
-12.46
-8.76
-7.39
-8.39
-11.03
-14.22
-16.87
-18.27
-18.21
-16.90
-14.68
-11.88
-8.67
-5.13
-1.33
2.58
6.22
9.03
10.39
9.91
7.62
4.14
0.41
-2.73
-4.98
-6.79
-9.03
-12.39
-16.88
-21.69
-25.67
-27.98
-28.62
-28.48
-28.76
-30.33
-33.24
-36.80
-40.03
-42.35
-44.03
-46.07
-49.72
-55.74
-64.02
-73.53
-82.87
-90.98
-97.70
-103.67
-109.96
-117.37
-126.10
-135.93
-146.61
-158.20
-171.08
-185.47
-201.08
-216.89
-231.60
-244.29
-254.90
-264.09
-272.63
-280.49
-286.34
-287.72
-281.97
-267.41
-244.22
-214.63
-182.29
-151.14
-124.05
-101.87
-83.32
-65.67
-46.03
-22.69
4.16
32.45
59.35
82.35
100.47
114.44
126.35
138.73
153.93
173.87
199.57
230.45
263.27
292.14
309.89
311.21
295.71
269.37
242.96
227.71
230.38
250.12
279.02
305.87
321.06
320.19
304.51
278.89
248.63
217.32
186.40
156.25
127.49
101.63
80.80
66.50
58.53
54.56
51.16
45.26
35.59
23.18
10.72
1.23
-3.38
-2.98
0.78
5.40
8.53
8.82
6.19
1.66
-3.17
-6.85
-8.59
-8.51
-7.47
-6.66
-6.94
-8.43
-10.57
-12.48
-13.55
-13.72
-13.36
-12.90
-12.36
-11.35
-9.34
-6.11
-2.00
2.16
5.50
7.54
8.35
8.45
8.38
8.41
8.37
7.82
6.41
4.17
1.63
-0.36
-1.10
-0.46
0.98
2.20
2.26
0.80
-1.78
-4.63
-6.93
-8.30
-8.90
-9.23
-9.81
-10.95
-12.72
-14.97
-17.38
-19.50
-20.87
-21.21
-20.44
-18.77
-16.54
-14.07
-11.54
-8.94
-6.15
-2.99
0.63
4.67
8.83
12.60
15.27
16.22
15.17
12.45
8.95
5.77
3.79
3.32
4.09
5.49
6.98
8.34
9.55
10.68
11.61
12.10
11.87
10.83
9.17
7.40
6.07
5.62
6.11
7.26
8.59
9.65
10.27
10.64
11.34
13.01
16.05
20.31
25.09
29.39
32.44
34.08
34.90
36.01
38.49
42.92
49.13
56.35
63.68
70.51
76.80
82.99
89.71
97.52
106.75
117.43
129.45
142.52
156.20
170.06
183.58
196.73
210.30
226.03
246.10
272.02
303.68
338.92
373.85
403.93
425.13
434.68
431.35
415.43
388.43
353.07
312.92
271.91
233.59
200.40
173.16
151.16
132.95
116.87
101.72
87.00
72.78
59.61
48.43
40.07
34.99
33.05
33.33
34.38
34.53
32.37
27.05
18.36
6.50
-8.14
-25.29
-44.97
-67.34
-92.48
-120.22
-149.90
-180.64
-211.42
-241.43
-270.20
-297.71
-324.33
-350.74
-377.91
-406.56
-436.62
-466.67
-493.82
-514.31
-524.73
-523.33
-510.69
-489.42
-462.97
-434.37
-405.39
-376.66
-348.23
-320.27
-293.26
-267.89
-244.60
-223.42
-204.07
-186.07
-168.96
-152.26
-135.44
-118.03
-99.78
-80.81
-61.57
-42.73
-24.82
-8.18
7.04
20.71
32.61
42.48
50.12
55.64
59.32
61.67
63.10
63.89
64.07
63.60
62.49
60.88
59.09
57.50
56.50
56.31
56.89
57.94
58.98
59.62
59.74
59.68
60.11
61.75
64.98
69.57
74.73
79.55
83.37
85.96
87.21
86.72
83.54
76.47
64.81
49.06
30.92
12.58
-4.34
-19.45
-33.36
-46.78
-59.69
-71.33
-81.00
-89.03
-96.96
-106.54
-118.10
-129.57
-136.87
-135.90
-124.71
-104.68
-80.03
-55.86
-35.90
-21.30
-10.97
-3.03
3.91
10.05
14.91
17.95
19.15
19.37
19.79
21.32
24.15
27.72
31.12
33.81
35.72
37.04
38.41
40.57
43.95
48.44
53.48
58.29
62.72
66.88
70.43
73.46
76.24
78.92
81.50
84.01
86.63
90.71
97.00
103.88
109.70
113.33
114.74
115.29
117.00
121.15
128.45
135.04
131.27
108.01
59.67
-13.87
-107.36
-212.59
-321.19
-424.54
-520.24
-613.43
-709.71
-812.82
-923.13
-1037.48
-1150.56
-1256.16
-1345.59
-1387.05
-1356.86
-1239.32
-1033.26
-755.15
-434.95
-106.88
179.58
414.43
600.24
738.71
831.64
881.43
892.60
875.82
841.67
800.39
763.03
732.80
704.74
671.41
626.89
569.53
503.30
435.94
376.90
336.09
315.70
309.61
306.64
294.79
264.32
210.29
133.55
41.35
-52.87
-136.32
-200.44
-244.62
-275.43
-304.50
-343.47
-399.06
-469.79
-545.92
-615.48
-655.66
-650.31
-591.98
-484.25
-339.99
-176.77
-11.18
145.01
283.66
399.70
488.72
548.84
580.97
590.33
583.96
568.73
551.06
534.28
518.71
501.73
480.20
451.80
416.42
375.90
333.22
292.96
259.05
232.86
213.04
196.41
178.94
157.08
128.48
92.02
50.06
3.98
-46.08
-100.99
-154.94
-202.10
-237.66
-258.72
-280.71
-309.04
-344.82
-387.79
-428.37
-461.04
-482.92
-493.70
-493.91
-484.52
-463.76
-431.24
-388.27
-337.47
-283.86
-233.44
-193.17
-168.31
-161.51
-169.85
-188.19
-210.20
-229.33
-240.78
-231.32
-192.71
-122.67
-26.78
84.68
198.91
304.74
394.99
465.82
516.35
546.12
558.13
554.99
540.22
517.66
491.04
463.55
437.12
412.74
389.42
365.80
340.34
313.25
285.92
260.07
237.18
217.95
202.44
189.44
177.68
165.92
153.72
141.32
129.31
118.27
108.58
100.29
92.86
85.67
78.10
69.95
61.37
52.72
44.39
36.64
29.52
22.64
15.37
6.89
-3.53
-16.48
-32.22
-50.67
-71.37
-93.66
-116.81
-140.20
-163.47
-186.40
-208.97
-231.16
-252.90
-274.05
-294.59
-314.71
-335.03
-356.37
-379.42
-404.41
-430.76
-456.95
-480.73
-499.64
-511.47
-514.81
-509.21
-495.19
-474.24
-448.66
-421.26
-394.65
-370.38
-348.32
-326.74
-303.33
-276.57
-247.02
-217.38
-191.59
-173.04
-163.30
-161.86
-166.81
-175.80
-186.69
-197.38
-205.29
-207.23
-199.86
-180.29
-146.89
-99.94
-42.24
20.37
79.18
123.88
144.83
136.04
97.38
35.35
-38.29
-109.66
-166.05
-198.69
-203.79
-182.79
-141.78
-90.55
-40.95
-4.21
12.08
6.47
-15.83
-44.90
-69.87
-82.78
-80.86
-66.43
-44.74
-21.21
0.61
19.35
35.00
47.75
57.57
64.59
69.57
74.11
80.04
88.85
100.70
114.81
129.51
142.95
153.94
162.26
168.73
174.61
181.02
188.17
195.82
203.02
208.59
211.63
211.82
209.60
205.83
201.52
197.31
194.26
192.92
193.29
194.95
197.37
200.24
203.56
207.49
211.88
218.60
228.76
242.17
257.09
270.99
281.55
287.40
288.18
283.93
279.85
280.23
286.80
298.08
310.58
320.91
327.26
329.76
329.16
334.77
354.10
390.03
439.84
497.22
555.81
611.59
663.55
711.53
766.71
837.35
925.01
1023.33
1121.03
1206.81
1272.84
1316.02
1280.18
1135.40
880.28
546.61
185.03
-157.96
-453.80
-692.04
-863.61
-982.99
-1052.33
-1071.16
-1041.23
-970.27
-871.40
-760.25
-654.60
-570.24
-519.36
-495.98
-486.40
-475.42
-453.59
-419.72
-379.83
-342.49
-313.47
-295.43
-281.70
-266.15
-246.65
-225.19
-204.24
-182.71
-159.33
-131.28
-97.99
-59.45
-19.98
13.37
30.51
28.45
10.13
-18.18
-49.34
-78.56
-102.21
-118.72
-127.84
-130.14
-126.31
-118.15
-108.27
-98.86
-91.67
-87.09
-84.57
-83.00
-81.30
-78.26
-73.80
-68.80
-64.38
-61.45
-60.35
-60.79
-62.00
-63.15
-63.41
-62.67
-61.42
-60.45
-60.48
-61.85
-64.50
-68.04
-71.97
-75.76
-79.22
-82.33
-85.36
-88.37
-91.14
-93.24
-94.03
-92.88
-89.22
-83.32
-74.85
-63.93
-50.92
-36.44
-21.17
-5.90
8.62
21.75
32.94
41.93
48.56
52.89
55.10
55.51
54.47
52.33
49.41
45.95
42.19
38.20
33.98
29.48
24.65
19.46
13.90
7.92
1.48
-5.38
-12.65
-20.23
-27.94
-35.57
-43.02
-50.20
-57.09
-63.82
-70.65
-77.89
-85.91
-94.68
-104.14
-114.14
-124.39
-134.39
-143.56
-151.32
-157.12
-160.62
-161.35
-159.21
-154.43
-147.42
-138.76
-129.08
-118.87
-108.37
-99.53
-93.24
-89.91
-89.46
-91.40
-94.95
-99.16
-103.08
-105.97
-107.39
-106.88
-104.28
-99.71
-93.49
-86.08
-77.98
-69.67
-61.60
-54.18
-47.41
-41.24
-35.53
-30.06
-24.64
-19.09
-13.36
-7.65
-2.29
2.47
6.45
9.63
12.24
14.70
17.50
20.99
25.18
29.80
34.45
38.83
42.97
47.32
52.67
59.79
69.08
80.34
92.65
104.87
116.06
125.91
134.93
144.17
154.77
167.32
181.52
196.20
210.05
222.15
232.41
241.63
250.99
261.58
274.24
289.68
308.44
330.35
353.61
374.20
386.42
384.88
366.98
334.58
293.60
251.57
214.42
184.29
159.56
136.93
113.89
90.26
67.80
48.45
32.65
18.74
4.01
-13.50
-33.57
-53.76
-70.47
-80.70
-83.68
-80.98
-75.65
-70.62
-67.33
-65.26
-62.75
-58.40
-52.15
-45.49
-40.48
-38.50
-39.21
-40.52
-39.54
-34.03
-23.55
-9.70
4.65
16.68
24.84
29.27
31.37
32.68
33.97
34.88
34.33
31.43
26.22
19.85
14.03
10.08
8.24
7.53
6.44
3.87
-0.15
-4.41
-7.21
-7.41
-5.17
-1.88
0.51
0.66
-1.49
-4.69
-7.11
-7.49
-5.80
-3.28
-1.66
-2.18
-4.88
-8.53
-11.40
-12.23
-10.99
-8.81
-7.30
-7.65
-9.91
-12.99
-15.41
-16.20
-15.47
-14.36
-14.26
-15.96
-19.07
-22.21
-23.71
-22.62
-19.24
-14.97
-11.64
-10.48
-11.50
-13.57
-15.08
-14.85
-12.82
-10.03
-7.98
-7.72
-9.27
-11.56
-13.13
-12.97
-11.17
-8.83
-7.41
-7.78
-9.71
-11.95
-12.97
-11.88
-8.98
-5.62
-3.48
-3.62
-5.80
-8.66
-10.50
-10.21
-7.98
-5.10
-3.21
-3.38
-5.44
-8.14
-9.94
-9.94
-8.40
-6.57
-5.86
-6.97
-9.40
-11.79
-12.67
-11.36
-8.39
-5.25
-3.52
-4.00
-6.23
-8.79
-10.05
-9.18
-6.52
-3.45
-1.55
-1.74
-3.64
-5.89
-6.98
-6.13
-3.74
-1.21
-0.09
-1.16
-3.91
-6.87
-8.44
-7.92
-5.83
-3.64
-2.87
-4.20
-7.00
-9.69
-10.64
-9.17
-5.96
-2.61
-0.73
-1.09
-3.14
-5.39
-6.30
-5.21
-2.76
-0.49
0.09
-1.64
-5.00
-8.38
-10.12
-9.45
-6.99
-4.35
-3.21
-4.34
-7.15
-10.06
-11.39
-10.37
-7.59
-4.61
-2.97
-3.32
-4.99
-6.44
-6.26
-4.01
-0.51
2.60
3.82
2.70
0.14
-2.20
-2.83
-1.29
1.61
4.23
5.08
3.63
0.69
-2.12
-3.34
-2.43
-0.12
2.13
2.91
1.72
-0.72
-2.92
-3.55
-2.23
0.22
2.30
2.68
1.02
-1.79
-4.13
-4.61
-2.97
-0.23
1.91
2.02
-0.21
-3.74
-6.73
-7.62
-6.09
-3.13
-0.47
0.42
-0.84
-3.31
-5.34
-5.56
-3.74
-0.93
1.22
1.41
-0.52
-3.51
-5.85
-6.20
-4.40
-1.57
0.61
0.82
-1.11
-4.12
-6.53
-6.99
-5.33
-2.64
-0.62
-0.57
-2.63
-5.73
-8.16
-8.57
-6.78
-3.95
-1.87
-1.97
-4.48
-8.32
-11.68
-13.00
-11.90
-9.39
-7.30
-7.19
-9.54
-13.46
-17.30
-19.59
-19.98
-19.48
-19.85
-22.39
-26.97
-31.87
-34.55
-33.05
-27.00
-17.94
-8.53
-1.13
3.37
5.83
8.08
11.59
16.53
21.60
24.81
24.83
21.91
17.88
15.13
15.25
18.09
21.80
23.83
22.40
17.60
11.43
6.60
5.01
6.71
9.93
12.18
11.68
8.43
4.15
1.11
0.76
2.76
5.28
6.12
4.05
-0.24
-4.44
-6.00
-3.62
1.91
8.10
12.09
12.22
8.88
4.37
1.50
1.91
5.17
9.16
11.35
10.29
6.63
2.69
1.16
3.44
8.65
14.14
17.18
16.40
12.83
9.51
9.48
14.34
23.31
33.59
42.01
47.07
49.51
52.03
57.98
68.75
83.77
100.54
115.50
125.74
130.53
131.01
129.68
129.24
130.29
132.79
136.39
141.05
147.89
159.38
177.27
201.62
230.81
260.82
289.32
316.92
346.87
376.66
402.18
414.98
402.96
365.12
299.02
207.03
97.71
-19.34
-130.88
-224.95
-295.42
-342.77
-372.18
-391.62
-405.96
-415.27
-415.93
-403.67
-377.16
-340.49
-301.75
-269.28
-249.04
-241.11
-240.79
-242.07
-240.25
-233.03
-219.64
-198.80
-167.90
-124.70
-68.75
-3.70
62.54
120.51
162.57
185.66
191.85
186.74
176.18
164.49
153.67
144.00
135.14
126.85
118.74
109.83
98.31
81.89
58.89
29.17
-5.40
-41.36
-74.68
-102.45
-123.80
-139.93
-153.29
-166.35
-180.52
-195.64
-210.78
-224.04
-233.70
-238.91
-239.74
-236.77
-230.46
-220.56
-206.22
-186.58
-161.70
-133.21
-104.04
-77.37
-55.37
-38.31
-24.66
-12.19
0.63
13.77
25.69
34.35
38.56
38.85
37.19
35.97
36.66
39.04
41.53
42.25
40.17
35.80
30.95
27.69
27.15
28.86
31.04
31.68
29.70
25.55
20.94
17.93
17.72
19.97
22.92
24.30
22.49
17.31
10.19
3.46
-0.77
-1.65
0.19
3.33
6.42
9.04
11.84
15.86
21.48
27.81
33.36
36.95
38.72
40.05
42.48
46.54
51.26
54.78
55.36
52.35
46.43
39.43
33.75
31.96
36.17
47.25
63.87
82.10
96.27
100.85
92.58
71.67
41.18
5.14
-33.53
-73.61
-114.63
-155.48
-193.67
-225.61
-248.20
-260.16
-262.18
-256.54
-246.16
-233.81
-221.65
-210.69
-200.94
-191.26
-179.58
-163.81
-142.31
-114.32
-80.42
-42.29
-2.39
36.37
70.89
97.80
113.71
116.21
104.94
82.39
53.76
25.61
3.91
-7.55
-7.65
2.39
20.06
42.86
68.66
95.53
121.46
144.30
162.21
174.30
180.88
183.11
182.27
179.01
173.36
165.01
153.78
140.16
125.32
110.70
97.51
86.22
76.54
67.70
59.15
51.00
43.92
38.62
35.24
32.98
30.44
26.32
20.29
13.25
6.83
2.55
0.83
0.77
0.63
-1.05
-4.61
-8.94
-12.19
-12.94
-11.16
-8.33
-6.67
-7.84
-11.96
-17.41
-21.68
-22.79
-20.41
-15.98
-11.92
-10.26
-11.51
-14.46
-17.00
-17.37
-15.19
-11.69
-8.88
-8.39
-10.40
-13.53
-15.64
-15.07
-11.72
-7.16
-3.76
-3.39
-6.25
-10.69
-14.13
-14.47
-11.35
-6.34
-2.00
-0.49
-2.29
-6.02
-9.31
-10.21
-8.34
-5.03
-2.47
-2.29
-4.60
-7.89
-9.96
-9.29
-6.01
-1.86
0.75
0.19
-3.38
-8.03
-11.13
-10.85
-7.25
-2.19
1.68
2.45
-0.00
-3.98
-7.05
-7.45
-5.11
-1.62
0.81
0.68
-1.90
-5.26
-7.19
-6.33
-3.01
0.87
2.94
1.76
-2.25
-6.96
-9.75
-8.97
-4.94
0.26
3.95
4.38
1.70
-2.24
-5.03
-5.17
-2.85
0.22
1.95
1.17
-1.70
-4.89
-6.41
-5.24
-2.05
1.24
2.55
0.90
-2.89
-6.68
-8.20
-6.44
-2.22
2.13
4.23
2.93
-0.91
-4.97
-6.80
-5.23
-1.12
3.22
5.32
3.99
0.01
-4.29
-6.48
-5.34
-1.59
2.54
4.68
3.65
0.19
-3.53
-5.22
-3.84
-0.26
3.33
4.69
2.90
-1.10
-5.02
-6.62
-4.98
-1.06
2.90
4.65
3.24
-0.46
-4.30
-6.17
-5.13
-1.95
1.40
2.97
1.91
-1.03
-4.01
-5.22
-3.92
-0.94
1.94
2.95
1.52
-1.47
-4.13
-4.80
-3.02
0.17
2.83
3.32
1.32
-1.93
-4.39
-4.44
-1.86
1.92
4.71
4.83
2.05
-2.15
-5.48
-6.10
-3.69
0.42
3.95
4.99
3.07
-0.63
-3.95
-5.06
-3.46
-0.24
2.61
3.40
1.72
-1.36
-3.91
-4.36
-2.44
0.67
3.06
3.20
0.89
-2.58
-5.17
-5.31
-2.87
0.79
3.53
3.71
1.21
-2.51
-5.20
-5.17
-2.33
1.74
4.71
4.81
1.94
-2.29
-5.48
-5.84
-3.26
0.74
3.85
4.36
2.18
-1.21
-3.68
-3.73
-1.44
1.67
3.57
2.95
0.10
-3.25
-4.96
-3.77
-0.09
4.16
6.58
5.71
1.85
-3.01
-6.33
-6.42
-3.34
1.10
4.43
4.92
2.51
-1.19
-3.92
-4.15
-1.93
1.22
3.21
2.73
0.10
-3.01
-4.53
-3.34
0.04
3.64
5.30
3.86
-0.02
-4.21
-6.29
-4.99
-0.97
3.55
5.97
4.85
0.76
-4.02
-6.78
-5.95
-2.06
2.65
5.47
4.80
1.11
-3.37
-5.94
-5.09
-1.29
3.27
6.03
5.56
2.34
-1.56
-3.75
-2.98
0.18
3.67
5.24
3.75
-0.08
-4.15
-6.15
-5.02
-1.51
2.19
3.82
2.38
-1.29
-4.93
-6.25
-4.29
-0.03
4.18
5.95
4.30
0.25
-3.81
-5.49
-3.88
-0.00
3.74
5.04
3.05
-1.11
-5.01
-6.35
-4.34
-0.11
3.88
5.34
3.49
-0.51
-4.23
-5.40
-3.24
1.06
5.04
6.40
4.27
-0.15
-4.36
-5.97
-4.05
0.29
4.57
6.33
4.53
0.19
-4.20
-6.17
-4.65
-0.57
3.65
5.58
4.16
0.35
-3.50
-5.02
-3.29
0.68
4.58
6.13
4.51
0.78
-2.78
-4.09
-2.49
0.87
3.80
4.41
2.25
-1.42
-4.41
-4.95
-2.77
0.78
3.54
3.84
1.54
-1.92
-4.36
-4.20
-1.50
2.10
4.32
3.59
0.04
-4.49
-7.49
-7.20
-3.64
1.34
5.11
5.76
3.08
-1.29
-4.87
-5.71
-3.53
0.27
3.41
4.13
2.23
-0.85
-2.97
-2.59
0.24
3.84
5.97
5.14
1.58
-2.78
-5.46
-4.85
-1.24
3.35
6.26
5.80
2.19
-2.58
-5.85
-5.91
-2.93
1.22
4.02
3.90
1.08
-2.58
-4.76
-4.05
-0.88
2.81
4.69
3.42
-0.46
-4.83
-7.22
-6.22
-2.26
2.59
5.89
6.13
3.64
0.21
-1.91
-1.49
1.08
3.98
5.15
3.56
-0.11
-3.83
-5.43
-3.92
-0.14
3.71
5.31
3.51
-0.80
-5.34
-7.60
-6.36
-2.35
2.18
4.82
4.32
1.31
-2.15
-3.88
-2.88
0.11
3.09
4.12
2.49
-0.82
-3.71
-4.29
-2.04
1.79
4.98
5.48
2.76
-1.89
-6.05
-7.50
-5.47
-1.08
3.33
5.59
4.77
1.74
-1.43
-2.77
-1.54
1.35
3.90
4.29
1.98
-1.92
-5.21
-5.98
-3.72
0.33
3.87
4.82
2.57
-1.61
-5.37
-6.54
-4.45
-0.28
3.65
5.22
3.74
0.35
-2.74
-3.58
-1.64
1.82
4.56
4.70
1.89
-2.41
-5.75
-6.12
-3.15
1.63
5.69
6.89
4.73
0.63
-2.96
-3.93
-1.84
1.97
5.14
5.71
3.32
-0.63
-3.85
-4.54
-2.48
0.87
3.25
2.94
-0.13
-4.32
-7.24
-7.11
-3.85
0.87
4.59
5.40
3.07
-0.90
-4.13
-4.84
-2.74
0.75
3.44
3.72
1.51
-1.69
-3.71
-3.11
-0.07
3.66
5.74
4.69
0.84
-3.80
-6.66
-6.05
-2.20
2.86
6.43
6.68
3.67
-0.78
-4.13
-4.60
-2.26
1.20
3.50
3.18
0.54
-2.63
-4.12
-2.79
0.79
4.49
6.01
4.22
-0.09
-4.59
-6.75
-5.33
-1.08
3.60
6.06
4.90
0.75
-4.05
-6.84
-6.09
-2.28
2.49
5.67
5.75
3.06
-0.50
-2.70
-2.32
0.16
2.91
3.93
2.34
-1.04
-4.18
-5.09
-3.07
0.79
4.22
5.06
2.62
-1.88
-5.95
-7.23
-4.87
-0.03
4.71
6.84
5.26
0.97
-3.61
-5.97
-4.99
-1.50
2.28
4.05
2.85
-0.38
-3.46
-4.26
-2.15
1.68
4.88
5.37
2.62
-1.95
-5.77
-6.64
-3.99
0.76
5.06
6.63
4.79
0.78
-2.99
-4.41
-2.84
0.51
3.39
3.87
1.51
-2.37
-5.43
-5.76
-3.01
1.34
4.87
5.58
3.07
-1.20
-4.76
-5.61
-3.32
0.73
4.27
5.44
3.89
0.94
-1.28
-1.21
1.18
4.32
5.99
4.71
0.67
-4.22
-7.43
-7.23
-3.75
1.12
4.72
5.18
2.41
-1.81
-4.95
-5.20
-2.48
1.50
4.36
4.44
1.79
-1.87
-4.27
-3.96
-1.23
2.12
3.84
2.69
-0.78
-4.55
-6.26
-4.71
-0.58
3.90
6.25
5.11
1.07
-3.64
-6.46
-5.89
-2.33
2.20
5.23
5.26
2.58
-0.99
-3.23
-2.83
-0.16
2.98
4.49
3.29
0.03
-3.34
-4.70
-3.13
0.50
4.03
5.24
3.24
-0.97
-5.02
-6.59
-4.72
-0.45
3.85
5.77
4.29
0.33
-3.76
-5.64
-4.31
-0.66
3.10
4.71
3.26
-0.33
-3.83
-5.06
-3.19
0.77
4.57
5.97
4.13
0.08
-3.88
-5.47
-3.82
0.08
3.97
5.60
4.09
0.42
-3.18
-4.53
-2.82
0.92
4.46
5.65
3.72
-0.26
-3.99
-5.33
-3.51
0.36
4.08
5.51
3.96
0.46
-2.83
-3.94
-2.32
0.90
3.62
4.06
1.83
-1.79
-4.61
-4.92
-2.47
1.32
4.27
4.67
2.31
-1.39
-4.22
-4.57
-2.29
1.17
3.68
3.70
1.23
-2.24
-4.54
-4.20
-1.34
2.41
4.84
4.50
1.55
-2.31
-4.83
-4.59
-1.84
1.68
3.77
3.10
0.02
-3.65
-5.70
-4.88
-1.64
2.08
4.05
3.03
-0.39
-4.18
-5.95
-4.45
-0.29
4.31
6.77
5.62
1.39
-3.63
-6.69
-6.07
-2.14
2.94
6.41
6.45
3.21
-1.33
-4.55
-4.75
-2.01
1.84
4.43
4.22
1.42
-2.15
-4.25
-3.54
-0.41
3.24
5.18
4.18
0.79
-2.91
-4.64
-3.23
0.60
4.62
6.43
4.82
0.58
-3.93
-6.22
-5.02
-1.13
3.12
5.24
4.01
0.25
-3.76
-5.56
-4.04
-0.05
4.08
5.89
4.34
0.32
-3.81
-5.58
-3.95
0.17
4.36
6.16
4.47
0.21
-4.17
-6.18
-4.65
-0.45
4.06
6.38
5.27
1.48
-2.76
-5.07
-4.22
-0.91
2.82
4.74
3.78
0.61
-2.85
-4.54
-3.60
-0.79
2.05
3.07
1.62
-1.40
-4.07
-4.65
-2.70
0.65
3.34
3.64
1.19
-2.67
-5.71
-6.09
-3.43
0.80
4.26
4.97
2.54
-1.62
-5.03
-5.66
-3.06
1.33
5.01
5.87
3.37
-1.04
-4.82
-5.76
-3.26
1.28
5.36
6.71
4.74
0.73
-2.82
-3.78
-1.59
2.41
5.79
6.49
3.99
-0.32
-4.04
-5.14
-3.17
0.49
3.56
4.14
1.95
-1.61
-4.30
-4.43
-1.92
1.62
3.91
3.39
0.16
-3.98
-6.59
-6.06
-2.55
2.03
5.16
5.04
1.75
-2.89
-6.30
-6.62
-3.73
0.70
4.20
4.92
2.65
-1.04
-3.82
-3.95
-1.27
2.65
5.52
5.66
3.02
-0.79
-3.45
-3.32
-0.48
3.38
5.91
5.52
2.32
-1.92
-4.84
-4.89
-2.24
1.33
3.57
3.04
0.07
-3.50
-5.42
-4.40
-0.97
2.89
4.83
3.61
-0.14
-4.30
-6.42
-5.23
-1.35
3.00
5.31
4.20
0.31
-4.12
-6.50
-5.40
-1.41
3.23
5.91
5.14
1.42
-3.06
-5.69
-4.93
-1.23
3.32
6.15
5.72
2.37
-1.86
-4.46
-3.89
-0.45
3.86
6.60
6.19
2.94
-1.20
-3.81
-3.42
-0.42
3.26
5.27
4.29
0.83
-3.09
-5.11
-4.04
-0.52
3.33
5.22
4.03
0.44
-3.41
-5.33
-4.24
-0.96
2.46
3.88
2.31
-1.36
-5.10
-6.72
-5.36
-1.84
1.73
3.26
1.96
-1.31
-4.34
-5.14
-2.91
1.27
5.12
6.51
4.63
0.63
-3.19
-4.58
-2.77
1.09
4.66
5.66
3.41
-0.97
-4.95
-6.31
-4.27
-0.07
3.80
5.04
2.88
-1.34
-5.11
-6.05
-3.50
1.17
5.34
6.58
4.23
-0.39
-4.55
-5.86
-3.58
0.93
4.97
6.20
3.79
-0.85
-5.11
-6.53
-4.33
0.22
4.55
6.18
4.28
-0.03
-4.19
-5.82
-4.00
0.22
4.39
6.23
4.74
0.97
-2.82
-4.35
-2.78
0.90
4.53
5.92
4.34
0.69
-2.84
-4.27
-2.89
0.35
3.37
4.30
2.48
-1.00
-4.14
-5.09
-3.34
-0.07
2.72
3.23
1.14
-2.33
-5.03
-5.26
-2.81
0.92
3.66
3.76
1.05
-2.84
-5.58
-5.39
-2.18
2.34
5.71
6.01
3.13
-1.30
-4.74
-5.25
-2.66
1.40
4.44
4.58
1.66
-2.61
-5.67
-5.65
-2.39
2.30
5.84
6.24
3.35
-1.08
-4.46
-4.77
-1.87
2.57
5.92
6.24
3.30
-1.25
-4.80
-5.39
-2.73
1.54
4.94
5.48
2.84
-1.44
-4.95
-5.67
-3.24
0.95
4.54
5.55
3.55
-0.20
-3.41
-4.25
-2.34
1.02
3.67
3.92
1.55
-1.99
-4.56
-4.55
-1.94
1.70
4.20
4.00
1.28
-2.36
-4.65
-4.16
-1.15
2.63
4.92
4.37
1.23
-2.62
-4.96
-4.44
-1.41
2.23
4.29
3.42
0.13
-3.69
-5.74
-4.74
-1.24
2.76
4.81
3.66
-0.22
-4.63
-7.07
-6.09
-2.16
2.52
5.40
4.86
1.35
-3.07
-5.77
-5.15
-1.53
3.07
6.04
5.82
2.59
-1.62
-4.29
-3.82
-0.40
3.96
6.84
6.51
3.25
-1.09
-4.00
-3.89
-0.94
3.05
5.69
5.51
2.64
-1.10
-3.55
-3.34
-0.77
2.39
4.13
3.19
0.14
-3.27
-4.96
-3.88
-0.66
2.83
4.49
3.36
0.07
-3.35
-4.90
-3.63
-0.35
2.89
4.05
2.23
-1.60
-5.30
-6.64
-4.78
-0.68
3.39
5.11
3.53
-0.47
-4.53
-6.32
-4.75
-0.71
3.53
5.54
4.18
0.27
-3.91
-5.86
-4.43
-0.33
4.15
6.55
5.60
1.97
-2.12
-4.26
-3.19
0.37
4.33
6.26
4.99
1.20
-2.98
-5.20
-4.34
-1.03
2.62
4.45
3.36
0.10
-3.30
-4.81
-3.50
-0.29
2.82
3.81
2.03
-1.50
-4.57
-5.23
-2.92
1.18
4.70
5.65
3.40
-0.73
-4.39
-5.41
-3.15
1.12
4.99
6.20
4.06
-0.29
-4.35
-5.85
-3.95
0.21
4.18
5.64
3.62
-0.77
-5.16
-7.14
-5.72
-1.79
2.40
4.59
3.83
0.93
-2.01
-3.03
-1.40
1.83
4.60
5.04
2.69
-1.19
-4.32
-4.80
-2.30
1.73
4.83
5.04
2.01
-2.67
-6.37
-6.97
-4.01
0.94
5.25
6.60
4.38
-0.07
-4.24
-5.86
-4.24
-0.48
3.16
4.68
3.42
0.40
-2.35
-3.10
-1.42
1.56
3.88
3.96
1.58
-1.96
-4.58
-4.65
-2.11
1.55
4.04
3.69
0.42
-4.06
-7.21
-7.17
-3.77
1.20
5.10
5.77
2.98
-1.69
-5.46
-6.19
-3.40
1.34
5.42
6.66
4.53
0.45
-3.11
-4.01
-1.81
2.15
5.46
6.20
3.91
0.03
-3.15
-3.76
-1.52
2.14
4.94
5.08
2.36
-1.75
-4.88
-5.29
-2.75
1.20
4.28
4.71
2.33
-1.43
-4.31
-4.68
-2.46
0.84
3.06
2.70
-0.13
-3.72
-5.85
-5.05
-1.62
2.60
5.18
4.62
1.15
-3.27
-6.17
-5.87
-2.59
1.79
4.74
4.61
1.51
-2.68
-5.44
-5.10
-1.74
2.75
5.88
5.90
2.88
-1.42
-4.47
-4.58
-1.75
2.25
5.00
4.82
1.75
-2.42
-5.27
-5.10
-1.99
2.33
5.45
5.70
3.11
-0.67
-3.36
-3.41
-0.88
2.59
4.85
4.48
1.64
-2.02
-4.35
-3.99
-1.14
2.51
4.87
4.52
1.65
-2.14
-4.73
-4.73
-2.24
1.19
3.53
3.38
0.88
-2.43
-4.48
-3.94
-1.02
2.61
4.87
4.40
1.49
-2.13
-4.29
-3.69
-0.69
2.91
4.95
4.17
1.03
-2.63
-4.62
-3.78
-0.67
2.82
4.54
3.40
0.02
-3.58
-5.24
-3.91
-0.29
3.58
5.46
4.28
0.72
-3.14
-5.12
-4.16
-0.97
2.46
4.03
2.79
-0.50
-3.88
-5.35
-4.05
-0.79
2.51
3.94
2.71
-0.37
-3.40
-4.53
-3.03
0.26
3.45
4.70
3.28
0.05
-3.04
-4.09
-2.39
1.12
4.35
5.32
3.28
-0.76
-4.58
-6.05
-4.34
-0.44
3.41
5.02
3.48
-0.24
-3.92
-5.35
-3.67
0.17
3.94
5.46
3.86
0.12
-3.48
-4.76
-2.85
1.22
5.13
6.67
4.96
1.00
-2.94
-4.64
-3.27
0.18
3.45
4.45
2.42
-1.52
-5.09
-6.18
-4.18
-0.29
3.12
3.98
1.71
-2.33
-5.69
-6.27
-3.56
1.02
4.92
5.97
3.53
-0.99
-5.02
-6.28
-4.02
0.48
4.68
6.23
4.25
-0.09
-4.29
-5.90
-3.94
0.55
5.11
7.23
5.79
1.69
-2.71
-4.96
-3.93
-0.42
3.40
5.22
4.05
0.68
-2.81
-4.31
-2.97
0.30
3.48
4.57
2.88
-0.60
-3.78
-4.74
-2.87
0.70
3.84
4.58
2.30
-1.86
-5.57
-6.73
-4.61
-0.35
3.74
5.36
3.67
-0.31
-4.23
-5.75
-3.88
0.40
4.75
6.74
5.29
1.24
-3.10
-5.31
-4.22
-0.63
3.30
5.22
4.07
0.57
-3.11
-4.80
-3.53
-0.18
3.17
4.42
2.81
-0.68
-3.87
-4.77
-2.79
0.87
3.96
4.50
2.06
-2.02
-5.32
-5.84
-3.18
1.20
4.82
5.62
3.18
-1.06
-4.60
-5.37
-2.94
1.27
4.78
5.51
2.97
-1.43
-5.19
-6.16
-3.82
0.47
4.22
5.25
2.99
-1.20
-4.80
-5.62
-3.10
1.40
5.31
6.41
4.03
-0.47
-4.57
-5.98
-3.98
0.23
4.22
5.74
4.00
0.13
-3.55
-4.87
-3.06
0.78
4.37
5.57
3.59
-0.49
-4.38
-5.90
-4.22
-0.30
3.64
5.46
4.24
0.84
-2.69
-4.26
-3.06
0.12
3.27
4.45
2.86
-0.59
-3.91
-5.17
-3.64
-0.24
3.05
4.36
2.98
-0.16
-3.12
-4.06
-2.40
0.97
4.11
5.27
3.77
0.53
-2.59
-3.78
-2.39
0.70
3.62
4.55
2.78
-0.80
-4.24
-5.60
-4.14
-0.73
2.65
4.06
2.76
-0.36
-3.29
-4.13
-2.24
1.37
4.65
5.69
3.84
0.14
-3.32
-4.60
-3.05
0.34
3.57
4.72
3.17
-0.15
-3.24
-4.26
-2.61
0.71
3.67
4.40
2.33
-1.47
-4.88
-6.00
-4.21
-0.61
2.71
3.81
2.10
-1.34
-4.40
-5.20
-3.18
0.55
3.89
4.95
3.17
-0.39
-3.63
-4.68
-2.92
0.61
3.89
5.01
3.37
-0.04
-3.17
-4.16
-2.38
1.12
4.32
5.36
3.65
0.19
-2.99
-4.10
-2.61
0.46
3.15
3.77
1.89
-1.38
-4.08
-4.57
-2.53
0.88
3.66
4.21
2.23
-1.12
-3.86
-4.43
-2.53
0.67
3.30
3.79
1.85
-1.42
-4.13
-4.72
-2.85
0.40
3.15
3.77
1.86
-1.53
-4.46
-5.20
-3.23
0.40
3.67
4.76
3.05
-0.43
-3.62
-4.60
-2.77
0.87
4.23
5.40
3.73
0.27
-2.93
-3.98
-2.29
1.12
4.26
5.33
3.77
0.57
-2.33
-3.26
-1.79
1.05
3.36
3.59
1.48
-1.80
-4.31
-4.54
-2.31
1.00
3.37
3.29
0.74
-2.77
-5.05
-4.55
-1.30
3.03
6.09
6.15
3.11
-1.39
-4.90
-5.54
-3.04
1.10
4.48
5.15
2.67
-1.57
-5.23
-6.27
-4.12
-0.01
3.78
5.21
3.61
0.13
-3.05
-3.95
-2.00
1.63
4.79
5.56
3.46
-0.31
-3.54
-4.38
-2.43
1.05
3.90
4.35
2.13
-1.42
-4.14
-4.37
-1.94
1.66
4.21
4.03
1.03
-3.22
-6.36
-6.58
-3.68
0.77
4.36
5.17
2.84
-1.21
-4.60
-5.34
-2.99
1.18
4.85
6.03
4.14
0.29
-3.33
-4.80
-3.45
-0.32
2.67
3.69
2.22
-0.76
-3.38
-4.00
-2.24
0.79
3.13
3.20
0.78
-2.80
-5.37
-5.26
-2.33
1.90
5.00
5.17
2.19
-2.28
-5.72
-6.14
-3.31
1.17
4.73
5.35
2.74
-1.52
-4.88
-5.31
-2.44
2.19
6.11
7.25
5.12
1.06
-2.61
-3.87
-2.19
1.26
4.36
5.26
3.42
-0.04
-3.10
-3.96
-2.19
1.12
3.95
4.56
2.46
-1.22
-4.44
-5.43
-3.69
-0.34
2.63
3.43
1.63
-1.66
-4.42
-4.89
-2.67
1.04
4.15
4.90
2.88
-0.66
-3.61
-4.21
-2.16
1.20
3.74
3.79
1.22
-2.46
-4.93
-4.53
-1.26
3.15
6.18
6.00
2.58
-2.27
-5.90
-6.33
-3.36
1.28
4.96
5.57
2.81
-1.72
-5.39
-6.09
-3.44
1.03
4.73
5.57
3.09
-1.24
-4.90
-5.78
-3.40
0.89
4.73
6.04
4.25
0.54
-2.84
-3.96
-2.21
1.31
4.53
5.52
3.67
0.03
-3.34
-4.53
-2.93
0.47
3.65
4.77
3.19
-0.11
-3.17
-4.24
-2.80
0.20
2.88
3.60
1.95
-1.05
-3.57
-4.06
-2.23
0.75
2.99
2.98
0.54
-3.04
-5.70
-5.83
-3.22
0.78
4.00
4.73
2.68
-0.89
-3.90
-4.69
-2.99
-0.00
2.34
2.54
0.42
-2.73
-5.00
-4.92
-2.35
1.41
4.43
5.15
3.34
0.17
-2.46
-3.05
-1.28
1.72
4.11
4.37
2.22
-1.20
-3.98
-4.47
-2.30
1.40
4.63
5.59
3.77
0.22
-3.01
-4.05
-2.31
1.17
4.30
5.17
3.16
-0.63
-4.02
-4.98
-2.92
1.05
4.64
5.81
3.86
-0.09
-3.77
-5.08
-3.34
0.36
3.76
4.75
2.65
-1.38
-5.00
-6.04
-3.77
0.60
4.65
6.08
4.09
-0.13
-4.11
-5.57
-3.72
0.20
3.72
4.58
2.12
-2.28
-6.00
-6.79
-4.03
0.82
5.06
6.30
3.87
-0.82
-5.07
-6.44
-4.19
0.37
4.65
6.27
4.40
0.22
-3.80
-5.33
-3.54
0.45
4.36
6.03
4.72
1.47
-1.60
-2.58
-1.04
1.80
3.79
3.26
0.10
-4.08
-6.88
-6.55
-3.07
1.76
5.34
5.74
2.80
-1.79
-5.42
-6.07
-3.44
0.92
4.53
5.40
3.11
-0.94
-4.40
-5.27
-3.07
0.93
4.48
5.63
3.82
0.20
-3.10
-4.24
-2.66
0.56
3.43
4.25
2.57
-0.52
-3.08
-3.51
-1.52
1.73
4.26
4.54
2.32
-1.12
-3.79
-4.12
-1.96
1.36
3.78
3.73
1.11
-2.65
-5.35
-5.38
-2.64
1.33
4.21
4.27
1.32
-3.06
-6.40
-6.77
-3.89
0.69
4.45
5.34
2.96
-1.19
-4.63
-5.29
-2.73
1.59
5.20
6.02
3.57
-0.75
-4.45
-5.42
-3.13
1.08
4.80
5.91
3.81
-0.25
-3.89
-4.99
-2.91
1.16
4.89
6.15
4.23
0.28
-3.37
-4.61
-2.72
1.14
4.68
5.73
3.59
-0.58
-4.42
-5.76
-3.88
0.05
3.70
4.89
2.93
-0.99
-4.51
-5.49
-3.30
0.82
4.53
5.67
3.61
-0.42
-4.03
-5.11
-3.02
0.98
4.50
5.42
3.11
-1.12
-4.82
-5.80
-3.49
0.81
4.57
5.58
3.24
-1.06
-4.74
-5.59
-3.08
1.24
4.77
5.32
2.53
-1.95
-5.38
-5.62
-2.43
2.43
6.18
6.69
3.72
-0.97
-4.68
-5.42
-3.01
0.81
3.56
3.43
0.43
-3.69
-6.47
-6.21
-3.03
1.34
4.46
4.70
2.12
-1.60
-4.14
-3.94
-1.04
2.85
5.51
5.39
2.55
-1.35
-4.05
-4.01
-1.32
2.34
4.68
4.17
0.97
-3.14
-5.80
-5.45
-2.26
1.92
4.63
4.18
0.72
-3.88
-7.03
-6.91
-3.56
1.21
4.82
5.33
2.59
-1.71
-5.01
-5.33
-2.42
2.12
5.80
6.60
4.14
-0.09
-3.65
-4.53
-2.30
1.70
5.11
5.93
3.68
-0.36
-3.86
-4.84
-2.77
1.10
4.51
5.51
3.54
-0.18
-3.47
-4.45
-2.67
0.64
3.42
3.95
1.97
-1.22
-3.58
-3.58
-1.18
2.19
4.47
4.21
1.49
-2.14
-4.56
-4.34
-1.64
1.88
4.07
3.51
0.40
-3.53
-5.99
-5.48
-2.22
2.01
4.80
4.57
1.43
-2.83
-5.78
-5.72
-2.70
1.53
4.49
4.42
1.26
-3.22
-6.45
-6.46
-3.06
2.02
6.08
6.93
4.16
-0.60
-4.63
-5.63
-3.06
1.58
5.66
6.94
4.86
0.82
-2.71
-3.69
-1.69
1.87
4.67
4.87
2.26
-1.66
-4.53
-4.60
-1.82
2.19
4.95
4.72
1.44
-3.09
-6.27
-6.21
-2.80
2.10
5.83
6.30
3.29
-1.52
-5.45
-6.41
-4.01
0.30
4.07
5.32
3.61
0.22
-2.66
-3.30
-1.36
1.82
4.20
4.20
1.75
-1.71
-3.99
-3.59
-0.57
3.39
5.94
5.46
2.00
-2.66
-6.00
-6.25
-3.33
0.97
4.15
4.34
1.45
-2.81
-5.93
-6.07
-3.17
1.10
4.27
4.60
2.06
-1.66
-4.17
-3.85
-0.81
3.14
5.63
5.10
1.74
-2.62
-5.54
-5.48
-2.62
1.22
3.69
3.29
0.25
-3.58
-5.86
-5.13
-1.71
2.49
5.07
4.53
1.15
-3.12
-5.84
-5.43
-2.16
2.07
4.78
4.35
1.03
-3.22
-5.86
-5.20
-1.49
3.24
6.31
5.91
2.20
-2.76
-6.15
-6.03
-2.40
2.73
6.54
6.98
3.87
-0.93
-4.66
-5.21
-2.27
2.51
6.54
7.74
5.66
1.74
-1.71
-2.79
-1.17
1.80
3.97
3.71
0.94
-2.81
-5.30
-4.99
-2.00
1.93
4.39
3.78
0.20
-4.52
-7.82
-7.88
-4.62
0.24
4.23
5.46
3.66
0.27
-2.45
-2.81
-0.65
2.56
4.63
3.99
0.68
-3.58
-6.41
-6.12
-2.77
1.88
5.36
5.85
3.28
-0.69
-3.70
-4.04
-1.68
1.80
4.15
3.87
1.05
-2.63
-4.92
-4.33
-1.04
3.13
5.81
5.41
2.05
-2.47
-5.66
-5.76
-2.75
1.67
5.04
5.49
2.81
-1.47
-4.97
-5.82
-3.70
0.07
3.31
4.31
2.77
-0.07
-2.25
-2.31
-0.23
2.56
4.11
3.10
-0.18
-4.00
-6.09
-5.06
-1.24
3.39
6.29
5.77
2.01
-3.02
-6.60
-6.82
-3.58
1.33
5.25
6.15
3.72
-0.52
-4.11
-5.10
-3.12
0.46
3.44
4.10
2.20
-0.88
-3.07
-2.87
-0.32
3.01
4.98
4.16
0.82
-3.20
-5.53
-4.73
-1.13
3.26
5.93
5.32
1.73
-2.80
-5.69
-5.33
-1.98
2.39
5.27
5.05
1.94
-2.20
-4.96
-4.82
-1.97
1.76
4.04
3.39
0.05
-4.10
-6.64
-6.00
-2.41
2.23
5.40
5.37
2.26
-2.06
-5.02
-4.86
-1.68
2.67
5.60
5.33
1.96
-2.58
-5.63
-5.38
-1.90
2.87
6.24
6.34
3.17
-1.39
-4.70
-4.89
-1.94
2.37
5.52
5.72
2.95
-1.08
-3.95
-3.97
-1.17
2.77
5.51
5.42
2.50
-1.60
-4.58
-4.82
-2.32
1.34
3.94
3.88
1.19
-2.53
-5.08
-4.93
-2.15
1.61
4.14
3.98
1.28
-2.25
-4.42
-3.86
-0.88
