1539435345.00
64.000000
-0.00
-0.00
-0.00
-0.00
-0.00
-0.00
-0.00
-0.00
-0.00
-0.00
0.00
0.01
0.01
-0.00
-0.03
-0.05
-0.05
0.00
0.13
0.36
0.66
1.01
1.37
1.72
2.06
2.40
2.79
3.25
3.81
4.43
5.09
5.72
6.32
6.90
7.53
8.26
9.12
10.19
11.36
12.52
13.58
14.51
15.39
16.41
17.76
19.57
22.03
24.91
27.94
30.87
33.56
36.17
39.01
42.51
46.93
52.56
59.02
65.79
72.36
78.53
84.49
90.79
98.08
106.72
117.07
128.46
140.11
151.31
161.81
171.95
182.49
194.66
206.84
220.85
236.99
255.32
274.95
293.52
307.24
311.74
303.47
281.01
246.01
201.79
152.60
102.08
52.49
4.83
-40.67
-83.86
-124.57
-162.56
-198.54
-233.83
-269.87
-307.25
-344.75
-379.09
-405.65
-420.13
-420.10
-406.26
-382.16
-352.84
-322.88
-295.01
-269.84
-246.58
-224.26
-202.50
-181.77
-162.81
-145.97
-130.94
-116.93
-103.17
-89.31
-75.60
-62.70
-51.32
-41.84
-34.13
-27.60
-21.53
-15.35
-8.91
-2.46
3.48
8.48
12.33
15.19
17.39
19.34
21.28
23.22
25.02
26.46
27.38
27.74
27.64
27.27
26.85
26.50
26.30
26.17
26.00
25.64
25.02
24.17
23.17
22.16
21.23
20.40
19.65
18.93
18.23
17.59
17.04
16.64
16.38
16.16
15.87
15.39
14.69
13.84
13.00
12.34
11.97
11.87
11.90
11.87
11.64
11.17
10.56
9.93
9.38
8.94
8.60
8.33
8.16
8.13
8.30
8.63
9.01
9.31
9.36
9.08
8.46
7.60
6.67
5.85
5.31
5.14
5.33
5.73
6.15
6.39
6.34
6.02
5.49
4.86
4.22
3.62
3.09
2.63
2.25
1.93
1.63
1.26
0.76
0.11
-0.64
-1.42
-2.14
-2.73
-3.20
-3.59
-3.90
-4.15
-4.33
-4.44
-4.52
-4.63
-4.83
-5.12
-5.46
-5.78
-5.99
-6.08
-6.07
-6.00
-5.90
-5.76
-5.53
-5.20
-4.76
-4.26
-3.75
-3.24
-2.73
-2.24
-1.77
-1.37
-1.08
-0.93
-0.87
-0.84
-0.74
-0.53
-0.20
0.21
0.65
1.06
1.42
1.69
1.85
1.89
1.85
1.78
1.78
1.92
2.22
2.64
3.08
3.46
3.70
3.78
3.68
3.48
3.25
3.06
3.00
3.10
3.34
3.64
3.85
3.90
3.76
3.52
3.32
3.27
3.40
3.65
3.91
4.08
4.12
4.04
3.91
3.79
3.72
3.68
3.65
3.59
3.45
3.24
2.98
2.73
2.54
2.42
2.33
2.25
2.12
1.99
1.90
1.94
2.12
2.40
2.66
2.81
2.79
2.63
2.39
2.16
1.98
1.88
1.85
1.91
2.04
2.23
2.45
2.65
2.79
2.83
2.76
2.60
2.39
2.14
1.87
1.58
1.26
0.93
0.62
0.39
0.30
0.35
0.52
0.73
0.89
0.96
0.94
0.89
0.88
0.94
1.05
1.16
1.19
1.09
0.84
0.48
0.09
-0.24
-0.41
-0.39
-0.19
0.14
0.54
0.93
1.27
1.55
1.73
1.78
1.70
1.50
1.26
1.06
0.97
0.98
1.07
1.17
1.26
1.36
1.49
1.66
1.82
1.86
1.73
1.43
1.03
0.66
0.42
0.33
0.31
0.32
0.30
0.27
0.26
0.30
0.40
0.53
0.64
0.72
0.74
0.69
0.58
0.42
0.23
0.03
-0.15
-0.27
-0.29
-0.16
0.14
0.61
1.15
1.61
1.85
1.78
1.39
0.83
0.26
-0.14
-0.29
-0.20
0.04
0.29
0.44
0.47
0.41
0.33
0.30
0.32
0.32
0.24
0.09
-0.08
-0.19
-0.18
-0.06
0.11
0.27
0.40
0.52
0.69
0.89
1.07
1.17
1.16
1.10
1.08
1.17
1.39
1.63
1.77
1.73
1.50
1.17
0.84
0.58
0.39
0.26
0.16
0.07
0.01
0.01
0.04
0.07
0.08
0.04
-0.02
-0.08
-0.12
-0.15
-0.16
-0.16
-0.16
-0.16
-0.19
-0.22
-0.24
-0.23
-0.14
0.00
0.16
0.29
0.34
0.34
0.29
0.25
0.24
0.23
0.21
0.15
0.06
-0.02
-0.05
0.01
0.16
0.35
0.54
0.67
0.69
0.62
0.50
0.40
0.35
0.37
0.42
0.48
0.52
0.52
0.48
0.39
0.27
0.16
0.11
0.14
0.23
0.30
0.29
0.17
0.01
-0.09
-0.07
0.10
0.36
0.62
0.79
0.85
0.83
0.78
0.73
0.68
0.62
0.49
0.30
0.08
-0.11
-0.22
-0.25
-0.25
-0.27
-0.37
-0.51
-0.61
-0.59
-0.40
-0.11
0.15
0.26
0.19
0.02
-0.12
-0.11
0.09
0.42
0.74
0.95
1.00
0.92
0.76
0.59
0.43
0.25
0.01
-0.26
-0.53
-0.72
-0.76
-0.66
-0.45
-0.22
-0.02
0.12
0.22
0.29
0.37
0.45
0.50
0.51
0.48
0.41
0.33
0.27
0.23
0.21
0.20
0.18
0.15
0.14
0.18
0.27
0.42
0.58
0.71
0.75
0.68
0.50
0.26
-0.02
-0.31
-0.59
-0.84
-1.03
-1.09
-0.96
-0.59
-0.03
0.58
1.03
1.15
0.90
0.35
-0.30
-0.83
-1.08
-1.05
-0.78
-0.40
-0.02
0.32
0.56
0.69
0.69
0.58
0.39
0.21
0.07
-0.01
-0.05
-0.06
-0.03
0.11
0.41
0.81
1.16
1.30
1.10
0.59
-0.06
-0.61
-0.87
-0.79
-0.46
-0.07
0.23
0.37
0.38
0.33
0.25
0.14
-0.00
-0.18
-0.32
-0.36
-0.28
-0.13
-0.00
0.03
-0.06
-0.21
-0.31
-0.28
-0.11
0.14
0.36
0.49
0.51
0.45
0.34
0.20
0.09
0.03
0.06
0.17
0.34
0.53
0.68
0.75
0.70
0.52
0.24
-0.10
-0.42
-0.66
-0.78
-0.77
-0.68
-0.55
-0.41
-0.31
-0.25
-0.23
-0.24
-0.29
-0.34
-0.35
-0.25
-0.04
0.26
0.54
0.71
0.67
0.43
0.03
-0.41
-0.78
-1.01
-1.07
-0.96
-0.69
-0.28
0.19
0.65
0.97
1.08
0.96
0.70
0.42
0.22
0.15
0.18
0.29
0.43
0.58
0.74
0.89
0.98
0.96
0.80
0.57
0.34
0.20
0.20
0.29
0.39
0.43
0.33
0.12
-0.14
-0.37
-0.46
-0.37
-0.14
0.13
0.34
0.45
0.45
0.38
0.26
0.10
-0.12
-0.41
-0.70
-0.90
-0.93
-0.76
-0.49
-0.21
-0.03
0.02
-0.00
-0.03
-0.01
0.03
0.05
-0.00
-0.14
-0.33
-0.49
-0.60
-0.62
-0.59
-0.50
-0.37
-0.18
0.04
0.22
0.31
0.24
0.05
-0.21
-0.41
-0.51
-0.48
-0.38
-0.25
-0.15
-0.09
-0.02
0.07
0.19
0.36
0.54
0.71
0.85
0.94
0.95
0.86
0.69
0.46
0.21
-0.05
-0.29
-0.51
-0.68
-0.75
-0.70
-0.53
-0.25
0.06
0.32
0.47
0.50
0.47
0.45
0.54
0.72
0.96
1.13
1.13
0.92
0.54
0.07
-0.39
-0.75
-0.97
-1.02
-0.92
-0.72
-0.49
-0.33
-0.27
-0.31
-0.37
-0.37
-0.26
-0.06
0.18
0.38
0.52
0.60
0.67
0.72
0.74
0.72
0.67
0.60
0.55
0.52
0.50
0.48
0.47
0.49
0.55
0.63
0.64
0.52
0.25
-0.13
-0.50
-0.78
-0.93
-0.97
-0.97
-1.00
-1.05
-1.09
-1.06
-0.98
-0.87
-0.81
-0.83
-0.86
-0.81
-0.60
-0.23
0.21
0.62
0.86
0.90
0.79
0.61
0.45
0.35
0.30
0.31
0.33
0.36
0.38
0.38
0.35
0.30
0.25
0.23
0.23
0.26
0.28
0.29
0.28
0.23
0.11
-0.13
-0.45
-0.81
-1.07
-1.12
-0.88
-0.43
0.09
0.49
0.64
0.53
0.24
-0.07
-0.26
-0.25
-0.04
0.26
0.53
0.66
0.61
0.42
0.17
-0.01
-0.09
-0.04
0.07
0.20
0.32
0.43
0.50
0.51
0.38
0.09
-0.32
-0.79
-1.18
-1.40
-1.44
-1.31
-1.10
-0.85
-0.62
-0.40
-0.20
0.00
0.19
0.35
0.48
0.53
0.51
0.41
0.25
0.07
-0.12
-0.29
-0.43
-0.46
-0.33
-0.01
0.45
0.91
1.21
1.21
0.92
0.49
0.12
-0.02
0.11
0.42
0.77
1.01
1.07
0.98
0.79
0.56
0.31
0.05
-0.22
-0.49
-0.71
-0.86
-0.90
-0.88
-0.85
-0.87
-0.94
-0.99
-0.93
-0.69
-0.32
0.11
0.45
0.61
0.58
0.44
0.29
0.19
0.12
0.04
-0.08
-0.23
-0.35
-0.38
-0.28
-0.05
0.22
0.45
0.59
0.64
0.64
0.63
0.63
0.59
0.44
0.17
-0.19
-0.55
-0.81
-0.89
-0.79
-0.56
-0.26
0.05
0.31
0.50
0.55
0.47
0.26
0.01
-0.20
-0.28
-0.22
-0.07
0.13
0.32
0.48
0.59
0.64
0.60
0.48
0.30
0.12
0.03
0.07
0.21
0.38
0.48
0.41
0.15
-0.26
-0.69
-1.02
-1.14
-1.03
-0.76
-0.45
-0.23
-0.15
-0.16
-0.21
-0.22
-0.18
-0.17
-0.22
-0.35
-0.53
-0.66
-0.67
-0.50
-0.21
0.13
0.43
0.61
0.63
0.52
0.29
0.00
-0.27
-0.47
-0.57
-0.56
-0.46
-0.28
-0.05
0.24
0.56
0.87
1.12
1.22
1.12
0.84
0.46
0.13
-0.06
-0.05
0.11
0.32
0.51
0.60
0.56
0.40
0.14
-0.18
-0.48
-0.70
-0.80
-0.77
-0.68
-0.59
-0.52
-0.46
-0.38
-0.27
-0.17
-0.13
-0.23
-0.46
-0.75
-0.96
-0.98
-0.78
-0.42
0.01
0.37
0.58
0.61
0.52
0.39
0.27
0.19
0.15
0.16
0.22
0.34
0.54
0.77
0.96
1.01
0.87
0.57
0.16
-0.23
-0.48
-0.53
-0.35
-0.02
0.37
0.68
0.85
0.84
0.74
0.64
0.60
0.61
0.58
0.45
0.20
-0.09
-0.32
-0.38
-0.27
-0.06
0.13
0.25
0.29
0.30
0.32
0.34
0.34
0.27
0.15
-0.02
-0.19
-0.38
-0.59
-0.83
-1.07
-1.25
-1.33
-1.27
-1.11
-0.89
-0.67
-0.46
-0.28
-0.14
-0.07
-0.09
-0.20
-0.34
-0.43
-0.41
-0.28
-0.10
-0.00
-0.07
-0.28
-0.50
-0.54
-0.31
0.14
0.63
0.95
0.97
0.75
0.47
0.31
0.36
0.54
0.68
0.67
0.47
0.19
-0.06
-0.19
-0.23
-0.26
-0.37
-0.61
-0.91
-1.17
-1.26
-1.12
-0.76
-0.27
0.22
0.58
0.76
0.74
0.60
0.42
0.31
0.28
0.32
0.38
0.40
0.38
0.34
0.34
0.44
0.60
0.74
0.78
0.65
0.43
0.20
0.08
0.10
0.20
0.30
0.34
0.33
0.31
0.32
0.33
0.30
0.20
0.06
-0.06
-0.09
-0.03
0.07
0.15
0.15
0.09
0.04
0.02
-0.00
-0.05
-0.18
-0.35
-0.52
-0.63
-0.66
-0.62
-0.54
-0.42
-0.27
-0.09
0.11
0.25
0.27
0.13
-0.12
-0.41
-0.65
-0.76
-0.76
-0.67
-0.52
-0.33
-0.11
0.14
0.38
0.57
0.64
0.59
0.46
0.34
0.27
0.27
0.29
0.25
0.12
-0.07
-0.25
-0.39
-0.47
-0.54
-0.62
-0.71
-0.78
-0.75
-0.64
-0.46
-0.30
-0.17
-0.09
-0.01
0.09
0.21
0.31
0.34
0.33
0.30
0.30
0.34
0.39
0.41
0.37
0.31
0.30
0.36
0.44
0.50
0.48
0.39
0.28
0.22
0.21
0.23
0.19
0.04
-0.23
-0.56
-0.86
-1.06
-1.14
-1.12
-1.02
-0.87
-0.64
-0.33
0.03
0.34
0.52
0.50
0.33
0.17
0.16
0.37
0.70
0.95
0.90
0.50
-0.13
-0.72
-0.99
-0.84
-0.36
0.20
0.57
0.61
0.35
-0.08
-0.48
-0.74
-0.81
-0.73
-0.58
-0.44
-0.34
-0.30
-0.30
-0.32
-0.32
-0.28
-0.19
-0.03
0.20
0.48
0.77
1.04
1.26
1.38
1.37
1.24
1.01
0.73
0.46
0.23
0.08
-0.01
-0.04
-0.01
0.07
0.20
0.33
0.41
0.39
0.24
0.01
-0.21
-0.32
-0.31
-0.20
-0.03
0.14
0.28
0.37
0.36
0.24
0.01
-0.26
-0.47
-0.54
-0.47
-0.33
-0.22
-0.21
-0.29
-0.38
-0.43
-0.42
-0.36
-0.29
-0.21
-0.11
0.04
0.18
0.25
0.22
0.07
-0.13
-0.27
-0.31
-0.24
-0.11
0.01
0.10
0.15
0.19
0.22
0.24
0.20
0.08
-0.10
-0.29
-0.43
-0.47
-0.41
-0.28
-0.17
-0.13
-0.20
-0.31
-0.40
-0.39
-0.26
-0.07
0.11
0.23
0.25
0.22
0.19
0.19
0.27
0.40
0.58
0.74
0.83
0.74
0.46
0.03
-0.42
-0.70
-0.67
-0.32
0.21
0.70
0.97
0.94
0.66
0.25
-0.16
-0.49
-0.71
-0.84
-0.88
-0.87
-0.81
-0.70
-0.53
-0.32
-0.05
0.25
0.56
0.81
0.97
1.01
0.94
0.83
0.73
0.67
0.62
0.54
0.39
0.15
-0.12
-0.39
-0.60
-0.74
-0.83
-0.87
-0.87
-0.81
-0.70
-0.56
-0.43
-0.34
-0.31
-0.34
-0.39
-0.42
-0.41
-0.35
-0.23
-0.08
0.09
0.24
0.34
0.34
0.25
0.09
-0.07
-0.16
-0.14
-0.00
0.21
0.43
0.62
0.71
0.67
0.52
0.30
0.06
-0.11
-0.17
-0.08
0.11
0.30
0.39
0.31
0.06
-0.25
-0.50
-0.57
-0.43
-0.11
0.30
0.70
1.01
1.18
1.20
1.06
0.78
0.44
0.11
-0.16
-0.32
-0.38
-0.38
-0.33
-0.26
-0.17
-0.07
0.00
0.01
-0.09
-0.28
-0.50
-0.65
-0.68
-0.59
-0.43
-0.28
-0.20
-0.21
-0.26
-0.30
-0.30
-0.29
-0.30
-0.37
-0.46
-0.47
-0.32
0.03
0.51
0.96
1.22
1.17
0.83
0.31
-0.22
-0.59
-0.69
-0.51
-0.12
0.35
0.75
0.94
0.88
0.61
0.27
-0.02
-0.15
-0.14
-0.06
-0.02
-0.09
-0.26
-0.43
-0.52
-0.51
-0.45
-0.41
-0.46
-0.55
-0.62
-0.59
-0.43
-0.23
-0.08
-0.05
-0.11
-0.21
-0.23
-0.15
0.02
0.19
0.28
0.28
0.21
0.14
0.12
0.15
0.19
0.18
0.09
-0.00
-0.04
0.04
0.22
0.40
0.46
0.35
0.10
-0.17
-0.36
-0.40
-0.35
-0.29
-0.24
-0.19
-0.05
0.21
0.50
0.69
0.62
0.27
-0.25
-0.71
-0.91
-0.76
-0.36
0.09
0.42
0.56
0.57
0.56
0.61
0.71
0.78
0.73
0.51
0.15
-0.25
-0.60
-0.81
-0.83
-0.68
-0.36
0.06
0.51
0.92
1.21
1.36
1.33
1.15
0.82
0.39
-0.11
-0.57
-0.88
-0.95
-0.73
-0.30
0.20
0.58
0.70
0.53
0.15
-0.27
-0.57
-0.65
-0.52
-0.27
-0.01
0.15
0.20
0.17
0.14
0.16
0.23
0.31
0.35
0.34
0.28
0.16
-0.00
-0.19
-0.41
-0.62
-0.79
-0.86
-0.82
-0.66
-0.44
-0.22
-0.05
0.04
0.08
0.11
0.17
0.26
0.35
0.34
0.18
-0.11
-0.45
-0.68
-0.70
-0.48
-0.08
0.40
0.83
1.13
1.24
1.14
0.85
0.44
0.01
-0.35
-0.59
-0.69
-0.68
-0.61
-0.53
-0.47
-0.47
-0.55
-0.70
-0.87
-0.98
-0.92
-0.68
-0.28
0.15
0.51
0.70
0.74
0.67
0.55
0.43
0.33
0.25
0.19
0.15
0.15
0.22
0.36
0.54
0.71
0.82
0.79
0.61
0.28
-0.14
-0.57
-0.93
-1.15
-1.17
-0.98
-0.61
-0.13
0.33
0.62
0.66
0.45
0.09
-0.24
-0.42
-0.39
-0.21
0.01
0.16
0.19
0.14
0.04
-0.03
-0.09
-0.14
-0.18
-0.21
-0.18
-0.09
0.07
0.23
0.34
0.37
0.36
0.37
0.43
0.54
0.67
0.76
0.78
0.72
0.60
0.41
0.18
-0.10
-0.36
-0.55
-0.57
-0.44
-0.22
-0.07
-0.13
-0.43
-0.87
-1.28
-1.47
-1.35
-0.96
-0.43
0.08
0.47
0.69
0.73
0.65
0.45
0.19
-0.10
-0.33
-0.46
-0.45
-0.31
-0.11
0.09
0.23
0.29
0.28
0.25
0.23
0.22
0.23
0.25
0.28
0.31
0.35
0.37
0.37
0.33
0.25
0.14
0.03
-0.03
-0.01
0.13
0.35
0.59
0.74
0.72
0.49
0.09
-0.35
-0.70
-0.88
-0.89
-0.81
-0.71
-0.60
-0.40
-0.03
0.52
1.13
1.58
1.64
1.20
0.36
-0.62
-1.40
-1.74
-1.59
-1.09
-0.50
-0.07
0.09
0.01
-0.20
-0.37
-0.42
-0.31
-0.11
0.13
0.33
0.42
0.37
0.16
-0.17
-0.55
-0.88
-1.08
-1.09
-0.87
-0.43
0.16
0.78
1.28
1.49
1.34
0.85
0.20
-0.36
-0.62
-0.51
-0.14
0.27
0.49
0.44
0.22
0.02
0.01
0.22
0.54
0.78
0.83
0.71
0.56
0.51
0.57
0.67
0.64
0.39
-0.04
-0.49
-0.79
-0.84
-0.70
-0.46
-0.25
-0.11
-0.07
-0.10
-0.18
-0.33
-0.53
-0.76
-0.94
-1.00
-0.91
-0.68
-0.37
-0.04
0.22
0.39
0.44
0.36
0.18
-0.06
-0.28
-0.37
-0.26
0.07
0.52
0.94
1.17
1.13
0.85
0.43
0.05
-0.17
-0.18
-0.04
0.13
0.21
0.13
-0.08
-0.33
-0.50
-0.50
-0.34
-0.13
0.02
0.00
-0.18
-0.45
-0.71
-0.86
-0.87
-0.76
-0.56
-0.31
-0.05
0.18
0.34
0.38
0.32
0.23
0.19
0.23
0.35
0.47
0.52
0.47
0.35
0.21
0.11
0.06
0.05
0.04
0.02
-0.03
-0.10
-0.18
-0.27
-0.34
-0.37
-0.31
-0.14
0.11
0.36
0.53
0.55
0.41
0.18
-0.05
-0.20
-0.26
-0.24
-0.19
-0.13
-0.09
-0.02
0.08
0.23
0.40
0.53
0.59
0.57
0.50
0.44
0.42
0.44
0.44
0.37
0.22
0.03
-0.13
-0.21
-0.21
-0.19
-0.19
-0.22
-0.22
-0.13
0.10
0.40
0.68
0.82
0.76
0.52
0.19
-0.14
-0.41
-0.56
-0.64
-0.64
-0.57
-0.42
-0.18
0.12
0.38
0.49
0.37
-0.00
-0.54
-1.08
-1.46
-1.56
-1.37
-0.98
-0.51
-0.10
0.20
0.38
0.46
0.49
0.47
0.41
0.28
0.09
-0.15
-0.41
-0.64
-0.81
-0.91
-0.96
-0.94
-0.82
-0.58
-0.19
0.31
0.82
1.21
1.36
1.24
0.88
0.41
-0.03
-0.31
-0.39
-0.27
0.02
0.37
0.68
0.87
0.88
0.75
0.54
0.35
0.21
0.16
0.13
0.09
0.02
-0.06
-0.12
-0.10
-0.02
0.10
0.19
0.18
0.08
-0.07
-0.19
-0.24
-0.22
-0.20
-0.25
-0.39
-0.54
-0.54
-0.29
0.21
0.84
1.38
1.62
1.50
1.10
0.59
0.15
-0.16
-0.37
-0.56
-0.77
-1.01
-1.21
-1.32
-1.28
-1.11
-0.85
-0.53
-0.21
0.07
0.25
0.28
0.17
-0.06
-0.30
-0.45
-0.43
-0.24
0.07
0.39
0.65
0.76
0.74
0.62
0.45
0.28
0.13
-0.01
-0.18
-0.39
-0.61
-0.77
-0.81
-0.70
-0.49
-0.22
0.04
0.24
0.37
0.44
0.44
0.39
0.30
0.19
0.09
0.02
-0.01
0.01
0.06
0.12
0.19
0.21
0.16
0.04
-0.11
-0.24
-0.27
-0.21
-0.06
0.12
0.26
0.34
0.35
0.31
0.21
0.07
-0.09
-0.25
-0.35
-0.38
-0.30
-0.12
0.14
0.43
0.66
0.77
0.70
0.45
0.09
-0.29
-0.55
-0.63
-0.50
-0.21
0.12
0.37
0.47
0.38
0.12
-0.24
-0.61
-0.88
-0.96
-0.83
-0.53
-0.15
0.18
0.37
0.42
0.36
0.31
0.35
0.49
0.69
0.85
0.87
0.74
0.49
0.20
-0.06
-0.27
-0.42
-0.50
-0.52
-0.43
-0.21
0.15
0.58
0.96
1.14
1.05
0.72
0.27
-0.11
-0.33
-0.40
-0.40
-0.43
-0.53
-0.63
-0.62
-0.42
-0.06
0.36
0.69
0.83
0.73
0.46
0.09
-0.28
-0.60
-0.80
-0.87
-0.80
-0.60
-0.34
-0.09
0.08
0.17
0.19
0.19
0.17
0.15
0.10
0.03
-0.05
-0.10
-0.09
-0.02
0.06
0.10
0.07
0.00
-0.07
-0.11
-0.12
-0.11
-0.07
0.04
0.26
0.58
0.90
1.08
1.02
0.67
0.14
-0.42
-0.84
-1.05
-1.07
-0.96
-0.82
-0.69
-0.58
-0.44
-0.24
0.01
0.27
0.46
0.47
0.26
-0.15
-0.65
-1.09
-1.32
-1.26
-0.93
-0.43
0.10
0.52
0.77
0.87
0.86
0.80
0.73
0.65
0.55
0.45
0.36
0.29
0.26
0.23
0.19
0.13
0.09
0.07
0.09
0.09
0.06
0.01
-0.03
0.01
0.14
0.28
0.35
0.26
0.03
-0.24
-0.43
-0.48
-0.40
-0.27
-0.19
-0.21
-0.31
-0.45
-0.55
-0.59
-0.58
-0.55
-0.51
-0.44
-0.32
-0.10
0.18
0.46
0.63
0.62
0.43
0.12
-0.22
-0.47
-0.58
-0.53
-0.34
-0.04
0.32
0.66
0.88
0.90
0.73
0.45
0.22
0.15
0.28
0.53
0.77
0.84
0.71
0.41
0.05
-0.25
-0.44
-0.51
-0.49
-0.38
-0.21
0.02
0.27
0.49
0.62
0.59
0.37
0.01
-0.39
-0.70
-0.83
-0.80
-0.68
-0.59
-0.59
-0.63
-0.62
-0.45
-0.12
0.28
0.60
0.72
0.63
0.41
0.18
0.01
-0.10
-0.20
-0.33
-0.48
-0.61
-0.65
-0.58
-0.40
-0.16
0.08
0.25
0.28
0.16
-0.05
-0.24
-0.31
-0.24
-0.08
0.04
-0.00
-0.24
-0.56
-0.82
-0.85
-0.60
-0.16
0.30
0.62
0.72
0.60
0.39
0.22
0.18
0.26
0.43
0.60
0.70
0.72
0.69
0.65
0.67
0.73
0.80
0.85
0.86
0.80
0.72
0.63
0.56
0.50
0.42
0.29
0.08
-0.19
-0.47
-0.65
-0.65
-0.45
-0.09
0.32
0.63
0.75
0.65
0.37
0.00
-0.33
-0.57
-0.69
-0.73
-0.73
-0.73
-0.72
-0.69
-0.63
-0.52
-0.39
-0.30
-0.27
-0.33
-0.42
-0.49
-0.47
-0.39
-0.27
-0.16
-0.10
-0.08
-0.07
-0.07
-0.10
-0.13
-0.17
-0.19
-0.15
-0.07
-0.01
-0.03
-0.20
-0.50
-0.84
-1.07
-1.09
-0.85
-0.38
0.21
0.77
1.14
1.20
0.91
0.34
-0.32
-0.83
-1.01
-0.77
-0.21
0.47
1.03
1.29
1.22
0.93
0.59
0.35
0.28
0.37
0.54
0.69
0.77
0.79
0.80
0.84
0.88
0.88
0.75
0.47
0.09
-0.27
-0.51
-0.54
-0.41
-0.21
-0.10
-0.14
-0.35
-0.65
-0.92
-1.07
-1.06
-0.88
-0.61
-0.31
-0.04
0.16
0.26
0.26
0.15
-0.05
-0.30
-0.53
-0.69
-0.71
-0.62
-0.43
-0.19
0.07
0.30
0.49
0.61
0.61
0.48
0.25
0.01
-0.12
-0.08
0.11
0.37
0.56
0.58
0.40
0.10
-0.20
-0.38
-0.38
-0.21
0.03
0.23
0.27
0.13
-0.16
-0.48
-0.70
-0.70
-0.48
-0.11
0.24
0.41
0.30
-0.04
-0.45
-0.75
-0.81
-0.64
-0.36
-0.10
0.07
0.14
0.19
0.27
0.36
0.40
0.33
0.15
-0.05
-0.18
-0.15
0.04
0.31
0.56
0.71
0.76
0.76
0.76
0.80
0.86
0.86
0.75
0.49
0.11
-0.29
-0.59
-0.70
-0.60
-0.35
-0.05
0.19
0.30
0.25
0.08
-0.17
-0.42
-0.59
-0.64
-0.60
-0.52
-0.44
-0.37
-0.28
-0.13
0.07
0.28
0.40
0.35
0.16
-0.09
-0.25
-0.24
-0.06
0.22
0.51
0.74
0.85
0.83
0.67
0.39
0.06
-0.25
-0.45
-0.47
-0.36
-0.20
-0.06
-0.00
0.00
-0.03
-0.07
-0.12
-0.19
-0.26
-0.29
-0.20
0.00
0.26
0.49
0.57
0.48
0.28
0.07
-0.04
-0.05
0.01
0.03
-0.04
-0.20
-0.39
-0.51
-0.52
-0.41
-0.24
-0.07
0.05
0.11
0.12
0.11
0.09
0.10
0.14
0.20
0.25
0.26
0.22
0.13
0.04
-0.03
-0.08
-0.12
-0.20
-0.35
-0.53
-0.68
-0.72
-0.64
-0.46
-0.29
-0.20
-0.23
-0.34
-0.44
-0.42
-0.25
0.02
0.27
0.38
0.25
-0.04
-0.34
-0.46
-0.29
0.09
0.51
0.76
0.72
0.48
0.23
0.15
0.34
0.70
1.05
1.21
1.13
0.89
0.65
0.50
0.46
0.43
0.35
0.19
-0.01
-0.18
-0.28
-0.34
-0.39
-0.45
-0.49
-0.47
-0.35
-0.16
0.04
0.16
0.19
0.13
0.06
0.04
0.09
0.15
0.16
0.02
-0.30
-0.76
-1.24
-1.57
-1.60
-1.29
-0.73
-0.12
0.33
0.52
0.45
0.25
0.07
0.02
0.11
0.30
0.48
0.58
0.53
0.37
0.15
-0.08
-0.25
-0.34
-0.33
-0.23
-0.02
0.26
0.54
0.73
0.74
0.57
0.27
-0.07
-0.32
-0.46
-0.52
-0.58
-0.68
-0.80
-0.86
-0.81
-0.66
-0.49
-0.38
-0.36
-0.34
-0.22
0.06
0.42
0.74
0.89
0.82
0.63
0.44
0.36
0.39
0.43
0.42
0.34
0.27
0.30
0.43
0.60
0.69
0.61
0.40
0.16
-0.01
-0.08
-0.09
-0.11
-0.19
-0.33
-0.46
-0.50
-0.44
-0.29
-0.10
0.07
0.22
0.33
0.43
0.50
0.53
0.50
0.37
0.17
-0.08
-0.31
-0.47
-0.55
-0.59
-0.62
-0.72
-0.87
-1.03
-1.13
-1.10
-0.92
-0.60
-0.20
0.23
0.60
0.87
0.99
0.97
0.85
0.69
0.54
0.42
0.32
0.22
0.12
0.02
-0.07
-0.14
-0.20
-0.26
-0.29
-0.28
-0.20
-0.08
0.07
0.19
0.24
0.21
0.12
0.02
-0.07
-0.18
-0.35
-0.58
-0.82
-0.95
-0.87
-0.51
0.04
0.59
0.94
0.95
0.63
0.14
-0.33
-0.63
-0.70
-0.59
-0.37
-0.10
0.20
0.52
0.77
0.87
0.75
0.44
0.06
-0.20
-0.20
0.08
0.50
0.87
1.02
0.89
0.55
0.11
-0.28
-0.54
-0.63
-0.60
-0.53
-0.46
-0.45
-0.45
-0.44
-0.34
-0.16
0.04
0.18
0.22
0.15
0.06
0.02
0.08
0.23
0.40
0.52
0.55
0.52
0.47
0.42
0.41
0.40
0.37
0.30
0.15
-0.12
-0.47
-0.83
-1.07
-1.11
-0.89
-0.47
0.02
0.44
0.71
0.79
0.69
0.46
0.15
-0.22
-0.59
-0.91
-1.14
-1.21
-1.12
-0.89
-0.58
-0.29
-0.11
-0.09
-0.22
-0.39
-0.47
-0.38
-0.11
0.18
0.36
0.31
0.07
-0.21
-0.35
-0.26
0.05
0.43
0.71
0.83
0.79
0.69
0.59
0.51
0.44
0.34
0.22
0.12
0.10
0.18
0.34
0.51
0.59
0.56
0.41
0.22
0.04
-0.09
-0.15
-0.17
-0.18
-0.20
-0.26
-0.33
-0.41
-0.46
-0.44
-0.32
-0.13
0.09
0.27
0.35
0.30
0.16
0.01
-0.05
0.02
0.19
0.41
0.58
0.65
0.59
0.44
0.24
0.03
-0.15
-0.30
-0.41
-0.48
-0.47
-0.36
-0.14
0.12
0.32
0.36
0.20
-0.11
-0.44
-0.65
-0.65
-0.45
-0.13
0.20
0.44
0.54
0.49
0.31
0.05
-0.21
-0.40
-0.46
-0.40
-0.28
-0.18
-0.17
-0.26
-0.39
-0.46
-0.43
-0.29
-0.12
0.01
0.03
-0.05
-0.15
-0.18
-0.06
0.22
0.59
0.95
1.17
1.18
0.95
0.55
0.06
-0.42
-0.77
-0.93
-0.89
-0.66
-0.35
-0.05
0.14
0.19
0.12
0.00
-0.10
-0.15
-0.10
0.07
0.36
0.73
1.07
1.23
1.12
0.73
0.22
-0.23
-0.43
-0.35
-0.09
0.19
0.33
0.30
0.17
0.04
-0.03
-0.04
-0.05
-0.12
-0.28
-0.46
-0.60
-0.66
-0.62
-0.53
-0.44
-0.40
-0.42
-0.43
-0.38
-0.24
-0.08
0.05
0.07
0.03
0.02
0.14
0.40
0.71
0.90
0.90
0.70
0.42
0.18
0.02
-0.08
-0.20
-0.34
-0.48
-0.51
-0.43
-0.26
-0.12
-0.07
-0.14
-0.24
-0.28
-0.21
-0.06
0.13
0.30
0.45
0.56
0.59
0.49
0.23
-0.15
-0.57
-0.90
-1.05
-0.98
-0.77
-0.52
-0.33
-0.21
-0.17
-0.14
-0.10
-0.03
0.04
0.11
0.14
0.16
0.17
0.18
0.22
0.26
0.29
0.28
0.23
0.16
0.10
0.09
0.14
0.26
0.39
0.50
0.54
0.52
0.44
0.31
0.15
0.00
-0.08
-0.06
0.08
0.29
0.47
0.50
0.31
-0.05
-0.44
-0.68
-0.68
-0.43
-0.04
0.29
0.42
0.31
0.05
-0.23
-0.41
-0.43
-0.34
-0.24
-0.20
-0.27
-0.38
-0.47
-0.46
-0.32
-0.08
0.16
0.33
0.38
0.29
0.10
-0.10
-0.25
-0.30
-0.24
-0.10
0.06
0.21
0.33
0.43
0.54
0.63
0.65
0.55
0.35
0.08
-0.15
-0.27
-0.25
-0.12
0.03
0.14
0.17
0.12
0.03
-0.06
-0.13
-0.15
-0.14
-0.13
-0.12
-0.14
-0.15
-0.10
0.04
0.26
0.45
0.48
0.29
-0.11
-0.58
-0.95
-1.11
-1.05
-0.84
-0.57
-0.29
-0.00
0.30
0.58
0.74
0.70
0.43
0.02
-0.39
-0.63
-0.65
-0.49
-0.26
-0.09
-0.03
-0.05
-0.06
0.04
0.24
0.49
0.69
0.80
0.82
0.80
0.82
0.89
0.96
0.95
0.80
0.52
0.23
0.02
-0.05
-0.02
-0.02
-0.15
-0.44
-0.80
-1.07
-1.10
-0.84
-0.39
0.08
0.42
0.52
0.41
0.17
-0.11
-0.37
-0.56
-0.69
-0.73
-0.63
-0.39
-0.01
0.42
0.78
0.94
0.84
0.52
0.06
-0.38
-0.67
-0.76
-0.66
-0.42
-0.13
0.14
0.35
0.48
0.51
0.45
0.30
0.09
-0.14
-0.33
-0.46
-0.49
-0.44
-0.31
-0.13
0.08
0.32
0.57
0.83
1.04
1.16
1.13
0.88
0.43
-0.16
-0.76
-1.21
-1.41
-1.33
-1.02
-0.62
-0.26
-0.05
-0.02
-0.09
-0.21
-0.30
-0.37
-0.43
-0.54
-0.72
-0.90
-1.00
-0.93
-0.65
-0.23
0.23
0.62
0.88
0.99
1.01
0.99
0.93
0.85
0.77
0.73
0.77
0.91
1.09
1.18
1.07
0.70
0.14
-0.47
-0.92
-1.06
-0.86
-0.44
-0.00
0.27
0.27
0.04
-0.31
-0.59
-0.71
-0.61
-0.37
-0.08
0.16
0.29
0.31
0.24
0.15
0.07
0.02
0.01
-0.01
-0.07
-0.19
-0.32
-0.39
-0.34
-0.15
0.10
0.31
0.37
0.27
0.07
-0.10
-0.16
-0.11
-0.00
0.05
-0.00
-0.13
-0.26
-0.29
-0.20
-0.01
0.22
0.42
0.57
0.66
0.70
0.70
0.67
0.60
0.50
0.37
0.23
0.12
0.05
0.03
0.06
0.09
0.08
0.01
-0.14
-0.31
-0.44
-0.45
-0.35
-0.21
-0.11
-0.14
-0.27
-0.41
-0.45
-0.32
-0.06
0.17
0.26
0.17
-0.03
-0.17
-0.12
0.09
0.30
0.31
-0.02
-0.60
-1.19
-1.52
-1.44
-0.98
-0.33
0.25
0.62
0.72
0.64
0.47
0.30
0.20
0.16
0.20
0.31
0.50
0.71
0.91
1.02
1.00
0.85
0.57
0.22
-0.12
-0.41
-0.60
-0.72
-0.78
-0.81
-0.84
-0.83
-0.75
-0.56
-0.24
0.14
0.46
0.60
0.46
0.04
-0.54
-1.07
-1.34
-1.24
-0.82
-0.26
0.21
0.45
0.44
0.32
0.22
0.25
0.35
0.42
0.38
0.22
0.05
-0.00
0.16
0.48
0.81
0.99
0.92
0.62
0.21
-0.15
-0.35
-0.37
-0.29
-0.21
-0.21
-0.29
-0.41
-0.46
-0.39
-0.19
0.05
0.20
0.18
-0.01
-0.27
-0.46
-0.44
-0.16
0.33
0.89
1.33
1.48
1.29
0.80
0.18
-0.32
-0.50
-0.27
0.27
0.89
1.34
1.41
1.11
0.57
0.03
-0.32
-0.40
-0.30
-0.14
-0.07
-0.15
-0.32
-0.51
-0.63
-0.67
-0.68
-0.76
-0.96
-1.28
-1.60
-1.78
-1.68
-1.29
-0.72
-0.13
0.30
0.47
0.39
0.14
-0.17
-0.43
-0.58
-0.61
-0.54
-0.40
-0.26
-0.16
-0.10
-0.05
0.01
0.12
0.26
0.39
0.48
0.49
0.44
0.36
0.25
0.12
-0.00
-0.08
-0.04
0.18
0.52
0.88
1.08
1.02
0.69
0.19
-0.30
-0.60
-0.66
-0.49
-0.20
0.09
0.30
0.40
0.41
0.38
0.36
0.38
0.45
0.54
0.62
0.65
0.62
0.53
0.43
0.36
0.32
0.27
0.16
-0.03
-0.29
-0.55
-0.73
-0.79
-0.72
-0.60
-0.47
-0.37
-0.28
-0.16
0.01
0.22
0.40
0.48
0.42
0.26
0.08
0.01
0.10
0.33
0.58
0.70
0.58
0.22
-0.25
-0.64
-0.81
-0.70
-0.39
-0.04
0.24
0.39
0.48
0.58
0.73
0.89
0.95
0.80
0.43
-0.06
-0.49
-0.71
-0.68
-0.47
-0.25
-0.13
-0.15
-0.26
-0.34
-0.31
-0.22
-0.13
-0.15
-0.30
-0.53
-0.74
-0.83
-0.80
-0.68
-0.54
-0.39
-0.22
0.02
0.31
0.58
0.77
0.78
0.64
0.39
0.15
-0.04
-0.18
-0.29
-0.41
-0.49
-0.47
-0.30
-0.03
0.26
0.45
0.47
0.35
0.19
0.06
-0.03
-0.12
-0.26
-0.42
-0.53
-0.50
-0.30
-0.01
0.24
0.32
0.21
-0.02
-0.25
-0.38
-0.36
-0.23
-0.04
0.14
0.30
0.41
0.47
0.47
0.42
0.36
0.32
0.31
0.33
0.34
0.30
0.20
0.06
-0.09
-0.21
-0.27
-0.25
-0.21
-0.18
-0.18
-0.22
-0.25
-0.23
-0.13
0.01
0.12
0.12
0.00
-0.16
-0.24
-0.16
0.11
0.46
0.75
0.82
0.62
0.20
-0.29
-0.71
-0.95
-0.99
-0.86
-0.64
-0.39
-0.17
-0.02
0.09
0.17
0.26
0.37
0.47
0.55
0.60
0.65
0.72
0.80
0.84
0.77
0.53
0.17
-0.20
-0.45
-0.50
-0.38
-0.21
-0.09
-0.08
-0.13
-0.16
-0.14
-0.09
-0.09
-0.20
-0.38
-0.55
-0.62
-0.55
-0.39
-0.23
-0.14
-0.15
-0.20
-0.24
-0.26
-0.24
-0.22
-0.19
-0.13
-0.03
0.08
0.16
0.15
0.05
-0.06
-0.13
-0.06
0.15
0.49
0.89
1.30
1.62
1.77
1.68
1.36
0.84
0.24
-0.30
-0.70
-0.89
-0.89
-0.76
-0.55
-0.34
-0.18
-0.11
-0.14
-0.25
-0.37
-0.47
-0.50
-0.46
-0.34
-0.16
0.06
0.28
0.48
0.59
0.61
0.53
0.38
0.22
0.09
0.03
0.01
0.02
0.03
0.03
0.03
0.04
0.08
0.13
0.19
0.21
0.19
0.10
-0.04
-0.20
-0.36
-0.50
-0.62
-0.70
-0.75
-0.74
-0.68
-0.59
-0.49
-0.45
-0.48
-0.58
-0.71
-0.82
-0.85
-0.76
-0.55
-0.23
0.13
0.50
0.80
0.98
1.02
0.95
0.82
0.69
0.59
0.54
0.53
0.55
0.57
0.57
0.54
0.50
0.46
0.44
0.43
0.40
0.33
0.19
0.02
-0.15
-0.27
-0.31
-0.28
-0.20
-0.10
0.02
0.14
0.22
0.26
0.25
0.20
0.16
0.13
0.14
0.15
0.11
-0.04
-0.27
-0.50
-0.62
-0.55
-0.28
0.07
0.39
0.54
0.48
0.22
-0.15
-0.56
-0.92
-1.20
-1.37
-1.41
-1.33
-1.12
-0.85
-0.57
-0.31
-0.07
0.17
0.43
0.69
0.89
0.96
0.88
0.68
0.47
0.32
0.31
0.38
0.43
0.35
0.13
-0.16
-0.36
-0.38
-0.23
-0.03
0.07
-0.01
-0.24
-0.48
-0.58
-0.45
-0.16
0.18
0.43
0.53
0.48
0.37
0.29
0.28
0.37
0.51
0.66
0.72
0.65
0.41
0.05
-0.37
-0.75
-1.01
-1.11
-1.06
-0.88
-0.64
-0.39
-0.18
-0.04
0.00
-0.05
-0.16
-0.28
-0.38
-0.41
-0.36
-0.25
-0.07
0.15
0.41
0.66
0.87
0.97
0.92
0.69
0.34
-0.03
-0.29
-0.34
-0.19
0.07
0.31
0.41
0.36
0.21
0.11
0.15
0.34
0.59
0.78
0.81
0.61
0.23
-0.25
-0.72
-1.06
-1.22
-1.17
-0.92
-0.54
-0.12
0.26
0.52
0.63
0.60
0.45
0.24
0.00
-0.20
-0.33
-0.36
-0.29
-0.13
0.10
0.35
0.60
0.79
0.89
0.88
0.75
0.50
0.19
-0.12
-0.34
-0.41
-0.33
-0.14
0.05
0.15
0.08
-0.18
-0.55
-0.88
-1.05
-0.98
-0.72
-0.36
-0.02
0.21
0.33
0.35
0.33
0.29
0.22
0.16
0.11
0.10
0.15
0.24
0.32
0.36
0.32
0.22
0.04
-0.21
-0.50
-0.77
-0.93
-0.92
-0.74
-0.47
-0.22
-0.11
-0.14
-0.25
-0.33
-0.28
-0.10
0.14
0.36
0.48
0.49
0.43
0.35
0.31
0.32
0.35
0.39
0.40
0.38
0.33
0.24
0.12
-0.05
-0.25
-0.45
-0.61
-0.68
-0.64
-0.54
-0.41
-0.29
-0.18
-0.04
0.19
0.52
0.91
1.27
1.49
1.52
1.35
1.04
0.65
0.24
-0.13
-0.39
-0.52
-0.51
-0.42
-0.33
-0.32
-0.42
-0.60
-0.81
-0.98
-1.06
-1.03
-0.89
-0.64
-0.32
0.02
0.27
0.37
0.30
0.15
0.03
0.02
0.11
0.18
0.11
-0.15
-0.54
-0.89
-1.05
-0.97
-0.70
-0.40
-0.21
-0.17
-0.23
-0.31
-0.35
-0.31
-0.21
-0.07
0.12
0.34
0.59
0.86
1.08
1.24
1.30
1.25
1.09
0.85
0.53
0.18
-0.15
-0.38
-0.48
-0.45
-0.34
-0.19
-0.05
0.08
0.18
0.26
0.29
0.27
0.20
0.11
0.07
0.07
0.13
0.19
0.20
0.15
0.06
-0.01
-0.04
-0.03
-0.02
-0.04
-0.09
-0.14
-0.11
0.03
0.25
0.47
0.59
0.52
0.26
-0.15
-0.61
-1.06
-1.41
-1.60
-1.57
-1.29
-0.81
-0.25
0.20
0.43
0.44
0.31
0.22
0.25
0.41
0.56
0.59
0.49
0.35
0.29
0.39
0.62
0.83
0.87
0.68
0.32
-0.06
-0.33
-0.38
-0.23
0.06
0.38
0.65
0.75
0.64
0.30
-0.19
-0.70
-1.06
-1.15
-0.97
-0.61
-0.21
0.08
0.21
0.24
0.21
0.19
0.19
0.17
0.12
0.04
-0.03
-0.05
-0.01
0.07
0.13
0.14
0.10
0.02
-0.04
-0.07
-0.08
-0.10
-0.18
-0.30
-0.42
-0.46
-0.38
-0.19
0.05
0.26
0.36
0.33
0.23
0.13
0.08
0.09
0.10
0.04
-0.16
-0.47
-0.75
-0.84
-0.61
-0.08
0.59
1.13
1.32
1.10
0.61
0.09
-0.23
-0.25
-0.03
0.26
0.47
0.51
0.44
0.31
0.23
0.21
0.20
0.15
0.01
-0.20
-0.42
-0.55
-0.54
-0.41
-0.21
-0.08
-0.07
-0.19
-0.37
-0.49
-0.49
-0.38
-0.21
-0.06
0.04
0.12
0.23
0.39
0.58
0.73
0.77
0.69
0.52
0.35
0.24
0.23
0.29
0.35
0.36
0.29
0.16
-0.03
-0.22
-0.39
-0.52
-0.57
-0.52
-0.36
-0.12
0.15
0.34
0.38
0.25
-0.01
-0.31
-0.57
-0.72
-0.78
-0.77
-0.72
-0.63
-0.51
-0.40
-0.34
-0.36
-0.48
-0.62
-0.69
-0.58
-0.27
0.18
0.66
1.05
1.26
1.28
1.12
0.85
0.53
0.26
0.10
0.09
0.20
0.37
0.47
0.46
0.30
0.03
-0.28
-0.56
-0.78
-0.88
-0.85
-0.70
-0.46
-0.18
0.08
0.30
0.47
0.59
0.66
0.65
0.53
0.30
0.01
-0.30
-0.57
-0.75
-0.82
-0.76
-0.57
-0.26
0.11
0.42
0.58
0.54
0.36
0.14
0.02
0.08
0.27
0.48
0.60
0.57
0.42
0.22
0.09
0.07
0.15
0.26
0.33
0.27
0.10
-0.12
-0.29
-0.33
-0.25
-0.11
-0.03
-0.07
-0.24
-0.45
-0.61
-0.67
-0.63
-0.56
-0.54
-0.60
-0.70
-0.79
-0.85
-0.87
-0.85
-0.80
-0.71
-0.52
-0.23
0.15
0.55
0.85
0.96
0.85
0.56
0.18
-0.14
-0.34
-0.43
-0.46
-0.50
-0.56
-0.59
-0.51
-0.26
0.10
0.48
0.78
0.97
1.08
1.22
1.41
1.60
1.67
1.50
1.08
0.50
-0.08
-0.52
-0.76
-0.81
-0.74
-0.63
-0.50
-0.38
-0.25
-0.13
-0.03
0.03
0.04
-0.03
-0.15
-0.27
-0.34
-0.31
-0.20
-0.06
0.02
-0.01
-0.15
-0.33
-0.45
-0.46
-0.35
-0.19
-0.04
0.08
0.19
0.31
0.45
0.56
0.60
0.54
0.40
0.25
0.16
0.17
0.24
0.31
0.31
0.26
0.22
0.27
0.43
0.63
0.74
0.67
0.41
0.04
-0.29
-0.48
-0.52
-0.49
-0.48
-0.53
-0.56
-0.46
-0.20
0.21
0.59
0.80
0.71
0.34
-0.17
-0.62
-0.84
-0.79
-0.51
-0.19
0.03
0.10
0.04
-0.03
-0.02
0.08
0.18
0.15
-0.08
-0.47
-0.88
-1.13
-1.16
-0.96
-0.63
-0.28
0.03
0.28
0.47
0.61
0.67
0.64
0.54
0.36
0.15
-0.08
-0.29
-0.42
-0.42
-0.28
-0.02
0.23
0.39
0.41
0.34
0.31
0.38
0.54
0.66
0.60
0.31
-0.15
-0.59
-0.87
-0.95
-0.88
-0.81
-0.82
-0.88
-0.89
-0.75
-0.43
-0.02
0.31
0.47
0.41
0.23
0.05
-0.01
0.08
0.26
0.41
0.46
0.40
0.32
0.30
0.42
0.67
0.97
1.20
1.28
1.21
1.04
0.88
0.78
0.72
0.65
0.48
0.21
-0.14
-0.48
-0.72
-0.83
-0.81
-0.72
-0.65
-0.65
-0.74
-0.87
-0.97
-0.98
-0.87
-0.63
-0.33
-0.04
0.19
0.32
0.35
0.32
0.30
0.33
0.43
0.58
0.71
0.76
0.68
0.50
0.26
0.02
-0.17
-0.33
-0.49
-0.66
-0.81
-0.86
-0.73
-0.39
0.08
0.56
0.92
1.05
0.97
0.75
0.52
0.35
0.29
0.28
0.28
0.22
0.09
-0.13
-0.39
-0.61
-0.76
-0.79
-0.72
-0.60
-0.51
-0.50
-0.55
-0.61
-0.57
-0.36
0.02
0.48
0.88
1.07
1.01
0.74
0.35
-0.02
-0.31
-0.49
-0.57
-0.58
-0.54
-0.48
-0.40
-0.33
-0.28
-0.26
-0.26
-0.26
-0.21
-0.11
0.06
0.28
0.48
0.62
0.66
0.61
0.50
0.41
0.36
0.34
0.29
0.14
-0.08
-0.30
-0.39
-0.29
-0.03
0.29
0.52
0.61
0.56
0.47
0.43
0.45
0.49
0.47
0.33
0.11
-0.12
-0.29
-0.37
-0.39
-0.39
-0.42
-0.47
-0.50
-0.47
-0.35
-0.16
0.04
0.17
0.15
-0.03
-0.34
-0.69
-0.99
-1.15
-1.15
-0.98
-0.67
-0.30
0.07
0.39
0.59
0.63
0.51
0.26
-0.05
-0.31
-0.46
-0.43
-0.27
-0.06
0.11
0.13
0.01
-0.18
-0.33
-0.35
-0.19
0.09
0.40
0.61
0.68
0.59
0.42
0.27
0.19
0.23
0.36
0.53
0.67
0.74
0.71
0.58
0.39
0.22
0.11
0.06
0.06
0.03
-0.05
-0.15
-0.24
-0.25
-0.19
-0.09
-0.01
-0.01
-0.08
-0.14
-0.13
0.01
0.23
0.46
0.60
0.62
0.52
0.35
0.15
-0.04
-0.22
-0.38
-0.51
-0.58
-0.61
-0.58
-0.51
-0.41
-0.30
-0.19
-0.11
-0.09
-0.12
-0.20
-0.27
-0.30
-0.26
-0.16
-0.06
-0.02
-0.07
-0.21
-0.36
-0.44
-0.40
-0.20
0.13
0.50
0.83
1.01
1.02
0.87
0.61
0.33
0.08
-0.11
-0.26
-0.37
-0.44
-0.46
-0.43
-0.37
-0.32
-0.30
-0.35
-0.42
-0.45
-0.39
-0.22
0.03
0.27
0.42
0.44
0.35
0.23
0.13
0.09
0.10
0.12
0.16
0.23
0.35
0.52
0.70
0.81
0.79
0.65
0.44
0.21
0.04
-0.04
-0.07
-0.06
-0.05
-0.06
-0.09
-0.13
-0.15
-0.15
-0.15
-0.19
-0.30
-0.47
-0.65
-0.78
-0.77
-0.63
-0.42
-0.23
-0.16
-0.21
-0.34
-0.45
-0.46
-0.39
-0.30
-0.29
-0.36
-0.47
-0.50
-0.37
-0.08
0.25
0.51
0.61
0.58
0.52
0.51
0.58
0.69
0.75
0.68
0.50
0.24
-0.01
-0.24
-0.40
-0.46
-0.40
-0.18
0.17
0.56
0.84
0.88
0.64
0.21
-0.22
-0.47
-0.47
-0.27
0.00
0.19
0.21
0.09
-0.11
-0.30
-0.44
-0.47
-0.37
-0.17
0.11
0.40
0.61
0.68
0.62
0.47
0.29
0.12
-0.07
-0.28
-0.50
-0.63
-0.59
-0.33
0.08
0.50
0.73
0.66
0.33
-0.15
-0.57
-0.78
-0.76
-0.58
-0.36
-0.20
-0.15
-0.16
-0.17
-0.12
-0.03
0.06
0.11
0.10
0.03
-0.05
-0.10
-0.10
-0.05
0.06
0.20
0.35
0.44
0.46
0.39
0.28
0.20
0.21
0.32
0.48
0.61
0.63
0.50
0.26
-0.01
-0.23
-0.32
-0.29
-0.16
-0.03
0.02
-0.06
-0.25
-0.45
-0.56
-0.49
-0.26
0.06
0.35
0.53
0.58
0.54
0.47
0.43
0.40
0.36
0.27
0.10
-0.12
-0.32
-0.48
-0.57
-0.60
-0.60
-0.62
-0.65
-0.67
-0.67
-0.64
-0.57
-0.48
-0.37
-0.21
0.00
0.25
0.46
0.56
0.53
0.39
0.25
0.20
0.28
0.45
0.62
0.71
0.66
0.48
0.26
0.02
-0.17
-0.34
-0.47
-0.56
-0.58
-0.52
-0.35
-0.12
0.13
0.35
0.51
0.60
0.65
0.66
0.61
0.48
0.24
-0.07
-0.37
-0.57
-0.57
-0.38
-0.08
0.21
0.37
0.34
0.15
-0.13
-0.39
-0.54
-0.55
-0.43
-0.24
-0.05
0.08
0.12
0.11
0.11
0.14
0.19
0.19
0.12
-0.03
-0.21
-0.33
-0.34
-0.26
-0.18
-0.20
-0.35
-0.58
-0.78
-0.81
-0.64
-0.30
0.08
0.40
0.60
0.70
0.76
0.82
0.89
0.92
0.85
0.66
0.40
0.14
-0.03
-0.11
-0.11
-0.11
-0.13
-0.21
-0.33
-0.51
-0.71
-0.92
-1.06
-1.07
-0.94
-0.68
-0.38
-0.14
-0.02
-0.01
-0.07
-0.14
-0.16
-0.12
-0.03
0.10
0.27
0.45
0.62
0.71
0.65
0.45
0.17
-0.09
-0.22
-0.17
-0.00
0.17
0.26
0.24
0.19
0.21
0.34
0.51
0.62
0.57
0.36
0.11
-0.03
0.02
0.20
0.35
0.33
0.07
-0.33
-0.70
-0.89
-0.85
-0.63
-0.37
-0.19
-0.16
-0.26
-0.43
-0.60
-0.70
-0.68
-0.52
-0.19
0.24
0.67
0.97
1.03
0.81
0.38
-0.10
-0.44
-0.54
-0.39
-0.05
0.34
0.70
0.97
1.14
1.17
1.05
0.75
0.35
-0.06
-0.35
-0.43
-0.34
-0.16
-0.03
-0.03
-0.15
-0.30
-0.39
-0.36
-0.22
-0.05
0.09
0.14
0.12
0.03
-0.07
-0.18
-0.26
-0.31
-0.33
-0.30
-0.21
-0.09
0.02
0.05
-0.09
-0.40
-0.84
-1.29
-1.58
-1.61
-1.33
-0.81
-0.18
0.40
0.84
1.07
1.11
1.02
0.89
0.81
0.82
0.94
1.08
1.18
1.16
1.01
0.77
0.50
0.27
0.11
0.03
-0.00
-0.03
-0.09
-0.20
-0.33
-0.47
-0.54
-0.51
-0.39
-0.22
-0.06
0.04
0.09
0.11
0.13
0.16
0.17
0.15
0.10
0.05
0.08
0.18
0.34
0.47
0.51
0.42
0.23
0.01
-0.15
-0.24
-0.24
-0.19
-0.15
-0.15
-0.21
-0.31
-0.43
-0.53
-0.59
-0.59
-0.52
-0.41
-0.26
-0.09
0.11
0.35
0.59
0.75
0.75
0.56
0.20
-0.20
-0.54
-0.73
-0.78
-0.74
-0.67
-0.58
-0.46
-0.33
-0.20
-0.13
-0.13
-0.17
-0.18
-0.12
0.01
0.13
0.15
0.06
-0.06
-0.10
0.04
0.31
0.59
0.69
0.52
0.09
-0.45
-0.91
-1.16
-1.14
-0.87
-0.43
0.10
0.60
0.98
1.18
1.19
1.04
0.80
0.52
0.26
0.04
-0.12
-0.15
-0.02
0.25
0.56
0.81
0.86
0.73
0.47
0.19
-0.06
-0.30
-0.59
-0.96
-1.35
-1.62
-1.64
-1.37
-0.93
-0.49
-0.22
-0.17
-0.26
-0.37
-0.39
-0.30
-0.14
-0.00
0.07
0.12
0.20
0.37
0.64
0.94
1.18
1.28
1.21
1.04
0.83
0.65
0.56
0.55
0.63
0.74
0.82
0.79
0.60
0.25
-0.18
-0.57
-0.81
-0.87
-0.78
-0.64
-0.53
-0.49
-0.51
-0.56
-0.63
-0.70
-0.75
-0.74
-0.63
-0.40
-0.07
0.29
0.63
0.87
0.98
0.94
0.75
0.43
0.03
-0.38
-0.73
-0.98
-1.10
-1.10
-0.98
-0.76
-0.46
-0.11
0.24
0.55
0.80
0.96
1.04
1.05
0.98
0.85
0.68
0.47
0.25
0.03
-0.20
-0.44
-0.63
-0.75
-0.75
-0.62
-0.39
-0.13
0.09
0.18
0.13
-0.05
-0.30
-0.53
-0.72
-0.88
-1.04
-1.18
-1.24
-1.13
-0.78
-0.24
0.35
0.81
1.00
0.92
0.71
0.56
0.59
0.78
0.99
1.04
0.85
0.46
0.04
-0.27
-0.39
-0.32
-0.16
0.01
0.13
0.18
0.17
0.14
0.09
0.05
-0.00
-0.08
-0.21
-0.39
-0.53
-0.55
-0.36
0.07
0.65
1.19
1.52
1.51
1.20
0.72
0.25
-0.06
-0.19
-0.18
-0.15
-0.22
-0.41
-0.71
-1.00
-1.21
-1.26
-1.15
-0.92
-0.63
-0.31
0.01
0.34
0.65
0.88
0.99
0.95
0.77
0.52
0.31
0.24
0.33
0.55
0.76
0.85
0.75
0.46
0.08
-0.27
-0.46
-0.44
-0.21
0.11
0.40
0.51
0.39
0.03
-0.46
-0.91
-1.18
-1.17
-0.91
-0.47
-0.00
0.36
0.55
0.55
0.39
0.12
-0.18
-0.44
-0.61
-0.66
-0.59
-0.46
-0.37
-0.40
-0.55
-0.78
-0.94
-0.90
-0.62
-0.16
0.27
0.50
0.43
0.13
-0.22
-0.45
-0.45
-0.25
0.04
0.29
0.42
0.46
0.48
0.54
0.65
0.76
0.79
0.71
0.52
0.33
0.20
0.19
0.27
0.34
0.32
0.18
-0.05
-0.27
-0.42
-0.44
-0.34
-0.17
0.02
0.20
0.33
0.40
0.41
0.35
0.28
0.23
0.23
0.27
0.29
0.26
0.17
0.05
-0.05
-0.10
-0.10
-0.11
-0.14
-0.19
-0.21
-0.16
-0.05
0.06
0.09
-0.01
-0.18
-0.32
-0.34
-0.21
0.02
0.24
0.38
0.38
0.27
0.06
-0.21
-0.52
-0.83
-1.06
-1.15
-1.05
-0.81
-0.49
-0.20
-0.01
0.07
0.05
-0.03
-0.15
-0.31
-0.50
-0.67
-0.75
-0.66
-0.39
0.00
0.40
0.64
0.64
0.42
0.08
-0.22
-0.38
-0.36
-0.21
-0.03
0.14
0.27
0.37
0.39
0.31
0.09
-0.25
-0.59
-0.81
-0.79
-0.52
-0.08
0.38
0.74
0.91
0.90
0.77
0.61
0.49
0.44
0.47
0.54
0.57
0.54
0.42
0.25
0.10
0.04
0.10
0.27
0.47
0.64
0.71
0.65
0.48
0.22
-0.07
-0.32
-0.47
-0.47
-0.36
-0.20
-0.08
-0.07
-0.19
-0.37
-0.49
-0.50
-0.37
-0.15
0.06
0.20
0.23
0.19
0.13
0.06
0.01
-0.05
-0.15
-0.27
-0.35
-0.34
-0.18
0.11
0.46
0.77
0.94
0.95
0.80
0.57
0.33
0.13
-0.00
-0.06
-0.05
0.02
0.11
0.19
0.21
0.15
0.01
-0.23
-0.51
-0.80
-1.06
-1.20
-1.20
-1.07
-0.86
-0.64
-0.50
-0.46
-0.51
-0.56
-0.57
-0.51
-0.42
-0.36
-0.38
-0.51
-0.70
-0.88
-0.98
-0.95
-0.79
-0.54
-0.22
0.13
0.49
0.81
1.06
1.20
1.22
1.11
0.89
0.56
0.15
-0.28
-0.64
-0.81
-0.73
-0.39
0.09
0.58
0.93
1.11
1.14
1.11
1.08
1.10
1.14
1.19
1.21
1.19
1.12
1.01
0.87
0.72
0.58
0.47
0.33
0.14
-0.12
-0.42
-0.68
-0.83
-0.83
-0.74
-0.60
-0.46
-0.33
-0.20
-0.08
0.02
0.04
-0.03
-0.18
-0.35
-0.49
-0.58
-0.63
-0.67
-0.69
-0.66
-0.53
-0.29
0.03
0.37
0.63
0.79
0.82
0.76
0.64
0.50
0.36
0.24
0.16
0.14
0.17
0.20
0.16
0.01
-0.23
-0.51
-0.75
-0.86
-0.83
-0.65
-0.37
-0.04
0.28
0.51
0.61
0.56
0.40
0.20
0.05
0.00
0.06
0.19
0.32
0.39
0.38
0.28
0.11
-0.10
-0.31
-0.48
-0.60
-0.66
-0.68
-0.71
-0.77
-0.88
-1.02
-1.10
-1.08
-0.90
-0.58
-0.20
0.13
0.34
0.40
0.36
0.29
0.25
0.27
0.36
0.52
0.69
0.83
0.87
0.77
0.53
0.21
-0.08
-0.28
-0.33
-0.25
-0.07
0.14
0.36
0.55
0.67
0.64
0.43
0.07
-0.34
-0.66
-0.79
-0.72
-0.51
-0.29
-0.15
-0.14
-0.25
-0.44
-0.64
-0.82
-0.90
-0.84
-0.63
-0.33
-0.01
0.19
0.24
0.17
0.06
-0.00
0.04
0.18
0.37
0.54
0.69
0.78
0.82
0.81
0.75
0.62
0.42
0.19
-0.06
-0.28
-0.46
-0.56
-0.56
-0.44
-0.22
0.07
0.35
0.55
0.65
0.62
0.50
0.34
0.16
-0.05
-0.31
-0.59
-0.84
-0.94
-0.80
-0.41
0.14
0.65
0.93
0.88
0.54
0.05
-0.38
-0.61
-0.59
-0.38
-0.11
0.12
0.25
0.30
0.31
0.34
0.36
0.35
0.26
0.09
-0.11
-0.24
-0.26
-0.15
0.04
0.23
0.36
0.41
0.35
0.17
-0.11
-0.48
-0.85
-1.13
-1.23
-1.10
-0.82
-0.48
-0.19
0.03
0.19
0.35
0.50
0.57
0.46
0.13
-0.35
-0.81
-1.05
-0.95
-0.54
0.00
0.48
0.74
0.77
0.66
0.55
0.55
0.69
0.92
1.12
1.20
1.10
0.80
0.41
0.04
-0.19
-0.23
-0.13
-0.02
-0.00
-0.13
-0.34
-0.52
-0.57
-0.46
-0.24
-0.04
0.08
0.10
0.07
0.01
-0.04
-0.11
-0.21
-0.31
-0.37
-0.37
-0.30
-0.19
-0.11
-0.07
-0.05
0.01
0.13
0.26
0.34
0.30
0.13
-0.11
-0.32
-0.40
-0.31
-0.12
0.09
0.24
0.29
0.29
0.27
0.29
0.35
0.38
0.31
0.11
-0.18
-0.44
-0.55
-0.46
-0.22
0.03
0.14
0.03
-0.26
-0.58
-0.79
-0.83
-0.70
-0.49
-0.29
-0.12
-0.01
0.06
0.07
0.01
-0.13
-0.31
-0.46
-0.47
-0.29
0.03
0.39
0.66
0.79
0.80
0.77
0.79
0.89
1.03
1.12
1.08
0.90
0.65
0.40
0.21
0.10
0.02
-0.08
-0.20
-0.33
-0.42
-0.46
-0.46
-0.45
-0.44
-0.42
-0.35
-0.23
-0.05
0.11
0.21
0.21
0.16
0.14
0.22
0.42
0.65
0.79
0.74
0.52
0.19
-0.14
-0.41
-0.59
-0.70
-0.78
-0.78
-0.68
-0.44
-0.10
0.27
0.54
0.62
0.48
0.17
-0.20
-0.53
-0.72
-0.75
-0.65
-0.48
-0.31
-0.19
-0.12
-0.13
-0.21
-0.40
-0.68
-0.99
-1.22
-1.23
-0.98
-0.56
-0.13
0.15
0.22
0.13
0.04
0.07
0.26
0.54
0.79
0.92
0.89
0.77
0.64
0.56
0.53
0.51
0.48
0.43
0.40
0.39
0.39
0.32
0.14
-0.12
-0.41
-0.59
-0.58
-0.40
-0.11
0.16
0.33
0.40
0.42
0.47
0.57
0.68
0.74
0.69
0.53
0.32
0.14
0.06
0.11
0.25
0.41
0.53
0.55
0.45
0.24
-0.04
-0.33
-0.56
-0.64
-0.56
-0.37
-0.15
-0.02
-0.01
-0.12
-0.27
-0.38
-0.43
-0.47
-0.56
-0.73
-0.95
-1.14
-1.22
-1.19
-1.06
-0.91
-0.77
-0.63
-0.46
-0.20
0.15
0.54
0.86
1.05
1.10
1.08
1.07
1.08
1.06
0.89
0.49
-0.08
-0.66
-1.05
-1.12
-0.89
-0.55
-0.28
-0.20
-0.29
-0.44
-0.57
-0.64
-0.68
-0.73
-0.74
-0.64
-0.34
0.12
0.62
0.97
1.04
0.84
0.49
0.18
0.05
0.11
0.28
0.43
0.50
0.47
0.37
0.24
0.12
0.01
-0.09
-0.15
-0.16
-0.13
-0.06
0.04
0.19
0.39
0.63
0.85
0.96
0.87
0.59
0.19
-0.17
-0.40
-0.43
-0.29
-0.07
0.15
0.33
0.46
0.54
0.59
0.63
0.65
0.65
0.64
0.60
0.50
0.32
0.05
-0.30
-0.64
-0.87
-0.89
-0.68
-0.32
0.05
0.24
0.20
-0.02
-0.29
-0.48
-0.53
-0.49
-0.47
-0.56
-0.73
-0.90
-0.96
-0.86
-0.64
-0.37
-0.15
0.00
0.13
0.28
0.50
0.76
0.97
1.01
0.80
0.33
-0.30
-0.91
-1.31
-1.32
-0.93
-0.26
0.46
0.96
1.07
0.78
0.28
-0.20
-0.40
-0.24
0.23
0.78
1.19
1.28
1.05
0.61
0.13
-0.26
-0.51
-0.65
-0.73
-0.78
-0.76
-0.62
-0.34
-0.01
0.28
0.37
0.25
-0.03
-0.38
-0.69
-0.88
-0.95
-0.89
-0.69
-0.36
0.06
0.45
0.68
0.64
0.31
-0.19
-0.70
-1.08
-1.26
-1.25
-1.14
-1.01
-0.87
-0.71
-0.48
-0.19
0.10
0.34
0.47
0.51
0.53
0.60
0.76
0.98
1.18
1.27
1.22
1.03
0.79
0.60
0.54
0.61
0.80
1.01
1.12
1.06
0.80
0.39
-0.04
-0.40
-0.61
-0.66
-0.59
-0.48
-0.36
-0.25
-0.15
-0.07
-0.01
-0.01
-0.05
-0.10
-0.07
0.09
0.36
0.67
0.88
0.88
0.64
0.23
-0.24
-0.63
-0.86
-0.91
-0.81
-0.59
-0.29
0.08
0.45
0.75
0.86
0.72
0.34
-0.17
-0.62
-0.86
-0.82
-0.53
-0.14
0.18
0.31
0.25
0.05
-0.14
-0.24
-0.22
-0.15
-0.07
-0.05
-0.06
-0.05
0.01
0.12
0.23
0.26
0.16
-0.01
-0.17
-0.23
-0.15
0.01
0.16
0.19
0.12
-0.01
-0.08
-0.02
0.13
0.28
0.28
0.09
-0.29
-0.71
-1.02
-1.11
-0.95
-0.62
-0.22
0.18
0.52
0.81
1.02
1.12
1.08
0.88
0.58
0.24
-0.03
-0.18
-0.23
-0.21
-0.19
-0.19
-0.26
-0.39
-0.60
-0.87
-1.18
-1.42
-1.52
-1.42
-1.10
-0.64
-0.13
0.33
0.67
0.87
0.94
0.91
0.78
0.60
0.40
0.22
0.12
0.09
0.11
0.13
0.12
0.04
-0.09
-0.25
-0.38
-0.44
-0.39
-0.27
-0.10
0.06
0.21
0.35
0.51
0.68
0.81
0.85
0.74
0.53
0.30
0.15
0.14
0.20
0.25
0.20
0.07
-0.07
-0.13
-0.07
0.07
0.22
0.29
0.28
0.21
0.13
0.03
-0.09
-0.27
-0.51
-0.77
-0.98
-1.07
-1.02
-0.84
-0.59
-0.34
-0.13
-0.04
-0.08
-0.27
-0.55
-0.86
-1.08
-1.13
-0.97
-0.59
-0.08
0.48
0.96
1.29
1.43
1.39
1.20
0.93
0.63
0.36
0.16
0.05
0.02
0.04
0.10
0.17
0.22
0.23
0.20
0.11
-0.01
-0.09
-0.06
0.10
0.40
0.73
0.97
1.03
0.86
0.56
0.22
-0.07
-0.29
-0.50
-0.77
-1.12
-1.47
-1.68
-1.63
-1.32
-0.86
-0.41
-0.13
-0.04
-0.05
-0.02
0.13
0.38
0.62
0.75
0.73
0.61
0.50
0.48
0.56
0.68
0.78
0.81
0.76
0.69
0.63
0.62
0.62
0.57
0.43
0.17
-0.15
-0.44
-0.59
-0.53
-0.29
0.03
0.26
0.29
0.09
-0.25
-0.58
-0.78
-0.82
-0.74
-0.65
-0.60
-0.58
-0.53
-0.38
-0.13
0.15
0.36
0.43
0.36
0.22
0.09
0.02
0.01
0.02
-0.01
-0.10
-0.24
-0.39
-0.51
-0.57
-0.54
-0.43
-0.25
-0.04
0.15
0.28
0.31
0.24
0.10
-0.06
-0.19
-0.22
-0.14
0.06
0.32
0.54
0.62
0.54
0.31
0.03
-0.16
-0.22
-0.14
-0.02
0.06
0.03
-0.08
-0.17
-0.13
0.08
0.41
0.71
0.84
0.70
0.36
-0.05
-0.37
-0.49
-0.45
-0.35
-0.32
-0.43
-0.63
-0.81
-0.86
-0.77
-0.59
-0.44
-0.44
-0.59
-0.80
-0.92
-0.88
-0.64
-0.30
0.03
0.23
0.30
0.27
0.26
0.33
0.48
0.65
0.76
0.76
0.67
0.55
0.45
0.42
0.48
0.61
0.78
0.93
0.99
0.90
0.60
0.13
-0.44
-0.96
-1.29
-1.35
-1.18
-0.86
-0.52
-0.28
-0.17
-0.15
-0.17
-0.17
-0.11
-0.02
0.10
0.24
0.38
0.54
0.69
0.79
0.78
0.65
0.45
0.25
0.15
0.20
0.38
0.62
0.78
0.79
0.62
0.32
-0.03
-0.32
-0.46
-0.45
-0.32
-0.17
-0.07
-0.06
-0.13
-0.21
-0.26
-0.24
-0.12
0.08
0.32
0.55
0.68
0.65
0.40
-0.02
-0.50
-0.90
-1.11
-1.11
-0.97
-0.77
-0.58
-0.42
-0.27
-0.12
0.03
0.15
0.22
0.27
0.32
0.38
0.42
0.40
0.30
0.14
-0.02
-0.12
-0.12
-0.03
0.12
0.28
0.42
0.50
0.46
0.28
-0.04
-0.43
-0.78
-0.97
-0.94
-0.69
-0.35
-0.02
0.17
0.18
0.01
-0.25
-0.49
-0.60
-0.53
-0.27
0.13
0.57
0.96
1.21
1.28
1.18
0.94
0.64
0.35
0.14
0.06
0.10
0.21
0.30
0.29
0.14
-0.12
-0.39
-0.58
-0.62
-0.53
-0.39
-0.28
-0.25
-0.26
-0.25
-0.17
-0.03
0.11
0.14
0.03
-0.18
-0.39
-0.52
-0.50
-0.37
-0.20
-0.05
0.01
0.02
0.01
0.03
0.10
0.18
0.25
0.26
0.21
0.12
0.01
-0.09
-0.17
-0.22
-0.23
-0.21
-0.18
-0.17
-0.19
-0.22
-0.23
-0.18
-0.08
0.04
0.14
0.18
0.16
0.14
0.14
0.19
0.28
0.39
0.51
0.62
0.67
0.63
0.47
0.24
0.03
-0.06
0.01
0.20
0.41
0.53
0.53
0.40
0.23
0.08
0.02
0.06
0.17
0.30
0.36
0.31
0.16
-0.07
-0.30
-0.48
-0.61
-0.72
-0.83
-0.94
-0.96
-0.78
-0.38
0.14
0.62
0.88
0.82
0.53
0.15
-0.11
-0.13
0.11
0.51
0.89
1.10
1.04
0.71
0.22
-0.27
-0.64
-0.80
-0.78
-0.65
-0.49
-0.36
-0.26
-0.20
-0.18
-0.24
-0.40
-0.66
-0.94
-1.10
-1.04
-0.75
-0.32
0.12
0.45
0.63
0.66
0.60
0.47
0.31
0.13
-0.07
-0.23
-0.34
-0.36
-0.28
-0.13
0.05
0.20
0.25
0.16
-0.07
-0.38
-0.67
-0.81
-0.74
-0.46
-0.03
0.41
0.76
0.91
0.88
0.72
0.50
0.28
0.11
-0.03
-0.15
-0.24
-0.28
-0.24
-0.08
0.15
0.37
0.49
0.43
0.22
-0.09
-0.38
-0.58
-0.66
-0.64
-0.55
-0.40
-0.19
0.07
0.36
0.61
0.72
0.65
0.43
0.14
-0.10
-0.20
-0.16
-0.05
0.02
-0.01
-0.11
-0.22
-0.25
-0.15
0.00
0.13
0.14
0.04
-0.12
-0.21
-0.16
0.03
0.26
0.40
0.39
0.27
0.15
0.18
0.40
0.73
1.02
1.13
1.00
0.70
0.35
0.05
-0.18
-0.38
-0.59
-0.79
-0.91
-0.86
-0.64
-0.34
-0.11
-0.04
-0.12
-0.24
-0.27
-0.13
0.12
0.35
0.41
0.24
-0.09
-0.39
-0.49
-0.33
0.05
0.44
0.69
0.71
0.56
0.38
0.27
0.22
0.18
0.04
-0.22
-0.54
-0.78
-0.85
-0.69
-0.38
-0.04
0.20
0.23
0.06
-0.26
-0.60
-0.86
-0.95
-0.87
-0.65
-0.40
-0.16
0.05
0.26
0.46
0.63
0.70
0.62
0.40
0.14
-0.05
-0.06
0.12
0.39
0.61
0.65
0.46
0.10
-0.29
-0.58
-0.68
-0.61
-0.45
-0.31
-0.28
-0.39
-0.63
-0.88
-1.07
-1.09
-0.88
-0.47
0.06
0.56
0.89
0.96
0.80
0.53
0.28
0.15
0.15
0.18
0.16
0.05
-0.09
-0.17
-0.11
0.12
0.42
0.70
0.85
0.86
0.79
0.71
0.65
0.58
0.44
0.19
-0.15
-0.46
-0.63
-0.58
-0.34
-0.01
0.27
0.39
0.37
0.26
0.15
0.09
0.05
-0.00
-0.07
-0.12
-0.10
0.05
0.28
0.53
0.68
0.69
0.60
0.49
0.44
0.46
0.48
0.38
0.11
-0.32
-0.77
-1.11
-1.23
-1.11
-0.81
-0.43
-0.08
0.18
0.31
0.31
0.21
0.05
-0.12
-0.25
-0.34
-0.37
-0.32
-0.18
0.02
0.24
0.34
0.26
-0.02
-0.42
-0.78
-0.97
-0.96
-0.78
-0.52
-0.28
-0.07
0.11
0.28
0.42
0.51
0.54
0.52
0.51
0.50
0.50
0.49
0.46
0.41
0.35
0.26
0.14
-0.01
-0.15
-0.22
-0.17
0.00
0.24
0.45
0.52
0.42
0.19
-0.09
-0.29
-0.35
-0.25
-0.06
0.13
0.24
0.20
0.04
-0.19
-0.43
-0.63
-0.76
-0.84
-0.84
-0.78
-0.64
-0.45
-0.29
-0.21
-0.25
-0.38
-0.52
-0.61
-0.63
-0.62
-0.61
-0.63
-0.61
-0.47
-0.19
0.18
0.47
0.55
0.39
0.08
-0.20
-0.30
-0.16
0.15
0.48
0.72
0.85
0.90
0.94
1.01
1.08
1.13
1.10
1.01
0.91
0.86
0.87
0.92
0.93
0.83
0.58
0.23
-0.12
-0.38
-0.50
-0.50
-0.42
-0.33
-0.28
-0.26
-0.28
-0.33
-0.43
-0.57
-0.68
-0.66
-0.47
-0.12
0.24
0.48
0.50
0.34
0.10
-0.12
-0.27
-0.36
-0.43
-0.47
-0.42
-0.26
-0.02
0.20
0.30
0.26
0.18
0.18
0.33
0.57
0.75
0.74
0.50
0.14
-0.20
-0.45
-0.61
-0.74
-0.88
-0.98
-0.97
-0.79
-0.50
-0.20
-0.02
-0.02
-0.16
-0.33
-0.45
-0.45
-0.35
-0.18
0.03
0.21
0.36
0.42
0.41
0.35
0.33
0.40
0.56
0.79
0.98
1.06
0.99
0.81
0.61
0.48
0.47
0.54
0.60
0.55
0.34
0.02
-0.34
-0.65
-0.86
-0.97
-1.00
-0.96
-0.85
-0.69
-0.49
-0.31
-0.22
-0.22
-0.31
-0.44
-0.56
-0.65
-0.70
-0.68
-0.56
-0.32
0.03
0.39
0.66
0.73
0.56
0.21
-0.19
-0.51
-0.69
-0.71
-0.61
-0.46
-0.32
-0.24
-0.24
-0.29
-0.33
-0.27
-0.05
0.32
0.78
1.20
1.43
1.40
1.13
0.72
0.32
0.02
-0.14
-0.19
-0.20
-0.22
-0.26
-0.29
-0.26
-0.15
0.03
0.21
0.33
0.33
0.22
0.05
-0.10
-0.17
-0.11
0.05
0.24
0.41
0.51
0.54
0.52
0.46
0.37
0.22
0.01
-0.26
-0.54
-0.75
-0.83
-0.74
-0.51
-0.20
0.09
0.31
0.43
0.49
0.52
0.56
0.58
0.56
0.43
0.17
-0.17
-0.49
-0.73
-0.81
-0.75
-0.56
-0.28
0.10
0.53
0.92
1.17
1.14
0.82
0.29
-0.28
-0.68
-0.84
-0.75
-0.51
-0.22
0.07
0.34
0.56
0.69
0.67
0.46
0.11
-0.24
-0.48
-0.51
-0.37
-0.16
-0.02
-0.03
-0.19
-0.43
-0.62
-0.68
-0.57
-0.30
0.05
0.37
0.55
0.50
0.21
-0.26
-0.74
-1.07
-1.11
-0.86
-0.43
0.01
0.34
0.49
0.47
0.35
0.17
-0.05
-0.28
-0.48
-0.55
-0.46
-0.21
0.08
0.30
0.36
0.26
0.10
-0.05
-0.10
-0.06
0.07
0.24
0.45
0.69
0.92
1.07
1.06
0.88
0.55
0.15
-0.26
-0.62
-0.89
-1.06
-1.10
-1.04
-0.91
-0.76
-0.64
-0.56
-0.51
-0.43
-0.31
-0.13
0.07
0.28
0.47
0.64
0.76
0.83
0.80
0.67
0.48
0.31
0.22
0.25
0.32
0.37
0.34
0.26
0.19
0.20
0.29
0.40
0.45
0.39
0.26
0.14
0.12
0.20
0.36
0.49
0.54
0.49
0.37
0.19
-0.01
-0.20
-0.37
-0.45
-0.46
-0.40
-0.33
-0.30
-0.32
-0.38
-0.41
-0.39
-0.32
-0.26
-0.27
-0.37
-0.54
-0.69
-0.73
-0.64
-0.44
-0.23
-0.09
-0.09
-0.18
-0.28
-0.28
-0.10
0.24
0.63
0.95
1.08
0.97
0.67
0.29
-0.06
-0.30
-0.41
-0.42
-0.33
-0.15
0.09
0.33
0.49
0.48
0.26
-0.10
-0.48
-0.72
-0.69
-0.41
0.03
0.48
0.81
0.94
0.87
0.66
0.37
0.07
-0.17
-0.32
-0.35
-0.27
-0.11
0.09
0.30
0.47
0.59
0.67
0.71
0.70
0.62
0.46
0.28
0.11
-0.02
-0.10
-0.18
-0.31
-0.48
-0.67
-0.80
-0.82
-0.71
-0.52
-0.30
-0.09
0.07
0.17
0.20
0.16
0.05
-0.08
-0.18
-0.16
-0.02
0.22
0.45
0.58
0.54
0.33
-0.03
-0.44
-0.82
-1.10
-1.25
-1.28
-1.23
-1.13
-0.98
-0.75
-0.42
-0.03
0.36
0.65
0.78
0.78
0.72
0.67
0.65
0.61
0.45
0.14
-0.27
-0.64
-0.78
-0.60
-0.10
0.54
1.09
1.33
1.16
0.67
0.06
-0.42
-0.60
-0.47
-0.19
0.07
0.17
0.08
-0.10
-0.21
-0.17
0.03
0.26
0.40
0.35
0.12
-0.21
-0.51
-0.70
-0.73
-0.67
-0.57
-0.49
-0.45
-0.40
-0.28
-0.04
0.29
0.65
0.94
1.06
1.00
0.76
0.41
0.03
-0.28
-0.43
-0.41
-0.25
-0.04
0.11
0.14
0.07
-0.03
-0.05
0.05
0.26
0.49
0.67
0.74
0.71
0.64
0.53
0.39
0.19
-0.07
-0.33
-0.52
-0.56
-0.47
-0.27
-0.07
0.03
0.00
-0.17
-0.40
-0.63
-0.76
-0.78
-0.70
-0.57
-0.40
-0.20
0.05
0.32
0.56
0.68
0.63
0.39
0.03
-0.32
-0.55
-0.59
-0.47
-0.27
-0.10
-0.03
-0.05
-0.10
-0.11
-0.03
0.11
0.22
0.21
0.04
-0.22
-0.45
-0.52
-0.34
0.02
0.43
0.71
0.75
0.54
0.19
-0.13
-0.29
-0.26
-0.12
0.00
0.00
-0.14
-0.35
-0.50
-0.50
-0.33
-0.08
0.18
0.39
0.54
0.65
0.75
0.81
0.84
0.83
0.82
0.85
0.91
0.97
0.95
0.80
0.50
0.13
-0.22
-0.44
-0.52
-0.48
-0.40
-0.34
-0.35
-0.41
-0.48
-0.51
-0.47
-0.38
-0.28
-0.24
-0.31
-0.49
-0.72
-0.90
-0.91
-0.72
-0.37
0.01
0.29
0.36
0.19
-0.14
-0.49
-0.76
-0.87
-0.81
-0.60
-0.30
0.07
0.46
0.78
0.96
0.91
0.62
0.16
-0.34
-0.72
-0.89
-0.83
-0.60
-0.27
0.06
0.32
0.48
0.51
0.43
0.30
0.19
0.16
0.21
0.29
0.31
0.23
0.09
0.01
0.10
0.36
0.69
0.93
0.92
0.66
0.24
-0.14
-0.34
-0.35
-0.23
-0.11
-0.08
-0.10
-0.10
-0.02
0.16
0.37
0.50
0.47
0.28
0.02
-0.20
-0.30
-0.28
-0.22
-0.21
-0.28
-0.40
-0.48
-0.44
-0.27
-0.03
0.19
0.34
0.39
0.41
0.42
0.44
0.43
0.35
0.17
-0.04
-0.19
-0.18
-0.01
0.25
0.45
0.45
0.22
-0.15
-0.50
-0.69
-0.63
-0.41
-0.15
0.03
0.11
0.13
0.16
0.23
0.29
0.30
0.21
0.04
-0.11
-0.19
-0.19
-0.17
-0.22
-0.34
-0.50
-0.60
-0.56
-0.37
-0.11
0.09
0.15
0.05
-0.13
-0.26
-0.26
-0.13
0.06
0.17
0.11
-0.10
-0.39
-0.59
-0.60
-0.40
-0.08
0.22
0.38
0.40
0.31
0.20
0.15
0.16
0.24
0.34
0.43
0.51
0.57
0.59
0.56
0.50
0.44
0.43
0.48
0.56
0.62
0.61
0.53
0.41
0.28
0.17
0.05
-0.07
-0.20
-0.29
-0.29
-0.18
0.03
0.22
0.32
0.26
0.05
-0.28
-0.65
-1.01
-1.33
-1.57
-1.70
-1.69
-1.53
-1.25
-0.90
-0.54
-0.24
-0.01
0.12
0.17
0.17
0.17
0.19
0.21
0.20
0.15
0.06
0.01
0.05
0.22
0.44
0.62
0.65
0.51
0.28
0.09
0.07
0.22
0.46
0.63
0.63
0.45
0.21
0.04
0.04
0.19
0.37
0.45
0.35
0.11
-0.14
-0.24
-0.12
0.18
0.52
0.75
0.78
0.61
0.33
0.03
-0.23
-0.41
-0.52
-0.59
-0.61
-0.58
-0.48
-0.28
-0.02
0.22
0.35
0.28
0.03
-0.31
-0.55
-0.59
-0.40
-0.09
0.19
0.30
0.25
0.15
0.12
0.25
0.47
0.67
0.73
0.61
0.37
0.14
0.02
0.03
0.08
0.07
-0.06
-0.29
-0.50
-0.60
-0.54
-0.39
-0.24
-0.21
-0.31
-0.44
-0.51
-0.49
-0.37
-0.25
-0.16
-0.09
0.00
0.17
0.39
0.62
0.73
0.66
0.44
0.11
-0.23
-0.52
-0.75
-0.91
-1.02
-1.05
-0.99
-0.83
-0.58
-0.26
0.07
0.35
0.54
0.63
0.64
0.61
0.60
0.62
0.70
0.78
0.86
0.88
0.84
0.74
0.58
0.38
0.16
-0.07
-0.27
-0.39
-0.42
-0.36
-0.24
-0.14
-0.08
-0.09
-0.15
-0.23
-0.28
-0.30
-0.30
-0.31
-0.32
-0.34
-0.35
-0.33
-0.28
-0.23
-0.18
-0.11
-0.03
0.09
0.19
0.21
0.11
-0.11
-0.34
-0.45
-0.36
-0.07
0.29
0.56
0.63
0.49
0.27
0.09
0.07
0.17
0.33
0.41
0.36
0.22
0.07
0.02
0.07
0.17
0.23
0.17
0.03
-0.11
-0.16
-0.08
0.09
0.25
0.33
0.29
0.15
-0.04
-0.25
-0.43
-0.57
-0.63
-0.55
-0.34
-0.03
0.25
0.40
0.32
0.01
-0.44
-0.91
-1.25
-1.38
-1.30
-1.03
-0.64
-0.22
0.21
0.60
0.91
1.08
1.07
0.86
0.53
0.19
0.01
0.08
0.36
0.74
1.06
1.20
1.13
0.89
0.58
0.25
-0.04
-0.29
-0.47
-0.57
-0.57
-0.49
-0.34
-0.16
0.04
0.22
0.36
0.41
0.35
0.17
-0.10
-0.39
-0.64
-0.80
-0.84
-0.79
-0.68
-0.56
-0.43
-0.31
-0.18
-0.04
0.12
0.28
0.45
0.61
0.75
0.83
0.81
0.63
0.29
-0.17
-0.66
-1.06
-1.27
-1.27
-1.09
-0.82
-0.56
-0.34
-0.18
-0.03
0.12
0.27
0.40
0.44
0.34
0.11
-0.15
-0.32
-0.29
-0.01
0.44
0.92
1.24
1.29
1.07
0.68
0.27
-0.03
-0.18
-0.18
-0.11
-0.02
0.07
0.19
0.35
0.52
0.65
0.64
0.46
0.12
-0.25
-0.50
-0.53
-0.32
0.02
0.35
0.53
0.50
0.28
-0.04
-0.34
-0.52
-0.54
-0.39
-0.13
0.16
0.39
0.51
0.46
0.24
-0.09
-0.46
-0.76
-0.92
-0.91
-0.74
-0.50
-0.29
-0.20
-0.25
-0.38
-0.51
-0.56
-0.51
-0.39
-0.26
-0.15
-0.04
0.12
0.36
0.66
0.94
1.13
1.17
1.06
0.90
0.76
0.68
0.67
0.70
0.70
0.67
0.61
0.53
0.45
0.38
0.29
0.15
-0.05
-0.33
-0.70
-1.07
-1.35
-1.44
-1.29
-0.92
-0.45
-0.04
0.17
0.15
-0.00
-0.17
-0.24
-0.19
-0.08
-0.01
-0.03
-0.13
-0.23
-0.26
-0.16
0.03
0.22
0.33
0.31
0.16
-0.06
-0.31
-0.51
-0.62
-0.64
-0.57
-0.44
-0.33
-0.27
-0.30
-0.36
-0.40
-0.37
-0.29
-0.22
-0.24
-0.37
-0.54
-0.63
-0.56
-0.29
0.09
0.47
0.75
0.87
0.84
0.73
0.57
0.42
0.27
0.14
0.04
0.00
0.05
0.19
0.39
0.62
0.82
0.94
0.95
0.84
0.65
0.39
0.12
-0.12
-0.30
-0.38
-0.35
-0.22
0.00
0.28
0.53
0.68
0.64
0.40
0.02
-0.38
-0.64
-0.69
-0.55
-0.33
-0.13
-0.01
0.05
0.10
0.18
0.29
0.35
0.28
0.05
-0.30
-0.67
-0.97
-1.10
-1.06
-0.87
-0.61
-0.35
-0.15
-0.04
-0.01
-0.02
-0.01
0.03
0.08
0.09
-0.02
-0.25
-0.52
-0.72
-0.75
-0.54
-0.17
0.24
0.56
0.70
0.64
0.45
0.19
-0.05
-0.21
-0.25
-0.14
0.10
0.42
0.76
1.03
1.14
1.07
0.83
0.51
0.20
-0.00
-0.04
0.09
0.34
0.61
0.82
0.89
0.80
0.60
0.37
0.19
0.13
0.21
0.37
0.55
0.63
0.55
0.27
-0.15
-0.63
-1.06
-1.35
-1.46
-1.42
-1.27
-1.10
-0.95
-0.84
-0.73
-0.58
-0.38
-0.15
0.02
0.08
-0.02
-0.20
-0.38
-0.45
-0.39
-0.24
-0.10
-0.04
-0.05
-0.06
-0.02
0.08
0.18
0.22
0.15
0.05
0.01
0.08
0.26
0.43
0.49
0.40
0.21
0.07
0.06
0.19
0.35
0.45
0.41
0.29
0.17
0.14
0.20
0.27
0.26
0.13
-0.07
-0.24
-0.30
-0.21
-0.03
0.17
0.32
0.38
0.33
0.21
0.05
-0.10
-0.20
-0.21
-0.18
-0.14
-0.15
-0.21
-0.30
-0.34
-0.31
-0.20
-0.07
0.07
0.22
0.43
0.72
1.06
1.32
1.37
1.14
0.66
0.07
-0.44
-0.75
-0.84
-0.76
-0.61
-0.48
-0.39
-0.34
-0.26
-0.15
-0.02
0.10
0.17
0.18
0.18
0.17
0.16
0.14
0.04
-0.13
-0.34
-0.49
-0.50
-0.32
-0.01
0.31
0.54
0.61
0.52
0.34
0.15
-0.03
-0.19
-0.37
-0.56
-0.74
-0.88
-0.97
-1.02
-1.06
-1.06
-0.96
-0.69
-0.22
0.39
0.97
1.32
1.34
1.07
0.67
0.35
0.21
0.24
0.32
0.33
0.22
0.03
-0.14
-0.24
-0.23
-0.15
-0.03
0.10
0.21
0.31
0.37
0.38
0.32
0.20
0.01
-0.22
-0.48
-0.73
-0.91
-0.97
-0.91
-0.73
-0.51
-0.34
-0.26
-0.27
-0.27
-0.18
0.07
0.48
0.95
1.32
1.47
1.33
0.95
0.46
0.03
-0.26
-0.43
-0.59
-0.81
-1.11
-1.34
-1.34
-0.99
-0.36
0.37
0.92
1.11
0.91
0.45
-0.06
-0.43
-0.60
-0.58
-0.48
-0.37
-0.31
-0.28
-0.25
-0.18
-0.03
0.21
0.51
0.83
1.10
1.26
1.28
1.16
0.98
0.81
0.72
0.72
0.77
0.81
0.79
0.71
0.59
0.47
0.37
0.32
0.31
0.31
0.31
0.27
0.18
0.02
-0.17
-0.32
-0.40
-0.39
-0.36
-0.39
-0.53
-0.75
-0.95
-1.02
-0.91
-0.66
-0.37
-0.15
-0.06
-0.08
-0.20
-0.38
-0.64
-0.96
-1.29
-1.56
-1.64
-1.47
-1.05
-0.50
0.05
0.44
0.61
0.54
0.33
0.10
-0.02
0.02
0.25
0.57
0.88
1.04
0.98
0.66
0.17
-0.36
-0.75
-0.87
-0.71
-0.36
-0.01
0.19
0.19
0.06
-0.05
-0.03
0.16
0.44
0.70
0.83
0.82
0.66
0.42
0.15
-0.12
-0.34
-0.47
-0.47
-0.37
-0.19
-0.02
0.10
0.12
0.03
-0.14
-0.35
-0.55
-0.69
-0.73
-0.64
-0.47
-0.29
-0.16
-0.13
-0.17
-0.18
-0.07
0.20
0.58
0.93
1.11
1.07
0.85
0.57
0.35
0.23
0.18
0.11
-0.02
-0.18
-0.32
-0.34
-0.23
-0.01
0.20
0.30
0.25
0.04
-0.24
-0.48
-0.63
-0.66
-0.64
-0.60
-0.58
-0.52
-0.34
-0.03
0.34
0.64
0.72
0.54
0.21
-0.08
-0.17
-0.00
0.31
0.57
0.65
0.51
0.28
0.13
0.21
0.52
0.92
1.22
1.28
1.05
0.62
0.16
-0.16
-0.24
-0.12
0.10
0.26
0.26
0.11
-0.11
-0.29
-0.38
-0.39
-0.43
-0.57
-0.84
-1.16
-1.37
-1.38
-1.17
-0.81
-0.43
-0.14
0.02
0.06
0.04
0.01
-0.02
-0.06
-0.11
-0.19
-0.26
-0.30
-0.29
-0.17
0.05
0.35
0.68
0.94
1.07
1.03
0.85
0.58
0.30
0.06
-0.09
-0.13
-0.07
0.04
0.10
0.02
-0.25
-0.68
-1.14
-1.47
-1.55
-1.38
-1.03
-0.64
-0.29
0.00
0.27
0.50
0.64
0.63
0.43
0.08
-0.28
-0.49
-0.47
-0.22
0.15
0.48
0.68
0.69
0.54
0.29
0.05
-0.13
-0.21
-0.21
-0.16
-0.13
-0.15
-0.22
-0.28
-0.27
-0.16
0.02
0.20
0.32
0.33
0.28
0.23
0.28
0.44
0.65
0.81
0.82
0.67
0.42
0.21
0.14
0.27
0.53
0.81
0.98
0.97
0.78
0.46
0.08
-0.28
-0.53
-0.63
-0.54
-0.31
-0.01
0.24
0.36
0.33
0.17
-0.04
-0.24
-0.38
-0.48
-0.58
-0.67
-0.75
-0.76
-0.66
-0.48
-0.30
-0.21
-0.27
-0.45
-0.66
-0.79
-0.77
-0.57
-0.23
0.18
0.58
0.90
1.08
1.05
0.80
0.38
-0.12
-0.54
-0.74
-0.68
-0.41
-0.05
0.28
0.52
0.67
0.77
0.82
0.82
0.70
0.44
0.06
-0.37
-0.73
-0.92
-0.90
-0.66
-0.25
0.25
0.76
1.16
1.37
1.33
1.04
0.56
0.01
-0.46
-0.77
-0.87
-0.80
-0.62
-0.38
-0.11
0.17
0.45
0.69
0.82
0.78
0.56
0.22
-0.10
-0.28
-0.23
0.01
0.32
0.53
0.52
0.27
-0.11
-0.49
-0.72
-0.75
-0.63
-0.47
-0.39
-0.45
-0.59
-0.71
-0.73
-0.61
-0.40
-0.22
-0.18
-0.30
-0.52
-0.71
-0.77
-0.66
-0.46
-0.26
-0.14
-0.10
-0.09
-0.06
0.00
0.05
0.01
-0.12
-0.28
-0.38
-0.32
-0.09
0.24
0.52
0.62
0.54
0.32
0.10
0.00
0.04
0.17
0.31
0.42
0.51
0.61
0.76
0.90
0.97
0.88
0.64
0.32
0.04
-0.09
-0.02
0.20
0.47
0.70
0.79
0.72
0.49
0.18
-0.11
-0.29
-0.32
-0.23
-0.09
0.01
0.03
0.01
0.02
0.08
0.14
0.13
-0.02
-0.27
-0.51
-0.60
-0.45
-0.11
0.25
0.49
0.53
0.40
0.20
-0.02
-0.23
-0.47
-0.73
-0.95
-1.04
-0.92
-0.65
-0.33
-0.11
-0.08
-0.21
-0.38
-0.45
-0.32
-0.02
0.33
0.59
0.63
0.42
0.05
-0.32
-0.54
-0.53
-0.30
0.03
0.37
0.60
0.69
0.62
0.42
0.12
-0.21
-0.48
-0.58
-0.45
-0.11
0.31
0.66
0.80
0.71
0.48
0.23
0.07
0.02
0.02
-0.00
-0.07
-0.14
-0.17
-0.15
-0.14
-0.24
-0.47
-0.78
-1.01
-1.03
-0.77
-0.29
0.25
0.69
0.93
0.97
0.86
0.65
0.37
0.06
-0.23
-0.43
-0.48
-0.36
-0.13
0.14
0.38
0.53
0.61
0.64
0.67
0.71
0.73
0.71
0.66
0.60
0.58
0.59
0.61
0.55
0.33
-0.04
-0.50
-0.91
-1.16
-1.21
-1.13
-1.02
-0.98
-1.03
-1.10
-1.08
-0.91
-0.63
-0.31
-0.07
0.02
-0.01
-0.13
-0.25
-0.34
-0.41
-0.46
-0.49
-0.48
-0.37
-0.13
0.23
0.64
0.99
1.20
1.20
0.99
0.63
0.24
-0.10
-0.30
-0.36
-0.34
-0.32
-0.32
-0.32
-0.23
-0.01
0.32
0.69
0.95
1.02
0.89
0.61
0.30
0.06
-0.07
-0.09
-0.03
0.04
0.08
0.02
-0.11
-0.28
-0.41
-0.43
-0.33
-0.16
0.02
0.16
0.25
0.29
0.32
0.32
0.30
0.23
0.14
0.02
-0.12
-0.28
-0.48
-0.69
-0.86
-0.92
-0.83
-0.59
-0.27
0.04
0.21
0.18
-0.04
-0.37
-0.63
-0.70
-0.50
-0.07
0.49
1.00
1.33
1.40
1.20
0.78
0.24
-0.30
-0.68
-0.82
-0.69
-0.37
-0.01
0.25
0.34
0.26
0.09
-0.05
-0.09
-0.02
0.11
0.28
0.42
0.52
0.57
0.58
0.56
0.51
0.42
0.26
0.05
-0.19
-0.40
-0.51
-0.50
-0.42
-0.36
-0.40
-0.56
-0.79
-0.96
-0.94
-0.70
-0.29
0.17
0.55
0.78
0.83
0.79
0.70
0.63
0.59
0.55
0.49
0.40
0.24
0.03
-0.22
-0.48
-0.71
-0.86
-0.90
-0.81
-0.59
-0.24
0.18
0.57
0.83
0.88
0.72
0.43
0.14
-0.05
-0.09
-0.02
0.08
0.14
0.09
-0.03
-0.19
-0.36
-0.52
-0.69
-0.86
-1.04
-1.18
-1.20
-1.03
-0.68
-0.20
0.27
0.59
0.71
0.65
0.52
0.44
0.46
0.51
0.50
0.33
0.01
-0.39
-0.71
-0.82
-0.68
-0.32
0.14
0.58
0.85
0.89
0.71
0.41
0.10
-0.14
-0.25
-0.25
-0.18
-0.04
0.16
0.40
0.68
0.90
1.00
0.93
0.72
0.41
0.08
-0.22
-0.47
-0.62
-0.67
-0.60
-0.43
-0.22
-0.06
-0.02
-0.11
-0.28
-0.46
-0.56
-0.54
-0.42
-0.24
-0.06
0.10
0.23
0.33
0.40
0.43
0.37
0.19
-0.08
-0.40
-0.65
-0.77
-0.74
-0.62
-0.53
-0.52
-0.63
-0.75
-0.80
-0.72
-0.56
-0.45
-0.54
-0.87
-1.32
-1.72
-1.85
-1.64
-1.21
-0.81
-0.73
-1.12
-1.93
-2.90
-3.72
-4.17
-4.21
-3.93
-3.56
-3.35
-3.44
-3.95
-4.85
-6.06
-7.28
-8.08
-8.00
-6.71
-4.30
-1.28
1.54
3.40
3.85
2.93
1.13
-0.83
-2.18
-2.31
-0.90
2.00
5.95
10.14
13.63
15.65
15.84
14.36
11.74
8.64
5.53
2.68
0.20
-1.81
-3.25
-4.08
-4.37
-4.30
-4.00
-3.44
-2.43
-0.74
1.63
4.39
6.98
8.87
9.78
9.84
9.47
9.17
9.24
9.67
10.20
10.44
10.07
8.94
7.12
4.79
2.20
-0.39
-2.76
-4.70
-6.06
-6.74
-6.80
-6.39
-5.75
-5.09
-4.50
-3.93
-3.26
-2.40
-1.33
-0.14
1.03
2.06
2.84
3.34
3.54
3.42
3.04
2.47
1.88
1.41
1.16
1.15
1.30
1.45
1.45
1.16
0.50
-0.50
-1.73
-2.98
-4.05
-4.78
-5.11
-5.10
-4.89
-4.65
-4.49
-4.50
-4.66
-4.96
-5.30
-5.58
-5.62
-5.27
-4.42
-3.15
-1.69
-0.40
0.40
0.57
0.19
-0.52
-1.26
-1.85
-2.23
-2.48
-2.68
-2.85
-2.95
-2.90
-2.61
-2.07
-1.36
-0.63
-0.06
0.16
-0.03
-0.61
-1.37
-2.07
-2.46
-2.41
-1.99
-1.39
-0.80
-0.34
0.02
0.43
1.01
1.75
2.48
2.92
2.81
2.09
0.91
-0.41
-1.50
-2.09
-2.09
-1.56
-0.75
0.10
0.76
1.10
1.15
1.04
0.90
0.83
0.82
0.73
0.48
0.04
-0.46
-0.81
-0.78
-0.28
0.60
1.67
2.65
3.37
3.73
3.77
3.55
3.16
2.69
2.23
1.87
1.65
1.58
1.59
1.56
1.41
1.09
0.66
0.24
-0.10
-0.31
-0.43
-0.50
-0.61
-0.75
-0.87
-0.93
-0.88
-0.76
-0.61
-0.48
-0.37
-0.25
-0.05
0.24
0.59
0.89
1.05
1.05
0.91
0.74
0.64
0.63
0.65
0.59
0.37
0.01
-0.40
-0.73
-0.91
-0.92
-0.82
-0.70
-0.62
-0.58
-0.52
-0.41
-0.22
-0.01
0.16
0.20
0.07
-0.17
-0.42
-0.58
-0.60
-0.52
-0.47
-0.58
-0.91
-1.39
-1.85
-2.09
-2.01
-1.60
-0.98
-0.33
0.21
0.57
0.74
0.73
0.56
0.25
-0.14
-0.56
-0.91
-1.11
-1.12
-0.96
-0.63
-0.20
0.26
0.67
0.93
1.00
0.89
0.72
0.60
0.60
0.70
0.79
0.77
0.60
0.35
0.18
0.18
0.39
0.69
0.93
1.01
0.93
0.80
0.73
0.77
0.89
0.93
0.79
0.42
-0.06
-0.46
-0.57
-0.31
0.28
0.99
1.62
1.99
2.02
1.72
1.14
0.37
-0.48
-1.27
-1.84
-2.07
-1.95
-1.60
-1.27
-1.18
-1.46
-2.05
-2.73
-3.26
-3.51
-3.50
-3.38
-3.31
-3.33
-3.31
-3.06
-2.43
-1.44
-0.30
0.66
1.17
1.10
0.58
-0.09
-0.56
-0.57
-0.04
0.91
2.01
3.01
3.70
4.03
4.05
3.82
3.43
2.92
2.33
1.70
1.08
0.54
0.13
-0.16
-0.39
-0.65
-1.05
-1.60
-2.23
-2.77
-3.01
-2.79
-2.12
-1.15
-0.16
0.57
0.91
0.87
0.56
0.15
-0.23
-0.55
-0.82
-1.03
-1.19
-1.21
-1.02
-0.55
0.16
0.98
1.70
2.11
2.10
1.72
1.14
0.58
0.19
0.00
-0.08
-0.19
-0.39
-0.64
-0.83
-0.83
-0.59
-0.12
0.43
0.91
1.18
1.17
0.92
0.53
0.15
-0.08
-0.14
-0.05
0.07
0.14
0.11
-0.01
-0.18
-0.36
-0.51
-0.62
-0.68
-0.67
-0.56
-0.34
-0.05
0.25
0.44
0.46
0.28
-0.00
-0.27
-0.39
-0.29
-0.02
0.29
0.50
0.49
0.29
-0.02
-0.26
-0.33
-0.17
0.16
0.55
0.86
1.00
0.95
0.75
0.45
0.15
-0.10
-0.24
-0.26
-0.14
0.08
0.34
0.55
0.62
0.49
0.21
-0.10
-0.30
-0.34
-0.21
-0.03
0.10
0.11
0.01
-0.12
-0.19
-0.18
-0.12
-0.05
-0.02
-0.03
-0.02
0.03
0.13
0.24
0.31
0.30
0.19
0.00
-0.22
-0.42
-0.56
-0.58
-0.46
-0.21
0.11
0.40
0.53
0.46
0.19
-0.14
-0.40
-0.47
-0.34
-0.10
0.14
0.25
0.18
-0.04
-0.33
-0.57
-0.65
-0.53
-0.25
0.12
0.47
0.67
0.66
0.43
0.05
-0.35
-0.64
-0.73
-0.61
-0.33
-0.02
0.23
0.35
0.38
0.37
0.39
0.43
0.46
0.43
0.32
0.18
0.11
0.18
0.38
0.65
0.85
0.88
0.74
0.49
0.26
0.12
0.12
0.19
0.21
0.11
-0.15
-0.50
-0.85
-1.13
-1.28
-1.27
-1.11
-0.82
-0.44
-0.02
0.35
0.62
0.76
0.77
0.68
0.52
0.31
0.07
-0.17
-0.35
-0.44
-0.40
-0.27
-0.16
-0.17
-0.34
-0.63
-0.90
-1.00
-0.84
-0.45
0.04
0.46
0.71
0.80
0.81
0.82
0.83
0.76
0.52
0.10
-0.39
-0.78
-0.90
-0.74
-0.39
-0.05
0.13
0.07
-0.17
-0.46
-0.67
-0.70
-0.58
-0.35
-0.11
0.07
0.15
0.13
0.03
-0.10
-0.20
-0.22
-0.17
-0.04
0.14
0.34
0.49
0.53
0.43
0.21
-0.04
-0.21
-0.23
-0.09
0.16
0.43
0.64
0.80
0.91
0.99
1.03
1.00
0.86
0.64
0.41
0.23
0.11
0.01
-0.12
-0.30
-0.47
-0.57
-0.56
-0.44
-0.28
-0.11
0.08
0.30
0.53
0.70
0.67
0.38
-0.13
-0.68
-1.09
-1.23
-1.14
-0.94
-0.77
-0.70
-0.65
-0.50
-0.21
0.16
0.43
0.49
0.30
-0.02
-0.31
-0.43
-0.34
-0.15
0.03
0.15
0.19
0.22
0.28
0.37
0.42
0.37
0.23
0.02
-0.15
-0.23
-0.22
-0.14
-0.03
0.10
0.25
0.39
0.49
0.52
0.49
0.43
0.41
0.46
0.58
0.70
0.75
0.67
0.49
0.26
0.04
-0.12
-0.24
-0.31
-0.34
-0.34
-0.31
-0.29
-0.32
-0.39
-0.48
-0.55
-0.55
-0.48
-0.37
-0.26
-0.20
-0.18
-0.19
-0.20
-0.18
-0.12
-0.01
0.13
0.28
0.40
0.44
0.43
0.41
0.45
0.58
0.77
0.94
1.01
0.90
0.64
0.27
-0.11
-0.45
-0.72
-0.93
-1.12
-1.29
-1.42
-1.48
-1.41
-1.20
-0.85
-0.44
-0.07
0.17
0.21
0.06
-0.21
-0.50
-0.71
-0.77
-0.68
-0.45
-0.14
0.17
0.43
0.61
0.70
0.75
0.77
0.80
0.87
0.96
1.07
1.16
1.17
1.02
0.68
0.17
-0.36
-0.75
-0.85
-0.66
-0.29
0.04
0.17
0.03
-0.28
-0.60
-0.78
-0.76
-0.59
-0.38
-0.22
-0.14
-0.12
-0.13
-0.13
-0.10
-0.06
-0.01
0.04
0.10
0.18
0.28
0.40
0.51
0.59
0.63
0.60
0.51
0.34
0.10
-0.21
-0.54
-0.82
-0.99
-1.00
-0.85
-0.58
-0.25
0.07
0.35
0.58
0.77
0.90
0.98
0.98
0.85
0.58
0.16
-0.32
-0.76
-0.99
-0.93
-0.59
-0.09
0.38
0.64
0.66
0.49
0.30
0.21
0.29
0.49
0.68
0.73
0.59
0.27
-0.11
-0.46
-0.67
-0.73
-0.69
-0.60
-0.51
-0.41
-0.29
-0.16
-0.05
-0.01
-0.05
-0.14
-0.20
-0.15
-0.01
0.16
0.21
0.08
-0.20
-0.51
-0.66
-0.57
-0.25
0.19
0.60
0.86
0.91
0.77
0.49
0.14
-0.18
-0.39
-0.39
-0.18
0.19
0.61
0.94
1.11
1.10
0.94
0.72
0.50
0.31
0.18
0.10
0.05
-0.01
-0.11
-0.26
-0.44
-0.63
-0.78
-0.88
-0.93
-0.97
-1.02
-1.03
-0.97
-0.80
-0.54
-0.27
-0.06
-0.01
-0.11
-0.32
-0.56
-0.72
-0.75
-0.61
-0.33
0.05
0.44
0.78
0.96
0.96
0.78
0.52
0.29
0.18
0.21
0.33
0.45
0.48
0.43
0.37
0.39
0.55
0.79
0.99
1.00
0.75
0.30
-0.16
-0.47
-0.54
-0.41
-0.19
-0.00
0.09
0.14
0.22
0.38
0.58
0.76
0.79
0.65
0.37
0.03
-0.28
-0.49
-0.61
-0.67
-0.70
-0.76
-0.84
-0.94
-1.00
-0.99
-0.86
-0.61
-0.27
0.08
0.37
0.54
0.60
0.56
0.48
0.38
0.26
0.14
0.04
0.01
0.07
0.17
0.25
0.19
-0.02
-0.35
-0.67
-0.82
-0.75
-0.51
-0.22
-0.02
0.03
-0.04
-0.15
-0.21
-0.18
-0.07
0.08
0.25
0.42
0.56
0.62
0.53
0.30
-0.02
-0.26
-0.28
-0.02
0.40
0.82
1.02
0.92
0.58
0.17
-0.16
-0.29
-0.25
-0.16
-0.12
-0.19
-0.32
-0.42
-0.39
-0.19
0.12
0.41
0.54
0.46
0.19
-0.14
-0.40
-0.48
-0.38
-0.17
0.04
0.18
0.21
0.19
0.14
0.11
0.08
0.02
-0.08
-0.23
-0.39
-0.50
-0.56
-0.55
-0.53
-0.50
-0.47
-0.44
-0.35
-0.20
0.00
0.22
0.40
0.48
0.42
0.26
0.05
-0.13
-0.21
-0.19
-0.11
-0.05
-0.05
-0.11
-0.18
-0.19
-0.10
0.09
0.32
0.48
0.47
0.24
-0.16
-0.60
-0.93
-1.00
-0.79
-0.39
0.01
0.29
0.41
0.44
0.50
0.64
0.80
0.86
0.72
0.39
0.03
-0.20
-0.21
-0.04
0.19
0.35
0.39
0.37
0.35
0.38
0.40
0.33
0.11
-0.22
-0.56
-0.78
-0.84
-0.73
-0.57
-0.41
-0.29
-0.17
-0.02
0.20
0.43
0.61
0.70
0.66
0.53
0.38
0.25
0.16
0.10
0.07
0.05
0.06
0.10
0.18
0.26
0.31
0.30
0.19
-0.02
-0.29
-0.55
-0.72
-0.75
-0.62
-0.41
-0.20
-0.05
0.04
0.11
0.19
0.29
0.33
0.26
0.03
-0.30
-0.63
-0.84
-0.85
-0.64
-0.27
0.17
0.54
0.72
0.63
0.26
-0.28
-0.80
-1.09
-1.01
-0.58
0.06
0.69
1.09
1.17
0.97
0.57
0.12
-0.30
-0.61
-0.78
-0.81
-0.70
-0.48
-0.19
0.10
0.31
0.40
0.35
0.20
-0.01
-0.24
-0.43
-0.55
-0.57
-0.47
-0.24
0.04
0.31
0.48
0.49
0.38
0.19
0.03
-0.02
0.06
0.25
0.50
0.75
0.92
0.98
0.92
0.77
0.59
0.47
0.43
0.45
0.46
0.35
0.08
-0.30
-0.68
-0.90
-0.88
-0.59
-0.14
0.33
0.67
0.80
0.68
0.38
-0.02
-0.42
-0.73
-0.89
-0.86
-0.65
-0.34
-0.04
0.15
0.19
0.11
-0.03
-0.12
-0.13
-0.06
0.03
0.11
0.18
0.28
0.41
0.51
0.49
0.28
-0.11
-0.55
-0.89
-0.99
-0.81
-0.41
0.07
0.50
0.76
0.83
0.72
0.46
0.09
-0.35
-0.78
-1.14
-1.33
-1.27
-0.95
-0.45
0.09
0.50
0.68
0.63
0.45
0.31
0.31
0.45
0.65
0.78
0.77
0.62
0.40
0.20
0.09
0.07
0.10
0.12
0.06
-0.11
-0.35
-0.61
-0.81
-0.92
-0.94
-0.91
-0.88
-0.86
-0.83
-0.71
-0.47
-0.13
0.23
0.49
0.56
0.44
0.25
0.14
0.21
0.45
0.75
0.89
0.77
0.40
-0.09
-0.44
-0.52
-0.31
0.05
0.34
0.41
0.27
0.02
-0.18
-0.23
-0.13
0.05
0.22
0.34
0.38
0.38
0.34
0.24
0.07
-0.15
-0.38
-0.54
-0.56
-0.46
-0.28
-0.10
0.02
0.09
0.17
0.31
0.51
0.68
0.72
0.52
0.08
-0.46
-0.90
-1.05
-0.84
-0.35
0.24
0.72
0.95
0.90
0.66
0.35
0.09
-0.09
-0.19
-0.25
-0.31
-0.37
-0.42
-0.43
-0.41
-0.36
-0.28
-0.20
-0.11
-0.02
0.05
0.07
0.04
-0.06
-0.20
-0.34
-0.47
-0.54
-0.56
-0.52
-0.40
-0.21
0.05
0.32
0.52
0.58
0.47
0.24
-0.00
-0.12
-0.02
0.30
0.74
1.15
1.37
1.31
0.99
0.52
0.06
-0.27
-0.39
-0.31
-0.12
0.11
0.30
0.38
0.32
0.12
-0.20
-0.55
-0.83
-0.94
-0.87
-0.63
-0.34
-0.09
0.06
0.08
0.02
-0.10
-0.25
-0.42
-0.57
-0.64
-0.59
-0.39
-0.09
0.22
0.43
0.49
0.40
0.21
0.00
-0.17
-0.28
-0.29
-0.22
-0.06
0.19
0.51
0.84
1.11
1.25
1.22
1.06
0.82
0.58
0.38
0.21
0.07
-0.05
-0.13
-0.13
-0.06
0.08
0.22
0.29
0.26
0.11
-0.17
-0.54
-0.96
-1.36
-1.66
-1.80
-1.75
-1.56
-1.30
-1.04
-0.81
-0.58
-0.31
0.04
0.41
0.74
0.97
1.09
1.12
1.13
1.14
1.15
1.13
1.03
0.83
0.55
0.21
-0.10
-0.33
-0.42
-0.36
-0.22
-0.11
-0.14
-0.35
-0.68
-1.00
-1.17
-1.15
-1.00
-0.81
-0.70
-0.67
-0.69
-0.67
-0.58
-0.45
-0.29
-0.14
0.04
0.25
0.50
0.77
1.00
1.16
1.21
1.18
1.08
0.91
0.69
0.45
0.25
0.16
0.20
0.36
0.56
0.70
0.69
0.51
0.22
-0.06
-0.23
-0.26
-0.20
-0.18
-0.27
-0.50
-0.79
-1.00
-1.02
-0.86
-0.60
-0.37
-0.24
-0.21
-0.19
-0.11
0.05
0.23
0.29
0.17
-0.11
-0.39
-0.52
-0.39
-0.02
0.44
0.79
0.91
0.78
0.51
0.26
0.12
0.10
0.16
0.22
0.23
0.20
0.16
0.13
0.10
0.04
-0.07
-0.22
-0.38
-0.50
-0.55
-0.54
-0.52
-0.55
-0.66
-0.82
-0.93
-0.89
-0.64
-0.20
0.29
0.70
0.90
0.87
0.68
0.41
0.18
0.04
0.01
0.04
0.09
0.11
0.09
0.05
0.04
0.11
0.29
0.54
0.81
0.99
1.02
0.86
0.57
0.22
-0.06
-0.19
-0.16
0.01
0.25
0.47
0.61
0.61
0.46
0.15
-0.25
-0.69
-1.04
-1.22
-1.14
-0.85
-0.47
-0.19
-0.14
-0.35
-0.73
-1.11
-1.28
-1.18
-0.84
-0.42
-0.09
0.04
-0.03
-0.20
-0.32
-0.29
-0.08
0.20
0.44
0.54
0.50
0.38
0.33
0.42
0.65
0.93
1.16
1.23
1.12
0.89
0.60
0.34
0.13
-0.00
-0.08
-0.07
0.01
0.16
0.32
0.38
0.29
0.04
-0.31
-0.58
-0.67
-0.49
-0.13
0.26
0.51
0.52
0.32
0.03
-0.23
-0.35
-0.35
-0.30
-0.31
-0.42
-0.59
-0.70
-0.65
-0.41
-0.04
0.34
0.57
0.57
0.38
0.08
-0.21
-0.40
-0.47
-0.49
-0.53
-0.61
-0.72
-0.80
-0.80
-0.72
-0.59
-0.45
-0.34
-0.27
-0.21
-0.14
-0.07
-0.02
-0.03
-0.09
-0.16
-0.16
-0.02
0.25
0.62
0.97
1.21
1.30
1.24
1.11
0.98
0.89
0.84
0.80
0.74
0.69
0.64
0.63
0.63
0.62
0.54
0.41
0.24
0.07
-0.06
-0.14
-0.17
-0.18
-0.20
-0.27
-0.39
-0.51
-0.61
-0.65
-0.60
-0.50
-0.38
-0.27
-0.18
-0.12
-0.09
-0.10
-0.16
-0.26
-0.39
-0.52
-0.59
-0.60
-0.56
-0.47
-0.37
-0.28
-0.21
-0.18
-0.20
-0.29
-0.46
-0.64
-0.79
-0.85
-0.80
-0.67
-0.51
-0.35
-0.23
-0.14
-0.08
-0.02
0.04
0.13
0.27
0.46
0.69
0.88
0.95
0.87
0.66
0.39
0.17
0.08
0.12
0.24
0.39
0.49
0.54
0.55
0.52
0.49
0.44
0.36
0.26
0.16
0.09
0.07
0.09
0.11
0.10
0.03
-0.05
-0.08
-0.03
0.11
0.26
0.33
0.24
-0.02
-0.36
-0.63
-0.74
-0.67
-0.50
-0.34
-0.28
-0.30
-0.32
-0.27
-0.13
0.05
0.19
0.25
0.24
0.25
0.38
0.64
0.96
1.23
1.31
1.13
0.73
0.21
-0.30
-0.66
-0.85
-0.87
-0.81
-0.74
-0.73
-0.75
-0.77
-0.78
-0.76
-0.75
-0.77
-0.77
-0.68
-0.44
-0.05
0.39
0.76
0.95
0.94
0.81
0.65
0.52
0.43
0.33
0.19
0.01
-0.13
-0.17
-0.10
0.03
0.14
0.15
0.05
-0.14
-0.35
-0.51
-0.62
-0.67
-0.69
-0.68
-0.63
-0.52
-0.37
-0.20
-0.10
-0.10
-0.19
-0.29
-0.32
-0.20
0.04
0.29
0.41
0.32
0.03
-0.33
-0.59
-0.62
-0.41
-0.07
0.26
0.47
0.54
0.51
0.45
0.41
0.39
0.38
0.37
0.38
0.44
0.58
0.74
0.85
0.83
0.69
0.51
0.41
0.47
0.68
0.95
1.13
1.14
0.98
0.73
0.46
0.24
0.03
-0.21
-0.49
-0.73
-0.80
-0.62
-0.23
0.19
0.41
0.29
-0.14
-0.68
-1.05
-1.08
-0.79
-0.42
-0.19
-0.25
-0.54
-0.89
-1.10
-1.11
-0.99
-0.85
-0.75
-0.65
-0.41
0.04
0.67
1.32
1.77
1.88
1.60
1.05
0.45
-0.05
-0.32
-0.40
-0.39
-0.38
-0.43
-0.50
-0.49
-0.34
-0.03
0.35
0.65
0.74
0.60
0.28
-0.10
-0.42
-0.57
-0.53
-0.33
-0.06
0.21
0.37
0.41
0.36
0.31
0.34
0.46
0.60
0.63
0.49
0.19
-0.14
-0.38
-0.45
-0.38
-0.28
-0.25
-0.34
-0.50
-0.63
-0.66
-0.59
-0.45
-0.32
-0.23
-0.20
-0.18
-0.13
-0.03
0.11
0.23
0.25
0.13
-0.12
-0.41
-0.62
-0.62
-0.41
-0.03
0.38
0.71
0.89
0.93
0.88
0.80
0.70
0.55
0.33
0.08
-0.11
-0.16
-0.06
0.14
0.27
0.25
0.06
-0.20
-0.40
-0.41
-0.26
-0.04
0.12
0.13
0.01
-0.16
-0.32
-0.45
-0.58
-0.73
-0.87
-0.91
-0.77
-0.48
-0.15
0.05
-0.01
-0.30
-0.66
-0.89
-0.87
-0.61
-0.23
0.12
0.35
0.51
0.65
0.83
1.00
1.06
0.93
0.59
0.17
-0.19
-0.34
-0.24
0.05
0.36
0.57
0.60
0.48
0.33
0.26
0.33
0.48
0.60
0.54
0.27
-0.16
-0.59
-0.85
-0.85
-0.63
-0.32
-0.05
0.09
0.10
0.05
0.02
0.06
0.14
0.22
0.24
0.24
0.23
0.26
0.35
0.40
0.33
0.08
-0.35
-0.85
-1.25
-1.43
-1.37
-1.16
-0.95
-0.86
-0.90
-0.97
-0.94
-0.70
-0.29
0.16
0.48
0.55
0.37
0.07
-0.18
-0.28
-0.21
-0.06
0.12
0.29
0.44
0.59
0.71
0.72
0.59
0.31
0.00
-0.17
-0.12
0.19
0.63
1.04
1.30
1.38
1.35
1.32
1.34
1.40
1.43
1.37
1.19
0.92
0.59
0.22
-0.17
-0.57
-0.97
-1.29
-1.48
-1.49
-1.35
-1.10
-0.80
-0.49
-0.20
0.02
0.14
0.15
0.06
-0.03
-0.04
0.05
0.20
0.31
0.31
0.20
0.05
-0.07
-0.11
-0.09
-0.04
-0.02
-0.03
-0.08
-0.17
-0.34
-0.59
-0.90
-1.16
-1.26
-1.11
-0.69
-0.09
0.55
1.08
1.36
1.36
1.12
0.74
0.32
-0.02
-0.21
-0.24
-0.11
0.11
0.35
0.51
0.52
0.39
0.18
-0.05
-0.21
-0.29
-0.32
-0.36
-0.47
-0.63
-0.78
-0.87
-0.84
-0.67
-0.40
-0.06
0.29
0.59
0.76
0.79
0.67
0.42
0.14
-0.12
-0.33
-0.51
-0.66
-0.80
-0.86
-0.76
-0.45
0.03
0.55
0.94
1.07
0.89
0.52
0.10
-0.20
-0.31
-0.27
-0.16
-0.09
-0.15
-0.32
-0.59
-0.88
-1.12
-1.24
-1.21
-1.01
-0.67
-0.26
0.14
0.46
0.69
0.81
0.86
0.85
0.81
0.73
0.60
0.40
0.17
-0.03
-0.12
-0.05
0.18
0.51
0.81
1.00
1.03
0.92
0.71
0.46
0.18
-0.11
-0.36
-0.49
-0.41
-0.12
0.26
0.56
0.62
0.38
-0.06
-0.54
-0.85
-0.87
-0.62
-0.20
0.25
0.60
0.77
0.74
0.54
0.26
-0.01
-0.20
-0.26
-0.24
-0.19
-0.20
-0.28
-0.42
-0.58
-0.69
-0.70
-0.60
-0.37
-0.06
0.22
0.37
0.32
0.05
-0.33
-0.67
-0.86
-0.88
-0.82
-0.80
-0.86
-0.97
-1.02
-0.89
-0.58
-0.18
0.14
0.29
0.25
0.11
-0.01
0.00
0.18
0.49
0.81
1.05
1.13
1.04
0.85
0.66
0.55
0.55
0.60
0.59
0.47
0.22
-0.03
-0.16
-0.09
0.13
0.37
0.47
0.36
0.11
-0.12
-0.17
-0.03
0.24
0.48
0.55
0.44
0.25
0.10
0.08
0.16
0.23
0.18
-0.04
-0.36
-0.68
-0.88
-0.91
-0.79
-0.57
-0.33
-0.13
0.01
0.07
0.04
-0.06
-0.19
-0.30
-0.36
-0.32
-0.21
-0.05
0.15
0.37
0.59
0.76
0.82
0.68
0.35
-0.12
-0.58
-0.93
-1.09
-1.07
-0.92
-0.69
-0.41
-0.12
0.15
0.31
0.33
0.19
-0.01
-0.14
-0.11
0.08
0.34
0.49
0.43
0.15
-0.23
-0.55
-0.63
-0.42
0.05
0.62
1.13
1.43
1.42
1.17
0.76
0.36
0.05
-0.14
-0.27
-0.38
-0.48
-0.54
-0.47
-0.26
0.08
0.44
0.73
0.87
0.84
0.66
0.35
-0.04
-0.45
-0.80
-1.01
-1.02
-0.85
-0.55
-0.20
0.11
0.29
0.33
0.22
0.04
-0.14
-0.23
-0.18
-0.03
0.14
0.23
0.20
0.08
0.01
0.02
0.09
0.12
-0.01
-0.30
-0.66
-0.90
-0.91
-0.69
-0.37
-0.09
0.04
0.05
0.04
0.09
0.19
0.28
0.28
0.16
-0.02
-0.16
-0.18
-0.08
0.11
0.28
0.38
0.41
0.41
0.42
0.46
0.49
0.48
0.40
0.29
0.17
0.06
-0.03
-0.16
-0.34
-0.54
-0.72
-0.79
-0.73
-0.56
-0.35
-0.17
-0.05
0.01
0.08
0.17
0.30
0.41
0.48
0.49
0.47
0.43
0.40
0.34
0.22
0.03
-0.22
-0.45
-0.58
-0.57
-0.44
-0.27
-0.19
-0.26
-0.47
-0.72
-0.87
-0.84
-0.63
-0.34
-0.09
0.02
-0.01
-0.14
-0.25
-0.30
-0.27
-0.19
-0.11
-0.01
0.15
0.41
0.78
1.20
1.57
1.81
1.84
1.69
1.39
1.03
0.69
0.42
0.23
0.11
0.04
-0.05
-0.18
-0.36
-0.59
-0.83
-1.02
-1.09
-1.01
-0.79
-0.48
-0.13
0.18
0.44
0.63
0.77
0.81
0.72
0.47
0.09
-0.34
-0.72
-0.97
-1.08
-1.07
-1.00
-0.90
-0.77
-0.58
-0.35
-0.13
0.00
-0.00
-0.15
-0.36
-0.54
-0.58
-0.44
-0.14
0.22
0.55
0.76
0.86
0.89
0.95
1.10
1.29
1.43
1.40
1.17
0.77
0.30
-0.11
-0.40
-0.55
-0.58
-0.49
-0.27
0.07
0.48
0.81
0.93
0.75
0.32
-0.22
-0.67
-0.90
-0.86
-0.61
-0.26
0.08
0.31
0.38
0.30
0.09
-0.20
-0.51
-0.77
-0.93
-0.96
-0.88
-0.72
-0.49
-0.24
-0.02
0.11
0.10
-0.08
-0.41
-0.82
-1.23
-1.53
-1.64
-1.49
-1.08
-0.50
0.11
0.60
0.87
0.92
0.82
0.69
0.61
0.59
0.59
0.54
0.40
0.20
0.02
-0.09
-0.08
0.03
0.17
0.30
0.35
0.32
0.22
0.12
0.05
0.08
0.21
0.40
0.58
0.67
0.62
0.46
0.26
0.11
0.06
0.11
0.19
0.24
0.23
0.17
0.10
0.06
0.06
0.09
0.12
0.17
0.24
0.32
0.41
0.43
0.36
0.20
0.05
-0.03
0.03
0.21
0.40
0.49
0.42
0.20
-0.10
-0.36
-0.49
-0.46
-0.28
-0.04
0.17
0.27
0.23
0.06
-0.17
-0.38
-0.54
-0.62
-0.66
-0.68
-0.71
-0.74
-0.77
-0.77
-0.75
-0.71
-0.65
-0.59
-0.54
-0.52
-0.52
-0.54
-0.54
-0.47
-0.29
-0.02
0.30
0.56
0.69
0.66
0.49
0.25
0.03
-0.12
-0.18
-0.17
-0.11
-0.06
-0.03
-0.03
-0.07
-0.15
-0.24
-0.31
-0.29
-0.17
0.03
0.26
0.44
0.54
0.57
0.59
0.62
0.69
0.74
0.71
0.57
0.31
-0.00
-0.31
-0.56
-0.71
-0.77
-0.72
-0.56
-0.30
0.03
0.34
0.55
0.63
0.62
0.57
0.58
0.67
0.82
0.98
1.07
1.07
0.98
0.80
0.54
0.21
-0.15
-0.48
-0.67
-0.65
-0.42
-0.07
0.23
0.35
0.23
-0.09
-0.46
-0.74
-0.84
-0.79
-0.67
-0.56
-0.49
-0.41
-0.24
0.03
0.36
0.61
0.66
0.48
0.14
-0.17
-0.29
-0.17
0.11
0.40
0.53
0.45
0.24
0.03
-0.07
-0.03
0.09
0.21
0.24
0.17
0.00
-0.21
-0.42
-0.62
-0.77
-0.85
-0.81
-0.67
-0.46
-0.26
-0.12
-0.08
-0.11
-0.17
-0.20
-0.16
-0.04
0.12
0.26
0.33
0.30
0.20
0.08
0.02
0.06
0.19
0.33
0.41
0.37
0.21
-0.01
-0.23
-0.38
-0.44
-0.42
-0.34
-0.22
-0.10
-0.00
0.06
0.09
0.13
0.21
0.32
0.43
0.47
0.41
0.30
0.18
0.13
0.17
0.25
0.28
0.19
-0.04
-0.36
-0.65
-0.80
-0.72
-0.44
-0.05
0.29
0.45
0.38
0.13
-0.17
-0.39
-0.46
-0.37
-0.19
0.02
0.21
0.36
0.46
0.47
0.37
0.20
-0.02
-0.19
-0.26
-0.22
-0.11
-0.02
0.00
-0.05
-0.14
-0.20
-0.21
-0.13
0.01
0.17
0.31
0.38
0.38
0.32
0.17
-0.03
-0.26
-0.47
-0.61
-0.63
-0.51
-0.32
-0.11
0.05
0.13
0.14
0.15
0.18
0.24
0.31
0.34
0.30
0.21
0.12
0.07
0.07
0.07
0.00
-0.17
-0.43
-0.73
-0.97
-1.07
-0.99
-0.75
-0.41
-0.04
0.31
0.61
0.85
1.01
1.05
0.98
0.77
0.48
0.16
-0.13
-0.33
-0.43
-0.46
-0.46
-0.47
-0.48
-0.47
-0.41
-0.27
-0.09
0.09
0.21
0.25
0.22
0.16
0.15
0.20
0.31
0.40
0.40
0.29
0.07
-0.15
-0.29
-0.30
-0.19
-0.04
0.05
-0.00
-0.18
-0.40
-0.53
-0.49
-0.26
0.08
0.42
0.64
0.70
0.63
0.52
0.45
0.47
0.55
0.66
0.76
0.82
0.83
0.78
0.66
0.48
0.27
0.11
0.02
0.01
0.02
-0.04
-0.19
-0.39
-0.52
-0.51
-0.31
-0.01
0.26
0.38
0.32
0.12
-0.16
-0.44
-0.68
-0.87
-1.00
-1.04
-0.99
-0.87
-0.68
-0.49
-0.31
-0.14
0.02
0.18
0.34
0.46
0.50
0.45
0.32
0.17
0.06
0.01
0.05
0.19
0.37
0.56
0.67
0.66
0.50
0.25
-0.01
-0.18
-0.22
-0.17
-0.09
-0.05
-0.09
-0.17
-0.25
-0.29
-0.26
-0.17
-0.00
0.22
0.46
0.66
0.73
0.60
0.31
-0.06
-0.39
-0.56
-0.52
-0.29
0.04
0.38
0.65
0.76
0.72
0.55
0.32
0.11
-0.02
-0.07
-0.07
-0.07
-0.11
-0.20
-0.31
-0.42
-0.55
-0.68
-0.84
-0.99
-1.09
-1.09
-1.00
-0.84
-0.69
-0.59
-0.53
-0.44
-0.23
0.09
0.49
0.83
0.98
0.87
0.53
0.06
-0.36
-0.62
-0.69
-0.59
-0.41
-0.24
-0.14
-0.09
-0.08
-0.06
-0.01
0.08
0.15
0.16
0.11
0.02
-0.07
-0.13
-0.15
-0.15
-0.16
-0.18
-0.16
-0.02
0.26
0.62
0.94
1.07
0.93
0.56
0.12
-0.22
-0.34
-0.22
0.04
0.29
0.43
0.40
0.24
0.06
-0.03
0.02
0.19
0.40
0.54
0.53
0.36
0.10
-0.16
-0.35
-0.44
-0.45
-0.42
-0.36
-0.28
-0.17
-0.06
0.03
0.07
0.05
-0.01
-0.07
-0.09
-0.04
0.12
0.37
0.63
0.81
0.81
0.60
0.23
-0.19
-0.54
-0.74
-0.77
-0.67
-0.49
-0.23
0.13
0.55
0.96
1.22
1.22
0.95
0.55
0.17
-0.01
0.05
0.28
0.51
0.60
0.49
0.23
-0.08
-0.34
-0.49
-0.56
-0.58
-0.56
-0.50
-0.36
-0.15
0.11
0.32
0.43
0.39
0.21
-0.04
-0.30
-0.47
-0.53
-0.48
-0.36
-0.23
-0.16
-0.20
-0.35
-0.57
-0.77
-0.91
-0.96
-0.97
-0.96
-0.95
-0.90
-0.73
-0.42
-0.02
0.33
0.48
0.38
0.06
-0.32
-0.58
-0.62
-0.43
-0.10
0.26
0.56
0.75
0.83
0.83
0.77
0.67
0.57
0.50
0.46
0.42
0.33
0.17
-0.05
-0.25
-0.38
-0.41
-0.37
-0.34
-0.37
-0.45
-0.50
-0.46
-0.31
-0.08
0.15
0.29
0.32
0.26
0.15
0.04
-0.02
0.00
0.12
0.31
0.53
0.72
0.82
0.82
0.74
0.61
0.47
0.32
0.15
-0.02
-0.19
-0.29
-0.28
-0.13
0.14
0.45
0.68
0.72
0.49
0.03
-0.49
-0.89
-1.01
-0.84
-0.51
-0.19
0.02
0.14
0.26
0.48
0.76
0.99
0.99
0.71
0.19
-0.36
-0.74
-0.84
-0.69
-0.42
-0.17
-0.03
0.04
0.09
0.20
0.35
0.50
0.57
0.53
0.39
0.25
0.20
0.26
0.38
0.45
0.37
0.13
-0.16
-0.34
-0.32
-0.13
0.12
0.25
0.22
0.07
-0.08
-0.13
-0.10
-0.06
-0.15
-0.40
-0.76
-1.11
-1.33
-1.34
-1.19
-0.95
-0.70
-0.49
-0.31
-0.17
-0.05
0.05
0.08
0.02
-0.15
-0.39
-0.62
-0.75
-0.70
-0.45
-0.05
0.38
0.73
0.90
0.88
0.68
0.37
0.05
-0.18
-0.26
-0.16
0.10
0.42
0.70
0.83
0.78
0.59
0.32
0.08
-0.09
-0.13
-0.08
0.08
0.31
0.56
0.75
0.80
0.66
0.34
-0.06
-0.40
-0.57
-0.54
-0.35
-0.12
0.03
0.03
-0.11
-0.32
-0.53
-0.67
-0.72
-0.70
-0.63
-0.55
-0.43
-0.25
-0.01
0.25
0.47
0.59
0.56
0.45
0.31
0.19
0.11
0.06
-0.00
-0.04
-0.01
0.11
0.30
0.46
0.45
0.21
-0.22
-0.68
-0.97
-0.98
-0.68
-0.21
0.23
0.49
0.53
0.38
0.14
-0.09
-0.25
-0.33
-0.32
-0.22
-0.04
0.20
0.43
0.60
0.66
0.65
0.64
0.70
0.83
0.99
1.05
0.93
0.62
0.16
-0.31
-0.67
-0.87
-0.92
-0.87
-0.78
-0.69
-0.61
-0.53
-0.44
-0.36
-0.29
-0.28
-0.32
-0.36
-0.35
-0.22
0.01
0.27
0.44
0.45
0.26
-0.07
-0.42
-0.70
-0.80
-0.70
-0.43
-0.07
0.27
0.49
0.53
0.37
0.11
-0.11
-0.18
-0.04
0.27
0.62
0.89
1.00
0.96
0.83
0.70
0.60
0.51
0.39
0.21
-0.02
-0.23
-0.38
-0.46
-0.52
-0.59
-0.72
-0.86
-0.96
-0.90
-0.65
-0.26
0.14
0.38
0.39
0.19
-0.06
-0.17
-0.03
0.32
0.69
0.87
0.73
0.31
-0.20
-0.59
-0.70
-0.52
-0.17
0.22
0.52
0.68
0.73
0.70
0.64
0.58
0.53
0.50
0.44
0.35
0.19
-0.05
-0.33
-0.64
-0.94
-1.19
-1.36
-1.37
-1.21
-0.87
-0.38
0.16
0.65
1.02
1.23
1.25
1.14
0.91
0.62
0.32
0.04
-0.18
-0.34
-0.46
-0.58
-0.70
-0.83
-0.94
-0.98
-0.94
-0.82
-0.62
-0.37
-0.11
0.12
0.31
0.43
0.48
0.47
0.40
0.28
0.12
-0.03
-0.15
-0.20
-0.15
-0.01
0.18
0.39
0.59
0.76
0.89
0.96
0.94
0.85
0.71
0.58
0.50
0.45
0.39
0.24
-0.02
-0.37
-0.72
-0.94
-0.96
-0.80
-0.52
-0.25
-0.09
-0.07
-0.16
-0.25
-0.27
-0.18
0.00
0.18
0.26
0.16
-0.07
-0.34
-0.52
-0.49
-0.28
0.03
0.26
0.31
0.18
-0.02
-0.17
-0.17
-0.05
0.07
0.09
-0.04
-0.26
-0.44
-0.45
-0.30
-0.08
0.06
-0.00
-0.28
-0.65
-0.95
-1.02
-0.84
-0.46
-0.05
0.25
0.35
0.27
0.11
-0.04
-0.10
-0.03
0.13
0.32
0.49
0.58
0.58
0.55
0.52
0.56
0.67
0.83
0.97
1.04
1.02
0.91
0.76
0.59
0.40
0.17
-0.09
-0.35
-0.56
-0.65
-0.63
-0.52
-0.41
-0.36
-0.40
-0.50
-0.57
-0.50
-0.25
0.15
0.60
0.93
1.02
0.82
0.40
-0.09
-0.50
-0.73
-0.74
-0.57
-0.31
-0.04
0.18
0.32
0.37
0.33
0.21
0.04
-0.15
-0.30
-0.41
-0.48
-0.52
-0.58
-0.63
-0.66
-0.64
-0.53
-0.34
-0.10
0.15
0.36
0.46
0.42
0.24
-0.03
-0.31
-0.51
-0.56
-0.47
-0.28
-0.06
0.13
0.26
0.31
0.27
0.15
-0.03
-0.23
-0.34
-0.30
-0.08
0.23
0.52
0.66
0.60
0.40
0.21
0.14
0.26
0.51
0.77
0.89
0.82
0.56
0.23
-0.08
-0.27
-0.34
-0.32
-0.27
-0.23
-0.21
-0.18
-0.12
0.00
0.15
0.28
0.36
0.40
0.42
0.44
0.46
0.46
0.38
0.21
-0.01
-0.19
-0.29
-0.30
-0.27
-0.26
-0.28
-0.26
-0.16
0.05
0.30
0.49
0.52
0.40
0.20
0.04
-0.06
-0.12
-0.19
-0.33
-0.53
-0.70
-0.77
-0.71
-0.53
-0.31
-0.10
0.07
0.21
0.32
0.39
0.41
0.38
0.33
0.29
0.31
0.42
0.58
0.75
0.88
0.90
0.76
0.47
0.08
-0.33
-0.66
-0.83
-0.80
-0.62
-0.36
-0.13
-0.00
0.00
-0.09
-0.21
-0.32
-0.41
-0.50
-0.64
-0.84
-1.07
-1.25
-1.28
-1.07
-0.66
-0.14
0.34
0.62
0.65
0.46
0.17
-0.10
-0.24
-0.25
-0.19
-0.17
-0.24
-0.40
-0.57
-0.62
-0.50
-0.23
0.08
0.29
0.31
0.18
-0.00
-0.14
-0.20
-0.21
-0.26
-0.36
-0.50
-0.59
-0.55
-0.37
-0.10
0.15
0.31
0.36
0.34
0.32
0.38
0.53
0.74
0.92
1.01
0.96
0.78
0.56
0.35
0.24
0.22
0.26
0.29
0.25
0.15
-0.01
-0.16
-0.27
-0.29
-0.21
-0.04
0.19
0.44
0.66
0.84
0.97
1.02
0.99
0.85
0.62
0.33
0.04
-0.16
-0.23
-0.18
-0.09
-0.08
-0.18
-0.37
-0.55
-0.62
-0.54
-0.35
-0.16
-0.06
-0.08
-0.16
-0.24
-0.27
-0.25
-0.22
-0.24
-0.32
-0.41
-0.44
-0.35
-0.10
0.26
0.66
1.00
1.18
1.12
0.79
0.24
-0.42
-1.03
-1.44
-1.53
-1.31
-0.89
-0.42
-0.09
-0.01
-0.19
-0.51
-0.85
-1.06
-1.05
-0.83
-0.48
-0.12
0.15
0.30
0.33
0.33
0.38
0.51
0.69
0.83
0.85
0.75
0.58
0.42
0.34
0.33
0.31
0.21
-0.00
-0.25
-0.43
-0.46
-0.32
-0.05
0.25
0.51
0.66
0.70
0.61
0.42
0.15
-0.13
-0.33
-0.42
-0.41
-0.33
-0.25
-0.20
-0.16
-0.08
0.11
0.39
0.70
0.93
0.99
0.84
0.52
0.14
-0.20
-0.42
-0.49
-0.45
-0.35
-0.24
-0.14
-0.08
-0.06
-0.10
-0.21
-0.36
-0.48
-0.51
-0.41
-0.18
0.09
0.30
0.38
0.32
0.18
0.04
-0.04
-0.05
0.04
0.22
0.48
0.79
1.10
1.28
1.26
1.01
0.62
0.24
-0.00
-0.05
0.01
0.05
-0.03
-0.22
-0.45
-0.59
-0.60
-0.51
-0.43
-0.43
-0.54
-0.68
-0.74
-0.64
-0.39
-0.10
0.13
0.20
0.11
-0.05
-0.21
-0.31
-0.36
-0.40
-0.45
-0.51
-0.51
-0.41
-0.25
-0.10
-0.05
-0.14
-0.28
-0.35
-0.24
0.04
0.37
0.59
0.61
0.46
0.29
0.23
0.36
0.62
0.88
0.99
0.86
0.52
0.06
-0.39
-0.70
-0.81
-0.75
-0.57
-0.34
-0.13
0.03
0.14
0.19
0.16
0.03
-0.20
-0.49
-0.76
-0.95
-1.02
-0.98
-0.87
-0.71
-0.50
-0.22
0.14
0.51
0.83
0.99
0.96
0.76
0.48
0.24
0.15
0.25
0.46
0.69
0.79
0.70
0.43
0.07
-0.26
-0.48
-0.55
-0.50
-0.35
-0.15
0.08
0.33
0.56
0.76
0.86
0.86
0.72
0.47
0.14
-0.17
-0.37
-0.37
-0.21
0.03
0.18
0.15
-0.08
-0.37
-0.57
-0.55
-0.29
0.13
0.57
0.92
1.11
1.14
1.02
0.77
0.40
-0.02
-0.43
-0.75
-0.92
-0.97
-0.93
-0.87
-0.82
-0.76
-0.64
-0.40
-0.05
0.32
0.60
0.70
0.60
0.36
0.12
-0.03
-0.06
-0.00
0.04
0.00
-0.13
-0.32
-0.48
-0.60
-0.70
-0.81
-0.95
-1.07
-1.09
-0.93
-0.60
-0.17
0.20
0.38
0.33
0.12
-0.12
-0.28
-0.31
-0.24
-0.13
-0.01
0.12
0.29
0.53
0.79
1.01
1.11
1.03
0.77
0.42
0.08
-0.12
-0.10
0.11
0.42
0.67
0.73
0.51
0.04
-0.57
-1.17
-1.61
-1.77
-1.60
-1.16
-0.56
-0.00
0.38
0.50
0.38
0.14
-0.08
-0.20
-0.23
-0.22
-0.21
-0.21
-0.14
0.04
0.33
0.68
0.95
1.06
1.00
0.82
0.62
0.49
0.48
0.59
0.75
0.91
0.99
0.97
0.83
0.60
0.30
0.01
-0.24
-0.41
-0.49
-0.50
-0.49
-0.51
-0.56
-0.60
-0.57
-0.43
-0.18
0.11
0.32
0.38
0.30
0.12
-0.05
-0.14
-0.15
-0.10
-0.02
0.05
0.09
0.09
0.02
-0.15
-0.45
-0.83
-1.21
-1.47
-1.51
-1.31
-0.95
-0.56
-0.29
-0.20
-0.29
-0.46
-0.58
-0.55
-0.35
-0.04
0.25
0.45
0.52
0.49
0.41
0.34
0.33
0.38
0.50
0.64
0.78
0.87
0.88
0.79
0.62
0.38
0.12
-0.12
-0.28
-0.34
-0.29
-0.17
-0.04
0.05
0.05
-0.04
-0.14
-0.20
-0.16
-0.02
0.13
0.19
0.11
-0.11
-0.37
-0.54
-0.52
-0.28
0.10
0.47
0.72
0.80
0.76
0.68
0.65
0.68
0.73
0.75
0.70
0.60
0.50
0.44
0.39
0.33
0.20
0.01
-0.23
-0.48
-0.72
-0.96
-1.18
-1.33
-1.35
-1.18
-0.85
-0.46
-0.12
0.05
0.04
-0.12
-0.34
-0.54
-0.68
-0.78
-0.82
-0.83
-0.80
-0.74
-0.67
-0.57
-0.40
-0.14
0.21
0.58
0.90
1.10
1.18
1.15
1.06
0.93
0.79
0.64
0.49
0.38
0.33
0.35
0.41
0.48
0.54
0.57
0.58
0.53
0.39
0.13
-0.19
-0.49
-0.66
-0.64
-0.46
-0.22
-0.04
0.04
0.04
0.03
0.09
0.23
0.39
0.50
0.48
0.34
0.14
-0.06
-0.18
-0.20
-0.11
0.03
0.18
0.27
0.28
0.21
0.08
-0.07
-0.20
-0.32
-0.44
-0.56
-0.66
-0.72
-0.70
-0.63
-0.54
-0.45
-0.36
-0.24
-0.06
0.16
0.36
0.47
0.43
0.25
-0.01
-0.23
-0.33
-0.27
-0.07
0.21
0.47
0.64
0.67
0.60
0.45
0.32
0.25
0.25
0.29
0.33
0.33
0.29
0.21
0.08
-0.10
-0.33
-0.60
-0.86
-1.05
-1.16
-1.15
-1.03
-0.84
-0.57
-0.25
0.09
0.40
0.59
0.61
0.43
0.13
-0.17
-0.34
-0.32
-0.08
0.30
0.71
1.07
1.29
1.33
1.19
0.89
0.50
0.12
-0.18
-0.34
-0.37
-0.31
-0.23
-0.16
-0.12
-0.12
-0.15
-0.22
-0.36
-0.56
-0.77
-0.92
-0.95
-0.79
-0.47
-0.07
0.29
0.51
0.55
0.46
0.30
0.15
0.04
-0.02
-0.07
-0.13
-0.19
-0.22
-0.20
-0.12
0.00
0.14
0.27
0.40
0.53
0.64
0.72
0.72
0.64
0.46
0.19
-0.15
-0.54
-0.92
-1.24
-1.41
-1.41
-1.23
-0.91
-0.51
-0.09
0.26
0.53
0.66
0.66
0.54
0.35
0.16
0.03
-0.03
-0.02
-0.00
0.01
-0.01
-0.03
-0.03
0.01
0.10
0.24
0.41
0.59
0.72
0.74
0.65
0.48
0.31
0.24
0.31
0.47
0.59
0.54
0.24
-0.23
-0.71
-1.01
-1.02
-0.77
-0.38
-0.01
0.22
0.29
0.25
0.15
0.03
-0.12
-0.33
-0.60
-0.91
-1.16
-1.27
-1.20
-0.97
-0.68
-0.40
-0.22
-0.16
-0.15
-0.11
0.03
0.28
0.61
0.93
1.18
1.32
1.36
1.32
1.23
1.11
0.96
0.77
0.54
0.30
0.12
0.05
0.08
0.16
0.18
0.06
-0.19
-0.44
-0.57
-0.49
-0.22
0.07
0.20
0.08
-0.23
-0.55
-0.68
-0.53
-0.18
0.21
0.44
0.40
0.15
-0.17
-0.42
-0.48
-0.36
-0.16
-0.00
0.03
-0.09
-0.31
-0.54
-0.72
-0.81
-0.78
-0.64
-0.40
-0.10
0.21
0.47
0.59
0.55
0.34
0.02
-0.32
-0.60
-0.72
-0.67
-0.45
-0.13
0.20
0.45
0.57
0.56
0.45
0.27
0.05
-0.21
-0.47
-0.68
-0.78
-0.74
-0.60
-0.40
-0.20
-0.04
0.13
0.33
0.56
0.78
0.89
0.81
0.55
0.22
-0.04
-0.10
0.06
0.34
0.59
0.72
0.71
0.62
0.53
0.47
0.44
0.40
0.30
0.18
0.08
0.03
0.05
0.10
0.10
0.02
-0.14
-0.32
-0.46
-0.52
-0.50
-0.45
-0.41
-0.40
-0.38
-0.28
-0.09
0.18
0.43
0.56
0.50
0.27
-0.06
-0.37
-0.58
-0.66
-0.65
-0.59
-0.51
-0.39
-0.21
0.04
0.30
0.51
0.64
0.65
0.58
0.45
0.30
0.16
0.05
0.01
0.08
0.25
0.47
0.62
0.57
0.30
-0.14
-0.59
-0.87
-0.91
-0.75
-0.51
-0.32
-0.23
-0.22
-0.23
-0.21
-0.18
-0.17
-0.20
-0.29
-0.41
-0.52
-0.58
-0.57
-0.48
-0.30
-0.07
0.13
0.24
0.20
0.04
-0.17
-0.32
-0.34
-0.22
0.00
0.25
0.48
0.62
0.65
0.56
0.40
0.22
0.11
0.15
0.34
0.60
0.81
0.85
0.72
0.48
0.26
0.14
0.15
0.20
0.17
0.00
-0.27
-0.54
-0.68
-0.62
-0.39
-0.11
0.08
0.11
0.03
-0.06
-0.07
0.06
0.27
0.48
0.63
0.71
0.77
0.85
0.92
0.92
0.77
0.42
-0.07
-0.56
-0.90
-0.99
-0.82
-0.51
-0.22
-0.07
-0.08
-0.19
-0.28
-0.28
-0.17
-0.04
0.02
-0.06
-0.26
-0.50
-0.68
-0.72
-0.63
-0.46
-0.29
-0.18
-0.18
-0.24
-0.36
-0.48
-0.60
-0.68
-0.69
-0.62
-0.43
-0.17
0.09
0.25
0.26
0.15
0.02
-0.05
-0.01
0.08
0.12
0.01
-0.20
-0.38
-0.35
-0.05
0.46
0.97
1.23
1.14
0.73
0.18
-0.31
-0.58
-0.61
-0.42
-0.11
0.25
0.57
0.77
0.84
0.78
0.68
0.64
0.71
0.87
1.01
1.01
0.83
0.52
0.23
0.08
0.12
0.24
0.32
0.26
0.06
-0.19
-0.38
-0.47
-0.50
-0.53
-0.64
-0.77
-0.82
-0.70
-0.40
-0.04
0.22
0.24
0.02
-0.35
-0.67
-0.79
-0.66
-0.40
-0.14
-0.03
-0.07
-0.19
-0.23
-0.13
0.14
0.46
0.67
0.66
0.41
0.03
-0.32
-0.52
-0.53
-0.39
-0.19
-0.02
0.11
0.17
0.18
0.12
-0.03
-0.27
-0.57
-0.86
-1.04
-1.03
-0.82
-0.43
0.04
0.46
0.70
0.72
0.52
0.22
-0.03
-0.12
0.00
0.28
0.62
0.93
1.14
1.20
1.10
0.87
0.55
0.22
-0.07
-0.27
-0.38
-0.42
-0.38
-0.25
-0.02
0.31
0.65
0.92
1.04
0.97
0.74
0.41
0.05
-0.29
-0.58
-0.77
-0.84
-0.78
-0.60
-0.38
-0.18
-0.08
-0.11
-0.23
-0.40
-0.53
-0.56
-0.51
-0.40
-0.32
-0.30
-0.36
-0.44
-0.48
-0.43
-0.29
-0.11
0.02
0.04
-0.05
-0.20
-0.34
-0.41
-0.39
-0.32
-0.23
-0.14
-0.02
0.17
0.43
0.72
0.92
0.93
0.72
0.37
0.02
-0.19
-0.20
-0.03
0.20
0.40
0.50
0.48
0.36
0.18
-0.03
-0.21
-0.29
-0.26
-0.13
0.03
0.12
0.12
0.03
-0.10
-0.21
-0.27
-0.27
-0.21
-0.11
0.01
0.15
0.27
0.34
0.34
0.29
0.23
0.19
0.19
0.25
0.35
0.51
0.74
0.98
1.17
1.23
1.13
0.88
0.56
0.28
0.09
-0.01
-0.07
-0.17
-0.36
-0.62
-0.87
-1.02
-1.02
-0.86
-0.62
-0.41
-0.32
-0.38
-0.54
-0.71
-0.79
-0.71
-0.51
-0.27
-0.11
-0.10
-0.24
-0.44
-0.57
-0.55
-0.32
0.02
0.35
0.56
0.59
0.49
0.35
0.25
0.22
0.22
0.20
0.11
-0.02
-0.10
-0.06
0.11
0.36
0.55
0.58
0.41
0.09
-0.25
-0.48
-0.49
-0.25
0.17
0.66
1.07
1.26
1.19
0.87
0.38
-0.13
-0.54
-0.79
-0.88
-0.86
-0.77
-0.62
-0.43
-0.23
-0.08
-0.07
-0.26
-0.62
-1.00
-1.22
-1.14
-0.75
-0.19
0.33
0.64
0.70
0.61
0.56
0.65
0.91
1.21
1.40
1.34
1.02
0.54
0.05
-0.31
-0.49
-0.50
-0.38
-0.22
-0.04
0.12
0.27
0.36
0.36
0.26
0.07
-0.13
-0.26
-0.28
-0.18
-0.08
-0.07
-0.22
-0.50
-0.80
-1.02
-1.05
-0.92
-0.69
-0.42
-0.17
0.05
0.25
0.42
0.56
0.64
0.68
0.68
0.65
0.58
0.46
0.28
0.06
-0.20
-0.48
-0.79
-1.08
-1.28
-1.31
-1.12
-0.73
-0.27
0.12
0.35
0.41
0.36
0.31
0.30
0.32
0.34
0.34
0.36
0.41
0.49
0.57
0.58
0.50
0.30
0.01
-0.35
-0.72
-1.03
-1.20
-1.17
-0.94
-0.57
-0.18
0.09
0.17
0.10
-0.05
-0.15
-0.13
0.01
0.23
0.44
0.60
0.69
0.73
0.75
0.77
0.74
0.64
0.47
0.26
0.08
-0.01
-0.02
-0.02
-0.05
-0.15
-0.24
-0.25
-0.14
0.05
0.24
0.31
0.22
0.00
-0.27
-0.49
-0.60
-0.56
-0.41
-0.18
0.05
0.23
0.31
0.33
0.30
0.28
0.27
0.25
0.21
0.16
0.15
0.20
0.32
0.43
0.43
0.25
-0.06
-0.40
-0.63
-0.67
-0.53
-0.33
-0.18
-0.15
-0.21
-0.30
-0.33
-0.29
-0.20
-0.14
-0.13
-0.18
-0.22
-0.20
-0.07
0.15
0.42
0.64
0.77
0.76
0.63
0.44
0.27
0.17
0.17
0.23
0.29
0.29
0.18
-0.01
-0.25
-0.48
-0.64
-0.70
-0.64
-0.48
-0.24
-0.00
0.18
0.27
0.27
0.24
0.21
0.17
0.11
-0.01
-0.17
-0.32
-0.37
-0.27
-0.06
0.15
0.24
0.16
-0.07
-0.33
-0.51
-0.56
-0.50
-0.38
-0.26
-0.13
0.05
0.30
0.57
0.77
0.80
0.61
0.26
-0.10
-0.33
-0.35
-0.16
0.12
0.40
0.61
0.74
0.83
0.91
0.96
0.92
0.75
0.46
0.09
-0.26
-0.54
-0.74
-0.88
-1.00
-1.11
-1.19
-1.19
-1.08
-0.90
-0.68
-0.51
-0.42
-0.41
-0.43
-0.41
-0.31
-0.14
0.05
0.19
0.26
0.27
0.25
0.25
0.28
0.30
0.25
0.12
-0.05
-0.17
-0.12
0.12
0.51
0.88
1.06
0.98
0.66
0.23
-0.14
-0.33
-0.29
-0.04
0.34
0.75
1.08
1.22
1.12
0.81
0.35
-0.12
-0.49
-0.70
-0.78
-0.77
-0.71
-0.60
-0.45
-0.29
-0.15
-0.07
-0.02
0.02
0.13
0.32
0.51
0.62
0.56
0.33
-0.00
-0.31
-0.52
-0.60
-0.60
-0.57
-0.51
-0.40
-0.23
-0.01
0.22
0.38
0.42
0.34
0.17
-0.03
-0.22
-0.38
-0.48
-0.49
-0.36
-0.10
0.25
0.57
0.76
0.75
0.56
0.32
0.16
0.15
0.26
0.37
0.37
0.22
-0.03
-0.28
-0.46
-0.56
-0.63
-0.71
-0.81
-0.84
-0.71
-0.39
0.05
0.49
0.81
0.92
0.87
0.74
0.61
0.53
0.49
0.44
0.37
0.25
0.13
0.03
-0.02
-0.03
-0.03
-0.03
-0.05
-0.10
-0.18
-0.29
-0.41
-0.49
-0.50
-0.43
-0.27
-0.07
0.13
0.28
0.32
0.26
0.11
-0.06
-0.20
-0.25
-0.19
-0.04
0.16
0.37
0.53
0.63
0.63
0.52
0.28
-0.08
-0.53
-0.98
-1.34
-1.52
-1.51
-1.36
-1.12
-0.88
-0.66
-0.51
-0.43
-0.43
-0.49
-0.59
-0.63
-0.55
-0.32
0.05
0.47
0.78
0.86
0.68
0.30
-0.15
-0.51
-0.62
-0.45
-0.02
0.57
1.15
1.58
1.70
1.46
0.88
0.13
-0.54
-0.91
-0.83
-0.37
0.27
0.82
1.10
1.08
0.87
0.63
0.44
0.34
0.27
0.16
0.01
-0.13
-0.22
-0.21
-0.15
-0.09
-0.09
-0.15
-0.24
-0.32
-0.34
-0.30
-0.24
-0.19
-0.20
-0.24
-0.29
-0.33
-0.34
-0.30
-0.20
-0.04
0.16
0.37
0.51
0.52
0.40
0.20
0.03
-0.01
0.09
0.28
0.45
0.51
0.44
0.27
0.06
-0.11
-0.17
-0.14
-0.02
0.12
0.22
0.24
0.17
0.01
-0.16
-0.32
-0.42
-0.47
-0.47
-0.42
-0.33
-0.23
-0.16
-0.16
-0.21
-0.27
-0.29
-0.24
-0.15
-0.10
-0.16
-0.38
-0.70
-1.00
-1.13
-0.99
-0.57
0.02
0.62
1.03
1.11
0.86
0.35
-0.23
-0.72
-1.00
-1.06
-0.90
-0.59
-0.16
0.31
0.74
1.04
1.17
1.13
1.00
0.86
0.75
0.65
0.54
0.39
0.24
0.15
0.13
0.16
0.14
0.00
-0.27
-0.59
-0.82
-0.86
-0.65
-0.27
0.19
0.59
0.83
0.87
0.74
0.54
0.38
0.36
0.47
0.61
0.62
0.39
-0.06
-0.56
-0.90
-0.87
-0.49
0.08
0.57
0.75
0.58
0.16
-0.29
-0.61
-0.73
-0.70
-0.59
-0.45
-0.26
0.02
0.37
0.69
0.83
0.67
0.22
-0.38
-0.96
-1.33
-1.43
-1.28
-0.95
-0.53
-0.10
0.28
0.54
0.64
0.57
0.36
0.09
-0.13
-0.26
-0.27
-0.19
-0.07
0.07
0.18
0.22
0.14
-0.06
-0.32
-0.54
-0.59
-0.42
-0.06
0.36
0.71
0.89
0.91
0.83
0.74
0.68
0.64
0.55
0.40
0.19
-0.03
-0.21
-0.34
-0.39
-0.39
-0.33
-0.22
-0.07
0.10
0.29
0.45
0.56
0.60
0.58
0.51
0.41
0.31
0.25
0.20
0.12
-0.04
-0.30
-0.59
-0.77
-0.74
-0.44
0.04
0.49
0.70
0.57
0.15
-0.38
-0.82
-1.04
-1.03
-0.86
-0.64
-0.42
-0.24
-0.09
0.01
0.05
-0.01
-0.16
-0.37
-0.56
-0.65
-0.62
-0.45
-0.20
0.07
0.32
0.49
0.56
0.50
0.34
0.10
-0.12
-0.26
-0.25
-0.08
0.18
0.43
0.57
0.55
0.43
0.28
0.20
0.23
0.33
0.39
0.36
0.24
0.09
0.04
0.16
0.41
0.70
0.87
0.86
0.70
0.48
0.28
0.09
-0.17
-0.59
-1.15
-1.70
-2.06
-2.05
-1.67
-1.05
-0.42
0.02
0.20
0.16
0.04
-0.06
-0.12
-0.14
-0.19
-0.25
-0.31
-0.28
-0.13
0.11
0.39
0.62
0.72
0.71
0.62
0.52
0.46
0.43
0.38
0.25
0.03
-0.24
-0.46
-0.58
-0.58
-0.50
-0.41
-0.33
-0.25
-0.10
0.13
0.44
0.75
0.97
1.03
0.94
0.75
0.55
0.41
0.36
0.38
0.40
0.35
0.18
-0.13
-0.52
-0.92
-1.22
-1.37
-1.37
-1.22
-0.98
-0.68
-0.37
-0.06
0.23
0.49
0.67
0.76
0.74
0.62
0.44
0.23
0.08
0.04
0.12
0.28
0.43
0.48
0.39
0.19
-0.00
-0.09
-0.02
0.19
0.42
0.60
0.62
0.48
0.21
-0.09
-0.30
-0.35
-0.18
0.18
0.62
0.98
1.11
0.89
0.34
-0.42
-1.18
-1.72
-1.89
-1.65
-1.10
-0.41
0.20
0.58
0.65
0.47
0.19
-0.05
-0.16
-0.12
-0.01
0.11
0.16
0.11
-0.01
-0.13
-0.22
-0.22
-0.10
0.10
0.33
0.50
0.54
0.40
0.10
-0.31
-0.69
-0.96
-1.02
-0.89
-0.61
-0.25
0.10
0.40
0.59
0.64
0.56
0.36
0.09
-0.18
-0.36
-0.37
-0.18
0.18
0.59
0.93
1.05
0.90
0.53
0.06
-0.37
-0.66
-0.75
-0.69
-0.53
-0.33
-0.13
0.06
0.23
0.34
0.36
0.25
0.05
-0.17
-0.34
-0.38
-0.26
-0.03
0.25
0.45
0.49
0.34
0.03
-0.36
-0.69
-0.86
-0.79
-0.50
-0.07
0.35
0.67
0.79
0.76
0.64
0.52
0.46
0.47
0.48
0.45
0.34
0.15
-0.07
-0.25
-0.36
-0.40
-0.41
-0.41
-0.43
-0.45
-0.45
-0.38
-0.25
-0.06
0.15
0.31
0.38
0.31
0.11
-0.20
-0.58
-0.93
-1.18
-1.24
-1.11
-0.81
-0.43
-0.03
0.32
0.61
0.85
1.01
1.07
1.00
0.81
0.57
0.36
0.23
0.19
0.18
0.13
0.00
-0.17
-0.32
-0.37
-0.32
-0.22
-0.14
-0.15
-0.28
-0.48
-0.67
-0.77
-0.74
-0.62
-0.47
-0.35
-0.29
-0.26
-0.21
-0.08
0.12
0.38
0.61
0.77
0.84
0.85
0.83
0.81
0.75
0.61
0.39
0.10
-0.17
-0.34
-0.35
-0.25
-0.10
-0.02
-0.04
-0.14
-0.23
-0.27
-0.26
-0.26
-0.32
-0.44
-0.57
-0.60
-0.50
-0.29
-0.07
0.06
0.05
-0.05
-0.14
-0.16
-0.07
0.07
0.21
0.30
0.37
0.46
0.62
0.84
1.06
1.18
1.14
0.92
0.59
0.27
0.09
0.11
0.31
0.60
0.86
0.98
0.96
0.84
0.71
0.62
0.55
0.48
0.33
0.08
-0.23
-0.51
-0.68
-0.71
-0.61
-0.47
-0.40
-0.44
-0.59
-0.81
-1.01
-1.15
-1.20
-1.16
-1.04
-0.86
-0.61
-0.33
-0.07
0.12
0.20
0.15
0.02
-0.15
-0.34
-0.53
-0.74
-0.96
-1.11
-1.09
-0.84
-0.36
0.24
0.81
1.18
1.27
1.08
0.75
0.40
0.14
-0.02
-0.12
-0.23
-0.33
-0.37
-0.29
-0.05
0.29
0.58
0.72
0.63
0.36
-0.00
-0.32
-0.50
-0.49
-0.33
-0.09
0.15
0.30
0.32
0.20
0.00
-0.22
-0.40
-0.49
-0.49
-0.39
-0.20
0.05
0.28
0.46
0.56
0.60
0.66
0.79
0.95
1.07
1.02
0.75
0.31
-0.17
-0.55
-0.74
-0.76
-0.71
-0.67
-0.72
-0.82
-0.92
-0.95
-0.86
-0.66
-0.37
-0.05
0.21
0.35
0.31
0.13
-0.12
-0.34
-0.43
-0.37
-0.19
0.06
0.31
0.53
0.68
0.77
0.79
0.75
0.67
0.56
0.43
0.29
0.17
0.09
0.11
0.23
0.46
0.71
0.89
0.92
0.77
0.48
0.15
-0.09
-0.16
-0.07
0.11
0.26
0.28
0.14
-0.10
-0.34
-0.50
-0.55
-0.52
-0.44
-0.34
-0.23
-0.09
0.06
0.15
0.12
-0.04
-0.29
-0.53
-0.66
-0.63
-0.49
-0.32
-0.23
-0.27
-0.43
-0.64
-0.81
-0.86
-0.76
-0.52
-0.23
0.04
0.19
0.20
0.07
-0.12
-0.26
-0.28
-0.15
0.04
0.21
0.26
0.20
0.08
0.01
0.04
0.15
0.27
0.29
0.17
-0.06
-0.28
-0.35
-0.24
0.04
0.36
0.63
0.82
0.95
1.09
1.24
1.37
1.38
1.21
0.84
0.36
-0.09
-0.40
-0.48
-0.35
-0.10
0.15
0.31
0.28
0.10
-0.20
-0.48
-0.64
-0.62
-0.43
-0.19
-0.05
-0.10
-0.33
-0.62
-0.80
-0.77
-0.52
-0.18
0.14
0.33
0.40
0.41
0.41
0.42
0.35
0.16
-0.14
-0.45
-0.60
-0.48
-0.10
0.39
0.75
0.79
0.44
-0.17
-0.80
-1.22
-1.27
-1.00
-0.54
-0.11
0.19
0.35
0.44
0.52
0.59
0.57
0.40
0.09
-0.25
-0.45
-0.41
-0.18
0.10
0.26
0.22
0.08
-0.02
0.05
0.28
0.56
0.75
0.74
0.57
0.34
0.13
0.01
-0.06
-0.14
-0.23
-0.32
-0.35
-0.31
-0.20
-0.11
-0.10
-0.21
-0.39
-0.56
-0.62
-0.55
-0.39
-0.24
-0.19
-0.27
-0.44
-0.62
-0.74
-0.79
-0.78
-0.72
-0.62
-0.46
-0.20
0.13
0.47
0.73
0.86
0.83
0.71
0.57
0.49
0.50
0.61
0.77
0.91
0.98
0.94
0.79
0.56
0.33
0.12
-0.05
-0.19
-0.31
-0.43
-0.52
-0.55
-0.53
-0.47
-0.42
-0.43
-0.53
-0.70
-0.85
-0.93
-0.88
-0.69
-0.39
-0.05
0.26
0.45
0.50
0.39
0.20
0.02
-0.05
0.04
0.26
0.53
0.76
0.90
0.93
0.89
0.81
0.74
0.65
0.54
0.39
0.20
-0.00
-0.18
-0.30
-0.34
-0.31
-0.22
-0.10
0.00
0.06
0.06
-0.01
-0.16
-0.35
-0.55
-0.72
-0.79
-0.75
-0.58
-0.31
0.02
0.35
0.62
0.75
0.73
0.55
0.28
0.02
-0.14
-0.16
-0.06
0.07
0.15
0.12
-0.04
-0.28
-0.49
-0.60
-0.57
-0.44
-0.30
-0.22
-0.26
-0.37
-0.49
-0.52
-0.41
-0.20
0.00
0.08
-0.02
-0.24
-0.46
-0.55
-0.44
-0.17
0.16
0.42
0.52
0.48
0.40
0.38
0.47
0.66
0.83
0.90
0.85
0.73
0.62
0.58
0.59
0.58
0.43
0.12
-0.30
-0.70
-0.95
-0.96
-0.75
-0.40
-0.03
0.25
0.39
0.36
0.18
-0.14
-0.56
-0.98
-1.31
-1.41
-1.23
-0.81
-0.27
0.21
0.49
0.50
0.32
0.07
-0.12
-0.16
-0.06
0.15
0.43
0.72
1.00
1.23
1.39
1.42
1.28
0.98
0.56
0.12
-0.21
-0.34
-0.24
0.02
0.30
0.44
0.36
0.07
-0.31
-0.63
-0.78
-0.76
-0.64
-0.52
-0.44
-0.41
-0.40
-0.37
-0.32
-0.25
-0.19
-0.14
-0.08
-0.00
0.08
0.16
0.19
0.19
0.16
0.14
0.16
0.20
0.22
0.20
0.14
0.08
0.05
0.08
0.15
0.21
0.24
0.26
0.27
0.28
0.26
0.15
-0.07
-0.37
-0.68
-0.91
-1.00
-0.94
-0.79
-0.60
-0.39
-0.12
0.21
0.53
0.74
0.70
0.34
-0.26
-0.91
-1.41
-1.62
-1.53
-1.22
-0.83
-0.48
-0.18
0.07
0.31
0.56
0.78
0.92
0.95
0.88
0.73
0.54
0.36
0.21
0.10
0.05
0.07
0.14
0.24
0.33
0.37
0.34
0.24
0.10
-0.01
-0.04
0.04
0.25
0.53
0.79
0.95
0.93
0.75
0.47
0.17
-0.07
-0.22
-0.30
-0.34
-0.34
-0.30
-0.19
0.02
0.33
0.63
0.85
0.86
0.64
0.26
-0.15
-0.45
-0.57
-0.51
-0.38
-0.25
-0.18
-0.14
-0.08
0.00
0.07
0.05
-0.09
-0.35
-0.62
-0.81
-0.84
-0.70
-0.46
-0.21
-0.02
0.05
0.01
-0.14
-0.32
-0.46
-0.50
-0.41
-0.21
0.02
0.20
0.26
0.17
-0.02
-0.22
-0.34
-0.32
-0.17
0.07
0.33
0.55
0.68
0.69
0.57
0.37
0.13
-0.07
-0.17
-0.14
0.01
0.19
0.31
0.28
0.11
-0.13
-0.32
-0.33
-0.13
0.22
0.58
0.78
0.72
0.41
-0.03
-0.43
-0.64
-0.63
-0.44
-0.17
0.08
0.27
0.38
0.41
0.36
0.25
0.10
-0.04
-0.14
-0.16
-0.11
-0.03
0.06
0.13
0.17
0.20
0.22
0.23
0.25
0.31
0.44
0.61
0.71
0.64
0.33
-0.22
-0.86
-1.37
-1.57
-1.41
-0.95
-0.39
0.07
0.28
0.21
-0.06
-0.40
-0.68
-0.83
-0.81
-0.65
-0.37
-0.01
0.35
0.65
0.82
0.81
0.63
0.32
-0.05
-0.36
-0.53
-0.52
-0.35
-0.11
0.12
0.30
0.43
0.54
0.63
0.67
0.60
0.39
0.05
-0.30
-0.55
-0.61
-0.48
-0.26
-0.03
0.11
0.17
0.18
0.15
0.07
-0.07
-0.26
-0.45
-0.57
-0.56
-0.42
-0.19
0.07
0.29
0.43
0.48
0.39
0.17
-0.15
-0.45
-0.61
-0.49
-0.10
0.43
0.88
1.07
0.91
0.50
0.02
-0.35
-0.52
-0.48
-0.32
-0.14
0.01
0.09
0.10
0.05
-0.05
-0.15
-0.20
-0.19
-0.08
0.07
0.20
0.25
0.18
0.00
-0.21
-0.37
-0.45
-0.40
-0.27
-0.10
0.07
0.17
0.18
0.10
-0.04
-0.21
-0.35
-0.42
-0.40
-0.28
-0.06
0.22
0.53
0.81
1.00
1.04
0.90
0.62
0.28
-0.00
-0.13
-0.09
0.06
0.22
0.28
0.20
0.03
-0.14
-0.20
-0.12
0.07
0.29
0.45
0.50
0.42
0.27
0.08
-0.09
-0.19
-0.20
-0.13
0.02
0.18
0.30
0.36
0.36
0.32
0.28
0.22
0.12
-0.04
-0.22
-0.37
-0.44
-0.43
-0.43
-0.49
-0.67
-0.86
-0.93
-0.73
-0.24
0.40
0.96
1.21
1.06
0.59
0.00
-0.53
-0.91
-1.15
-1.28
-1.28
-1.12
-0.77
-0.29
0.19
0.49
0.52
0.31
0.03
-0.12
-0.03
0.29
0.68
0.97
1.04
0.92
0.71
0.53
0.44
0.45
0.48
0.50
0.50
0.48
0.46
0.42
0.31
0.08
-0.27
-0.65
-0.93
-0.98
-0.74
-0.27
0.24
0.63
0.78
0.67
0.41
0.12
-0.12
-0.28
-0.41
-0.55
-0.67
-0.73
-0.68
-0.55
-0.39
-0.31
-0.35
-0.49
-0.64
-0.71
-0.66
-0.49
-0.25
-0.01
0.18
0.29
0.28
0.13
-0.12
-0.43
-0.69
-0.80
-0.72
-0.46
-0.10
0.25
0.47
0.51
0.40
0.22
0.06
0.00
0.05
0.19
0.37
0.54
0.67
0.73
0.66
0.49
0.25
0.06
-0.01
0.11
0.32
0.52
0.59
0.48
0.25
-0.01
-0.23
-0.40
-0.57
-0.76
-0.96
-1.05
-0.96
-0.66
-0.23
0.17
0.41
0.46
0.36
0.22
0.11
0.03
-0.03
-0.12
-0.20
-0.22
-0.13
0.09
0.40
0.66
0.78
0.67
0.35
-0.08
-0.48
-0.71
-0.71
-0.52
-0.28
-0.11
-0.11
-0.22
-0.34
-0.35
-0.22
-0.01
0.18
0.26
0.23
0.17
0.15
0.22
0.33
0.39
0.36
0.25
0.09
-0.02
-0.04
0.02
0.12
0.19
0.19
0.12
-0.00
-0.11
-0.16
-0.14
-0.09
-0.04
-0.00
0.04
0.13
0.28
0.48
0.68
0.79
0.75
0.59
0.38
0.20
0.11
0.11
0.16
0.18
0.14
0.03
-0.10
-0.21
-0.22
-0.11
0.13
0.42
0.66
0.74
0.64
0.36
-0.01
-0.35
-0.56
-0.58
-0.46
-0.27
-0.09
0.02
0.06
0.03
-0.03
-0.13
-0.27
-0.45
-0.61
-0.70
-0.63
-0.40
-0.07
0.25
0.44
0.42
0.23
-0.06
-0.33
-0.50
-0.58
-0.56
-0.46
-0.30
-0.09
0.12
0.27
0.26
0.05
-0.37
-0.90
-1.37
-1.63
-1.57
-1.19
-0.61
-0.00
0.46
0.70
0.74
0.68
0.62
0.64
0.70
0.74
0.71
0.59
0.42
0.25
0.10
-0.06
-0.25
-0.46
-0.63
-0.70
-0.63
-0.43
-0.17
0.10
0.30
0.45
0.56
0.66
0.75
0.82
0.86
0.85
0.80
0.72
0.62
0.50
0.38
0.28
0.22
0.19
0.17
0.14
0.08
-0.02
-0.16
-0.36
-0.58
-0.80
-0.95
-0.99
-0.86
-0.61
-0.31
-0.09
-0.04
-0.17
-0.44
-0.72
-0.91
-0.95
-0.83
-0.63
-0.38
-0.14
0.07
0.24
0.36
0.45
0.47
0.45
0.40
0.35
0.32
0.29
0.26
0.22
0.19
0.20
0.26
0.35
0.44
0.45
0.36
0.14
-0.16
-0.47
-0.73
-0.86
-0.85
-0.71
-0.48
-0.23
-0.02
0.12
0.18
0.20
0.22
0.26
0.36
0.51
0.69
0.87
0.99
1.01
0.91
0.72
0.50
0.32
0.22
0.19
0.20
0.23
0.25
0.26
0.25
0.21
0.10
-0.12
-0.43
-0.77
-1.04
-1.14
-1.04
-0.79
-0.51
-0.33
-0.32
-0.46
-0.62
-0.67
-0.54
-0.24
0.09
0.34
0.45
0.43
0.37
0.34
0.36
0.38
0.35
0.28
0.21
0.21
0.32
0.49
0.63
0.65
0.49
0.19
-0.15
-0.40
-0.49
-0.42
-0.30
-0.24
-0.32
-0.55
-0.82
-1.02
-1.08
-0.99
-0.80
-0.62
-0.49
-0.41
-0.37
-0.31
-0.22
-0.08
0.11
0.34
0.60
0.86
1.07
1.20
1.21
1.09
0.89
0.67
0.51
0.44
0.49
0.60
0.67
0.63
0.46
0.19
-0.09
-0.30
-0.38
-0.33
-0.22
-0.08
0.05
0.15
0.20
0.19
0.11
-0.01
-0.11
-0.15
-0.12
-0.07
-0.08
-0.17
-0.34
-0.52
-0.61
-0.60
-0.49
-0.35
-0.27
-0.25
-0.31
-0.41
-0.51
-0.59
-0.65
-0.67
-0.65
-0.56
-0.38
-0.12
0.17
0.41
0.51
0.41
0.14
-0.19
-0.43
-0.48
-0.31
0.00
0.34
0.59
0.70
0.65
0.50
0.26
0.01
-0.21
-0.32
-0.25
-0.02
0.34
0.71
0.98
1.09
1.02
0.81
0.53
0.24
-0.01
-0.20
-0.29
-0.28
-0.22
-0.17
-0.18
-0.27
-0.40
-0.51
-0.53
-0.44
-0.30
-0.19
-0.19
-0.29
-0.43
-0.50
-0.43
-0.23
0.03
0.27
0.47
0.63
0.81
1.00
1.17
1.23
1.14
0.90
0.57
0.24
-0.05
-0.26
-0.39
-0.46
-0.47
-0.43
-0.34
-0.25
-0.19
-0.20
-0.30
-0.49
-0.76
-1.06
-1.30
-1.37
-1.15
-0.63
0.09
0.75
1.11
1.03
0.55
-0.10
-0.65
-0.92
-0.91
-0.75
-0.60
-0.52
-0.47
-0.34
-0.07
0.29
0.59
0.69
0.55
0.27
0.05
0.03
0.26
0.66
1.05
1.29
1.32
1.17
0.93
0.68
0.49
0.35
0.27
0.24
0.25
0.29
0.32
0.28
0.10
-0.18
-0.51
-0.75
-0.83
-0.73
-0.52
-0.35
-0.33
-0.46
-0.70
-0.90
-0.97
-0.87
-0.65
-0.41
-0.25
-0.23
-0.29
-0.34
-0.29
-0.12
0.14
0.40
0.59
0.70
0.76
0.82
0.84
0.77
0.56
0.19
-0.27
-0.66
-0.89
-0.91
-0.78
-0.61
-0.49
-0.45
-0.47
-0.48
-0.46
-0.40
-0.32
-0.22
-0.11
0.06
0.28
0.52
0.70
0.70
0.46
0.01
-0.51
-0.88
-0.91
-0.56
0.07
0.75
1.23
1.37
1.20
0.84
0.47
0.21
0.08
0.03
-0.01
-0.06
-0.07
-0.00
0.14
0.29
0.38
0.35
0.24
0.13
0.12
0.23
0.44
0.64
0.75
0.70
0.53
0.28
0.03
-0.16
-0.25
-0.25
-0.13
0.06
0.27
0.44
0.50
0.42
0.22
-0.05
-0.31
-0.47
-0.51
-0.46
-0.36
-0.26
-0.19
-0.14
-0.12
-0.10
-0.09
-0.10
-0.11
-0.12
-0.09
-0.01
0.11
0.24
0.32
0.30
0.14
-0.14
-0.47
-0.75
-0.88
-0.80
-0.56
-0.29
-0.10
-0.08
-0.15
-0.18
-0.04
0.32
0.80
1.21
1.38
1.26
0.89
0.43
0.01
-0.28
-0.45
-0.55
-0.63
-0.70
-0.75
-0.75
-0.68
-0.56
-0.39
-0.19
0.00
0.17
0.27
0.29
0.22
0.09
-0.05
-0.14
-0.16
-0.11
-0.06
-0.06
-0.17
-0.39
-0.65
-0.84
-0.86
-0.68
-0.32
0.11
0.48
0.72
0.79
0.75
0.65
0.56
0.49
0.44
0.42
0.42
0.49
0.61
0.72
0.71
0.52
0.11
-0.41
-0.85
-1.03
-0.88
-0.49
-0.06
0.18
0.11
-0.20
-0.59
-0.83
-0.83
-0.62
-0.35
-0.19
-0.20
-0.34
-0.48
-0.52
-0.43
-0.27
-0.13
-0.06
-0.02
0.04
0.18
0.42
0.70
0.91
0.98
0.87
0.62
0.31
0.02
-0.21
-0.33
-0.36
-0.31
-0.24
-0.20
-0.20
-0.24
-0.25
-0.18
-0.04
0.12
0.21
0.15
-0.06
-0.34
-0.55
-0.57
-0.37
-0.01
0.39
0.68
0.78
0.71
0.54
0.36
0.23
0.20
0.25
0.33
0.40
0.39
0.30
0.12
-0.12
-0.37
-0.54
-0.58
-0.48
-0.25
0.02
0.25
0.37
0.33
0.16
-0.09
-0.32
-0.45
-0.46
-0.38
-0.27
-0.21
-0.23
-0.30
-0.38
-0.42
-0.39
-0.30
-0.20
-0.12
-0.04
0.07
0.22
0.42
0.62
0.74
0.74
0.62
0.44
0.30
0.30
0.42
0.60
0.73
0.73
0.57
0.31
0.02
-0.22
-0.37
-0.42
-0.40
-0.33
-0.25
-0.21
-0.27
-0.46
-0.77
-1.12
-1.38
-1.41
-1.13
-0.57
0.13
0.77
1.17
1.24
1.03
0.69
0.38
0.19
0.15
0.20
0.28
0.33
0.36
0.35
0.33
0.29
0.24
0.18
0.15
0.16
0.18
0.20
0.17
0.09
-0.02
-0.13
-0.24
-0.36
-0.52
-0.72
-0.92
-1.05
-1.05
-0.87
-0.57
-0.22
0.08
0.30
0.45
0.55
0.64
0.68
0.63
0.45
0.18
-0.08
-0.24
-0.24
-0.13
0.01
0.07
0.01
-0.16
-0.33
-0.43
-0.39
-0.24
-0.05
0.12
0.19
0.16
0.06
-0.03
-0.06
-0.02
0.08
0.14
0.13
0.03
-0.09
-0.16
-0.10
0.06
0.29
0.51
0.72
0.91
1.10
1.26
1.30
1.14
0.74
0.17
-0.41
-0.81
-0.94
-0.83
-0.62
-0.49
-0.51
-0.66
-0.85
-0.96
-0.92
-0.75
-0.52
-0.31
-0.14
-0.04
0.03
0.09
0.16
0.23
0.27
0.29
0.30
0.33
0.41
0.51
0.59
0.55
0.33
-0.05
-0.47
-0.74
-0.72
-0.39
0.11
0.59
0.83
0.75
0.44
0.08
-0.15
-0.17
-0.05
0.05
0.01
-0.21
-0.54
-0.86
-1.05
-1.10
-1.03
-0.91
-0.77
-0.58
-0.33
-0.02
0.31
0.58
0.75
0.80
0.77
0.70
0.64
0.61
0.66
0.80
1.02
1.25
1.39
1.33
1.04
0.60
0.16
-0.13
-0.21
-0.14
-0.04
-0.03
-0.17
-0.42
-0.71
-0.98
-1.18
-1.31
-1.38
-1.34
-1.18
-0.89
-0.50
-0.12
0.14
0.20
0.05
-0.25
-0.57
-0.77
-0.75
-0.50
-0.08
0.36
0.70
0.85
0.81
0.66
0.50
0.38
0.34
0.37
0.44
0.50
0.52
0.50
0.43
0.31
0.18
0.09
0.04
0.05
0.06
0.02
-0.12
-0.33
-0.54
-0.63
-0.53
-0.22
0.21
0.62
0.84
0.81
0.53
0.14
-0.21
-0.40
-0.41
-0.28
-0.08
0.10
0.25
0.37
0.46
0.48
0.38
0.16
-0.15
-0.46
-0.67
-0.72
-0.57
-0.27
0.10
0.44
0.62
0.57
0.29
-0.11
-0.44
-0.55
-0.39
-0.08
0.20
0.31
0.21
0.03
-0.12
-0.15
-0.13
-0.19
-0.41
-0.76
-1.05
-1.08
-0.76
-0.19
0.41
0.77
0.73
0.34
-0.19
-0.58
-0.63
-0.28
0.35
1.03
1.55
1.76
1.64
1.28
0.80
0.32
-0.09
-0.39
-0.59
-0.72
-0.78
-0.74
-0.60
-0.34
-0.02
0.25
0.37
0.27
0.01
-0.29
-0.48
-0.51
-0.45
-0.40
-0.45
-0.59
-0.70
-0.65
-0.41
-0.06
0.22
0.31
0.19
-0.03
-0.25
-0.34
-0.30
-0.14
0.07
0.30
0.50
0.67
0.77
0.81
0.78
0.69
0.51
0.24
-0.13
-0.53
-0.82
-0.89
-0.68
-0.29
0.09
0.31
0.29
0.14
-0.01
-0.03
0.07
0.19
0.21
0.08
-0.15
-0.39
-0.53
-0.52
-0.39
-0.21
-0.06
0.02
0.02
-0.03
-0.12
-0.23
-0.38
-0.54
-0.70
-0.78
-0.71
-0.49
-0.16
0.18
0.39
0.42
0.30
0.11
-0.05
-0.10
-0.08
-0.03
-0.03
-0.08
-0.15
-0.15
-0.01
0.25
0.56
0.82
0.94
0.90
0.76
0.61
0.52
0.48
0.45
0.35
0.13
-0.17
-0.49
-0.71
-0.79
-0.72
-0.50
-0.19
0.14
0.44
0.63
0.68
0.59
0.42
0.26
0.15
0.13
0.16
0.20
0.23
0.22
0.20
0.16
0.13
0.13
0.16
0.23
0.33
0.43
0.48
0.45
0.37
0.23
0.07
-0.10
-0.27
-0.45
-0.65
-0.82
-0.92
-0.92
-0.77
-0.50
-0.16
0.18
0.43
0.54
0.49
0.33
0.11
-0.09
-0.18
-0.12
0.07
0.32
0.53
0.57
0.36
-0.08
-0.62
-1.08
-1.34
-1.35
-1.18
-0.92
-0.66
-0.41
-0.13
0.22
0.60
0.91
1.04
0.91
0.56
0.10
-0.31
-0.58
-0.68
-0.65
-0.54
-0.41
-0.27
-0.13
0.02
0.17
0.33
0.47
0.59
0.64
0.61
0.48
0.26
-0.01
-0.26
-0.43
-0.48
-0.38
-0.17
0.12
0.39
0.58
0.61
0.47
0.22
-0.04
-0.22
-0.26
-0.20
-0.13
-0.14
-0.27
-0.46
-0.62
-0.67
-0.57
-0.33
0.00
0.35
0.66
0.83
0.85
0.71
0.48
0.29
0.22
0.32
0.55
0.81
0.95
0.87
0.57
0.09
-0.40
-0.77
-0.91
-0.83
-0.62
-0.40
-0.28
-0.28
-0.31
-0.31
-0.22
-0.10
-0.04
-0.11
-0.29
-0.46
-0.50
-0.35
-0.06
0.20
0.32
0.25
0.03
-0.20
-0.36
-0.42
-0.42
-0.41
-0.42
-0.39
-0.26
-0.01
0.31
0.60
0.75
0.71
0.54
0.35
0.26
0.30
0.43
0.60
0.72
0.78
0.78
0.74
0.65
0.47
0.18
-0.19
-0.55
-0.77
-0.77
-0.54
-0.20
0.11
0.25
0.16
-0.07
-0.34
-0.50
-0.53
-0.44
-0.31
-0.21
-0.17
-0.20
-0.28
-0.41
-0.55
-0.71
-0.81
-0.80
-0.66
-0.40
-0.07
0.24
0.45
0.53
0.48
0.34
0.19
0.09
0.10
0.21
0.37
0.50
0.54
0.50
0.39
0.27
0.16
0.05
-0.08
-0.25
-0.42
-0.54
-0.57
-0.50
-0.39
-0.29
-0.24
-0.24
-0.24
-0.19
-0.07
0.11
0.33
0.55
0.73
0.83
0.82
0.68
0.44
0.13
-0.15
-0.32
-0.36
-0.26
-0.10
0.04
0.11
0.10
0.06
0.05
0.12
0.30
0.54
0.77
0.90
0.85
0.61
0.22
-0.22
-0.58
-0.76
-0.69
-0.42
-0.07
0.23
0.39
0.35
0.15
-0.14
-0.43
-0.62
-0.63
-0.45
-0.11
0.26
0.53
0.63
0.55
0.35
0.16
0.03
-0.03
-0.06
-0.12
-0.22
-0.28
-0.22
-0.02
0.28
0.56
0.70
0.65
0.45
0.21
0.01
-0.10
-0.16
-0.21
-0.27
-0.35
-0.42
-0.47
-0.51
-0.57
-0.63
-0.66
-0.59
-0.41
-0.16
0.07
0.17
0.11
-0.10
-0.36
-0.55
-0.60
-0.51
-0.32
-0.09
0.10
0.23
0.30
0.33
0.34
0.31
0.23
0.09
-0.05
-0.13
-0.11
-0.01
0.06
0.01
-0.21
-0.54
-0.81
-0.84
-0.55
0.01
0.66
1.18
1.46
1.46
1.28
1.04
0.81
0.57
0.29
-0.07
-0.45
-0.75
-0.86
-0.75
-0.49
-0.23
-0.09
-0.11
-0.26
-0.43
-0.55
-0.57
-0.49
-0.33
-0.08
0.26
0.64
0.98
1.15
1.05
0.64
0.01
-0.67
-1.18
-1.36
-1.16
-0.66
-0.04
0.52
0.88
0.98
0.86
0.57
0.18
-0.26
-0.69
-1.03
-1.19
-1.08
-0.68
-0.09
0.53
1.01
1.24
1.22
1.07
0.91
0.80
0.71
0.55
0.23
-0.24
-0.72
-1.03
-1.03
-0.72
-0.25
0.15
0.31
0.21
-0.10
-0.48
-0.83
-1.09
-1.24
-1.24
-1.09
-0.80
-0.46
-0.16
-0.01
-0.06
-0.24
-0.45
-0.58
-0.54
-0.35
-0.03
0.34
0.68
0.95
1.11
1.15
1.08
0.94
0.76
0.57
0.38
0.20
0.05
-0.02
0.01
0.15
0.35
0.50
0.53
0.43
0.29
0.21
0.26
0.43
0.60
0.64
0.48
0.14
-0.25
-0.55
-0.67
-0.59
-0.35
-0.05
0.28
0.56
0.73
0.73
0.51
0.14
-0.28
-0.59
-0.73
-0.69
-0.56
-0.49
-0.54
-0.72
-0.93
-1.01
-0.85
-0.41
0.23
0.94
1.54
1.85
1.81
1.42
0.83
0.22
-0.22
-0.37
-0.21
0.18
0.67
1.11
1.36
1.36
1.07
0.56
-0.09
-0.74
-1.28
-1.60
-1.68
-1.54
-1.27
-0.99
-0.78
-0.69
-0.69
-0.71
-0.71
-0.67
-0.59
-0.52
-0.47
-0.42
-0.35
-0.26
-0.15
-0.04
0.04
0.09
0.11
0.12
0.15
0.21
0.33
0.48
0.63
0.72
0.69
0.52
0.24
-0.05
-0.28
-0.41
-0.47
-0.51
-0.57
-0.62
-0.59
-0.42
-0.11
0.24
0.50
0.56
0.40
0.09
-0.27
-0.55
-0.66
-0.57
-0.32
0.05
0.42
0.73
0.91
0.96
0.92
0.87
0.85
0.88
0.92
0.91
0.80
0.55
0.20
-0.21
-0.57
-0.79
-0.85
-0.75
-0.57
-0.40
-0.26
-0.16
-0.05
0.11
0.30
0.45
0.50
0.42
0.23
-0.01
-0.22
-0.33
-0.30
-0.17
-0.02
0.08
0.09
0.00
-0.14
-0.29
-0.40
-0.47
-0.51
-0.53
-0.54
-0.51
-0.43
-0.28
-0.08
0.15
0.35
0.47
0.47
0.37
0.21
0.08
0.02
0.08
0.19
0.31
0.39
0.41
0.38
0.34
0.29
0.22
0.15
0.07
0.02
0.01
0.03
0.04
0.03
-0.02
-0.08
-0.15
-0.22
-0.29
-0.37
-0.42
-0.41
-0.31
-0.14
0.02
0.07
-0.07
-0.37
-0.72
-0.97
-0.99
-0.75
-0.33
0.13
0.46
0.59
0.51
0.31
0.08
-0.08
-0.15
-0.12
-0.04
0.05
0.14
0.22
0.30
0.40
0.54
0.69
0.79
0.79
0.72
0.63
0.61
0.69
0.81
0.88
0.79
0.54
0.21
-0.05
-0.11
0.02
0.25
0.41
0.41
0.25
0.03
-0.12
-0.11
0.03
0.22
0.33
0.26
-0.02
-0.47
-0.92
-1.24
-1.33
-1.16
-0.82
-0.46
-0.20
-0.14
-0.27
-0.54
-0.86
-1.15
-1.34
-1.39
-1.27
-1.00
-0.60
-0.20
0.12
0.25
0.16
-0.13
-0.53
-0.90
-1.12
-1.13
-0.89
-0.45
0.06
0.53
0.84
0.94
0.88
0.73
0.59
0.53
0.52
0.50
0.41
0.24
0.05
-0.08
-0.08
0.08
0.34
0.60
0.78
0.86
0.87
0.89
0.97
1.08
1.14
1.07
0.82
0.45
0.09
-0.16
-0.24
-0.16
-0.03
0.05
0.05
-0.02
-0.10
-0.12
-0.07
0.04
0.17
0.26
0.31
0.32
0.32
0.31
0.26
0.15
-0.05
-0.32
-0.59
-0.77
-0.80
-0.67
-0.45
-0.22
-0.07
-0.07
-0.21
-0.46
-0.78
-1.09
-1.34
-1.46
-1.40
-1.16
-0.79
-0.37
-0.00
0.24
0.35
0.33
0.24
0.16
0.14
0.20
0.31
0.40
0.38
0.20
-0.13
-0.51
-0.80
-0.86
-0.64
-0.18
0.39
0.91
1.24
1.31
1.15
0.84
0.49
0.19
0.04
0.04
0.18
0.38
0.58
0.72
0.77
0.70
0.54
0.30
0.00
-0.30
-0.57
-0.75
-0.79
-0.67
-0.43
-0.10
0.21
0.45
0.53
0.46
0.25
-0.01
-0.25
-0.40
-0.42
-0.37
-0.30
-0.28
-0.32
-0.38
-0.40
-0.35
-0.23
-0.06
0.13
0.32
0.50
0.66
0.75
0.76
0.65
0.44
0.17
-0.13
-0.42
-0.66
-0.82
-0.86
-0.75
-0.49
-0.13
0.23
0.51
0.68
0.76
0.78
0.77
0.74
0.67
0.57
0.47
0.44
0.48
0.58
0.63
0.58
0.38
0.09
-0.22
-0.43
-0.50
-0.42
-0.25
-0.07
0.07
0.14
0.11
0.01
-0.14
-0.34
-0.55
-0.74
-0.88
-0.93
-0.89
-0.76
-0.63
-0.55
-0.56
-0.64
-0.72
-0.70
-0.53
-0.25
0.07
0.30
0.40
0.35
0.23
0.12
0.06
0.08
0.11
0.12
0.05
-0.12
-0.33
-0.50
-0.55
-0.47
-0.31
-0.18
-0.17
-0.33
-0.55
-0.70
-0.63
-0.29
0.22
0.75
1.13
1.30
1.27
1.12
0.90
0.65
0.38
0.11
-0.14
-0.31
-0.39
-0.40
-0.39
-0.41
-0.46
-0.54
-0.58
-0.56
-0.48
-0.33
-0.16
0.03
0.21
0.36
0.47
0.53
0.55
0.52
0.44
0.32
0.15
-0.06
-0.30
-0.54
-0.71
-0.75
-0.63
-0.35
0.03
0.43
0.76
0.95
0.99
0.89
0.70
0.46
0.19
-0.08
-0.31
-0.45
-0.47
-0.38
-0.24
-0.12
-0.09
-0.16
-0.27
-0.34
-0.28
-0.07
0.24
0.54
0.77
0.85
0.79
0.65
0.50
0.42
0.43
0.54
0.71
0.84
0.84
0.69
0.41
0.11
-0.11
-0.23
-0.27
-0.31
-0.39
-0.50
-0.55
-0.44
-0.16
0.18
0.40
0.34
-0.02
-0.55
-1.04
-1.27
-1.13
-0.70
-0.13
0.36
0.62
0.61
0.40
0.10
-0.18
-0.37
-0.43
-0.39
-0.26
-0.07
0.08
0.14
0.04
-0.22
-0.57
-0.87
-0.99
-0.84
-0.45
0.08
0.58
0.95
1.12
1.09
0.92
0.67
0.41
0.19
0.01
-0.10
-0.16
-0.18
-0.19
-0.22
-0.27
-0.33
-0.37
-0.37
-0.34
-0.31
-0.31
-0.34
-0.40
-0.47
-0.51
-0.49
-0.41
-0.28
-0.11
0.10
0.35
0.59
0.81
0.93
0.94
0.81
0.59
0.33
0.12
-0.00
-0.02
0.04
0.12
0.19
0.22
0.21
0.17
0.09
-0.03
-0.22
-0.47
-0.71
-0.85
-0.83
-0.62
-0.27
0.11
0.42
0.56
0.49
0.25
-0.08
-0.37
-0.55
-0.56
-0.44
-0.29
-0.19
-0.19
-0.26
-0.33
-0.35
-0.27
-0.12
0.08
0.30
0.54
0.79
1.02
1.17
1.14
0.92
0.53
0.07
-0.31
-0.52
-0.53
-0.38
-0.17
0.01
0.11
0.12
0.05
-0.06
-0.22
-0.37
-0.48
-0.51
-0.42
-0.20
0.08
0.35
0.54
0.62
0.60
0.50
0.34
0.11
-0.20
-0.56
-0.87
-1.02
-0.93
-0.62
-0.21
0.13
0.28
0.23
0.04
-0.16
-0.30
-0.35
-0.33
-0.25
-0.09
0.11
0.31
0.44
0.43
0.28
0.08
-0.07
-0.10
-0.01
0.14
0.23
0.21
0.09
-0.08
-0.23
-0.37
-0.49
-0.61
-0.71
-0.74
-0.64
-0.39
-0.02
0.39
0.74
0.98
1.05
0.96
0.78
0.56
0.38
0.31
0.37
0.53
0.72
0.84
0.80
0.56
0.18
-0.22
-0.51
-0.62
-0.58
-0.48
-0.41
-0.42
-0.49
-0.53
-0.48
-0.32
-0.13
0.04
0.13
0.15
0.14
0.12
0.10
0.01
-0.15
-0.36
-0.53
-0.56
-0.43
-0.21
-0.02
0.03
-0.09
-0.27
-0.38
-0.31
-0.03
0.38
0.82
1.18
1.39
1.40
1.21
0.82
0.30
-0.23
-0.66
-0.88
-0.85
-0.59
-0.21
0.21
0.54
0.70
0.62
0.31
-0.19
-0.72
-1.16
-1.37
-1.33
-1.07
-0.70
-0.35
-0.09
0.06
0.11
0.10
0.08
0.07
0.11
0.22
0.39
0.58
0.73
0.73
0.54
0.19
-0.23
-0.60
-0.83
-0.89
-0.82
-0.66
-0.48
-0.29
-0.09
0.08
0.20
0.23
0.20
0.15
0.12
0.11
0.09
0.02
-0.06
-0.09
0.01
0.27
0.58
0.81
0.83
0.64
0.33
0.05
-0.07
-0.02
0.12
0.24
0.25
0.15
-0.02
-0.21
-0.36
-0.45
-0.48
-0.42
-0.32
-0.19
-0.10
-0.06
-0.09
-0.09
-0.01
0.20
0.47
0.71
0.80
0.68
0.39
0.03
-0.24
-0.31
-0.14
0.22
0.63
0.94
1.06
0.96
0.69
0.38
0.14
0.03
0.02
-0.01
-0.14
-0.39
-0.70
-0.90
-0.89
-0.64
-0.25
0.11
0.29
0.26
0.08
-0.14
-0.28
-0.30
-0.23
-0.13
-0.04
0.00
0.03
0.03
-0.01
-0.10
-0.24
-0.39
-0.48
-0.43
-0.24
0.02
0.22
0.24
0.05
-0.23
-0.46
-0.50
-0.30
0.04
0.36
0.54
0.52
0.39
0.26
0.24
0.31
0.41
0.44
0.36
0.21
0.08
0.04
0.08
0.13
0.09
-0.07
-0.28
-0.44
-0.44
-0.26
0.01
0.23
0.33
0.30
0.22
0.15
0.12
0.10
-0.02
-0.26
-0.61
-0.96
-1.19
-1.21
-1.00
-0.63
-0.21
0.15
0.37
0.46
0.43
0.33
0.15
-0.08
-0.35
-0.59
-0.72
-0.70
-0.54
-0.27
0.01
0.27
0.49
0.65
0.73
0.71
0.55
0.30
0.07
-0.02
0.09
0.35
0.62
0.77
0.70
0.48
0.22
0.02
-0.11
-0.19
-0.27
-0.37
-0.41
-0.34
-0.16
0.06
0.20
0.19
0.04
-0.15
-0.24
-0.15
0.12
0.47
0.78
0.95
0.93
0.76
0.49
0.22
0.03
-0.06
-0.03
0.05
0.10
0.07
-0.06
-0.25
-0.43
-0.55
-0.61
-0.65
-0.70
-0.80
-0.90
-0.96
-0.92
-0.76
-0.51
-0.23
0.04
0.27
0.44
0.56
0.62
0.58
0.46
0.25
0.01
-0.22
-0.40
-0.55
-0.64
-0.66
-0.56
-0.32
0.02
0.36
0.58
0.59
0.43
0.23
0.12
0.17
0.34
0.49
0.50
0.33
0.05
-0.22
-0.39
-0.41
-0.32
-0.17
-0.05
0.01
0.03
0.03
0.06
0.15
0.27
0.36
0.36
0.24
0.04
-0.16
-0.26
-0.22
-0.07
0.07
0.11
0.04
-0.08
-0.11
0.05
0.37
0.75
0.99
0.99
0.77
0.44
0.19
0.11
0.17
0.26
0.26
0.14
-0.05
-0.19
-0.23
-0.18
-0.14
-0.17
-0.29
-0.44
-0.53
-0.53
-0.47
-0.42
-0.43
-0.51
-0.63
-0.75
-0.82
-0.84
-0.80
-0.71
-0.58
-0.43
-0.28
-0.15
-0.06
0.02
0.13
0.29
0.50
0.72
0.89
1.00
1.01
0.93
0.76
0.49
0.18
-0.13
-0.34
-0.42
-0.41
-0.38
-0.39
-0.46
-0.54
-0.53
-0.39
-0.13
0.16
0.40
0.57
0.69
0.82
0.99
1.15
1.23
1.14
0.88
0.49
0.07
-0.29
-0.53
-0.62
-0.55
-0.38
-0.15
0.10
0.29
0.41
0.43
0.36
0.17
-0.11
-0.47
-0.82
-1.08
-1.14
-0.96
-0.55
-0.04
0.43
0.69
0.66
0.35
-0.15
-0.68
-1.09
-1.25
-1.18
-0.92
-0.57
-0.23
0.05
0.25
0.36
0.38
0.30
0.15
-0.01
-0.13
-0.16
-0.11
-0.04
-0.02
-0.08
-0.19
-0.29
-0.31
-0.27
-0.22
-0.25
-0.38
-0.53
-0.56
-0.35
0.13
0.74
1.27
1.50
1.34
0.87
0.28
-0.20
-0.46
-0.49
-0.38
-0.28
-0.25
-0.28
-0.28
-0.19
0.02
0.33
0.66
0.93
1.12
1.20
1.21
1.18
1.11
0.98
0.76
0.43
0.02
-0.39
-0.68
-0.75
-0.58
-0.22
0.19
0.49
0.59
0.45
0.17
-0.15
-0.41
-0.60
-0.74
-0.90
-1.09
-1.27
-1.36
-1.31
-1.10
-0.81
-0.50
-0.23
-0.01
0.23
0.52
0.84
1.10
1.19
1.04
0.67
0.21
-0.20
-0.44
-0.49
-0.41
-0.30
-0.22
-0.18
-0.14
-0.07
0.04
0.16
0.25
0.26
0.19
0.07
-0.03
-0.05
0.03
0.17
0.26
0.21
0.02
-0.28
-0.57
-0.72
-0.68
-0.47
-0.14
0.22
0.51
0.67
0.65
0.44
0.06
-0.41
-0.83
-1.07
-1.08
-0.88
-0.60
-0.33
-0.14
-0.01
0.13
0.31
0.52
0.69
0.74
0.66
0.47
0.27
0.16
0.12
0.12
0.05
-0.11
-0.31
-0.39
-0.24
0.16
0.70
1.20
1.47
1.43
1.15
0.77
0.46
0.30
0.29
0.35
0.40
0.38
0.26
0.05
-0.22
-0.51
-0.77
-0.97
-1.04
-0.96
-0.69
-0.25
0.27
0.71
0.92
0.75
0.22
-0.53
-1.28
-1.76
-1.88
-1.62
-1.14
-0.60
-0.14
0.22
0.47
0.60
0.59
0.42
0.11
-0.26
-0.55
-0.66
-0.51
-0.16
0.26
0.64
0.87
0.95
0.92
0.85
0.76
0.67
0.55
0.39
0.24
0.16
0.18
0.28
0.42
0.48
0.40
0.16
-0.22
-0.63
-0.98
-1.18
-1.19
-1.02
-0.68
-0.26
0.17
0.50
0.66
0.62
0.42
0.15
-0.07
-0.16
-0.11
-0.00
0.06
-0.01
-0.20
-0.43
-0.61
-0.68
-0.67
-0.65
-0.68
-0.78
-0.87
-0.89
-0.78
-0.59
-0.38
-0.26
-0.23
-0.26
-0.26
-0.14
0.12
0.45
0.73
0.82
0.66
0.32
-0.00
-0.10
0.17
0.79
1.55
2.18
2.42
2.21
1.67
1.03
0.49
0.16
0.02
-0.01
0.00
0.03
0.07
0.10
0.07
-0.05
-0.30
-0.61
-0.89
-1.07
-1.09
-0.97
-0.75
-0.48
-0.21
0.05
0.27
0.42
0.49
0.46
0.35
0.24
0.18
0.22
0.34
0.47
0.49
0.35
0.04
-0.35
-0.68
-0.89
-0.96
-0.93
-0.81
-0.63
-0.38
-0.08
0.21
0.39
0.42
0.32
0.20
0.15
0.24
0.43
0.63
0.72
0.66
0.49
0.30
0.19
0.21
0.31
0.39
0.37
0.17
-0.16
-0.52
-0.79
-0.88
-0.82
-0.66
-0.50
-0.39
-0.33
-0.32
-0.33
-0.39
-0.49
-0.65
-0.81
-0.94
-0.99
-0.95
-0.86
-0.75
-0.63
-0.52
-0.38
-0.25
-0.14
-0.07
-0.05
-0.04
0.00
0.13
0.35
0.63
0.92
1.16
1.30
1.30
1.16
0.88
0.50
0.07
-0.31
-0.58
-0.70
-0.66
-0.53
-0.36
-0.23
-0.17
-0.21
-0.29
-0.39
-0.44
-0.42
-0.32
-0.17
0.01
0.18
0.37
0.60
0.86
1.11
1.26
1.22
0.96
0.56
0.16
-0.07
-0.06
0.18
0.51
0.77
0.84
0.69
0.37
-0.03
-0.40
-0.68
-0.83
-0.81
-0.65
-0.38
-0.07
0.17
0.27
0.22
0.09
-0.02
-0.05
0.01
0.08
0.08
-0.02
-0.16
-0.22
-0.12
0.15
0.51
0.84
1.02
1.02
0.86
0.59
0.28
-0.01
-0.26
-0.46
-0.61
-0.73
-0.80
-0.82
-0.77
-0.63
-0.44
-0.27
-0.18
-0.23
-0.39
-0.56
-0.63
-0.53
-0.30
-0.02
0.18
0.21
0.07
-0.15
-0.35
-0.45
-0.45
-0.39
-0.33
-0.27
-0.17
0.02
0.32
0.66
0.95
1.12
1.14
1.05
0.90
0.74
0.60
0.46
0.29
0.09
-0.13
-0.38
-0.64
-0.88
-1.05
-1.11
-1.01
-0.77
-0.43
-0.09
0.16
0.26
0.20
0.04
-0.14
-0.27
-0.33
-0.33
-0.30
-0.26
-0.21
-0.13
0.00
0.19
0.39
0.56
0.63
0.58
0.40
0.15
-0.11
-0.32
-0.46
-0.54
-0.60
-0.63
-0.59
-0.44
-0.13
0.32
0.81
1.23
1.46
1.48
1.35
1.15
0.93
0.70
0.41
0.05
-0.31
-0.58
-0.61
-0.38
0.04
0.48
0.73
0.71
0.41
-0.02
-0.39
-0.59
-0.58
-0.44
-0.30
-0.23
-0.23
-0.26
-0.26
-0.20
-0.12
-0.08
-0.09
-0.14
-0.18
-0.14
-0.03
0.12
0.26
0.35
0.42
0.47
0.52
0.56
0.56
0.50
0.40
0.32
0.29
0.33
0.40
0.43
0.38
0.21
-0.04
-0.31
-0.52
-0.62
-0.61
-0.54
-0.48
-0.45
-0.44
-0.42
-0.35
-0.22
-0.06
0.07
0.12
0.05
-0.10
-0.31
-0.50
-0.62
-0.66
-0.60
-0.51
-0.43
-0.42
-0.47
-0.55
-0.60
-0.56
-0.42
-0.22
-0.01
0.16
0.24
0.26
0.21
0.15
0.09
0.05
0.01
-0.02
-0.04
-0.05
-0.03
0.04
0.13
0.22
0.26
0.24
0.15
0.05
0.01
0.02
0.07
0.08
-0.01
-0.23
-0.50
-0.73
-0.79
-0.64
-0.28
0.18
0.61
0.92
1.03
0.92
0.63
0.23
-0.17
-0.46
-0.53
-0.35
0.03
0.48
0.86
1.04
1.00
0.78
0.52
0.30
0.15
0.07
0.01
-0.05
-0.09
-0.08
0.02
0.18
0.31
0.29
0.07
-0.32
-0.74
-1.00
-0.98
-0.67
-0.16
0.37
0.76
0.91
0.79
0.44
-0.04
-0.53
-0.90
-1.05
-0.93
-0.58
-0.15
0.23
0.42
0.40
0.21
-0.01
-0.19
-0.27
-0.27
-0.24
-0.23
-0.23
-0.22
-0.16
-0.02
0.20
0.45
0.64
0.73
0.69
0.54
0.34
0.13
-0.04
-0.15
-0.17
-0.11
0.02
0.19
0.30
0.29
0.09
-0.27
-0.68
-1.01
-1.14
-1.02
-0.72
-0.32
0.08
0.42
0.69
0.86
0.95
0.94
0.83
0.66
0.47
0.32
0.24
0.25
0.31
0.37
0.42
0.42
0.39
0.32
0.25
0.16
0.08
0.02
-0.03
-0.04
-0.04
-0.03
-0.01
-0.01
-0.03
-0.08
-0.20
-0.36
-0.54
-0.72
-0.84
-0.90
-0.88
-0.79
-0.66
-0.50
-0.35
-0.26
-0.26
-0.36
-0.53
-0.69
-0.77
-0.71
-0.57
-0.43
-0.38
-0.47
-0.67
-0.90
-1.08
-1.15
-1.09
-0.88
-0.53
-0.07
0.44
0.91
1.25
1.40
1.39
1.26
1.07
0.84
0.58
0.29
0.05
-0.08
-0.02
0.21
0.50
0.70
0.73
0.61
0.41
0.27
0.22
0.26
0.30
0.30
0.25
0.20
0.22
0.34
0.53
0.72
0.80
0.72
0.49
0.16
-0.15
-0.34
-0.35
-0.22
-0.03
0.11
0.13
0.04
-0.11
-0.27
-0.38
-0.46
-0.52
-0.56
-0.60
-0.59
-0.55
-0.48
-0.40
-0.32
-0.21
-0.06
0.13
0.33
0.49
0.57
0.55
0.41
0.19
-0.08
-0.34
-0.53
-0.60
-0.54
-0.37
-0.16
-0.02
0.01
-0.07
-0.20
-0.29
-0.29
-0.16
0.04
0.26
0.43
0.53
0.55
0.52
0.44
0.30
0.13
-0.08
-0.25
-0.34
-0.27
-0.06
0.24
0.51
0.63
0.55
0.29
-0.07
-0.39
-0.58
-0.58
-0.39
-0.07
0.27
0.54
0.66
0.62
0.46
0.27
0.13
0.06
0.06
0.09
0.15
0.25
0.37
0.44
0.37
0.07
-0.45
-1.04
-1.46
-1.55
-1.27
-0.77
-0.26
0.05
0.09
-0.06
-0.25
-0.36
-0.32
-0.18
-0.02
0.06
0.05
-0.01
-0.03
0.05
0.21
0.38
0.46
0.36
0.09
-0.27
-0.56
-0.69
-0.63
-0.47
-0.36
-0.39
-0.59
-0.86
-1.07
-1.11
-0.95
-0.63
-0.24
0.13
0.40
0.55
0.58
0.54
0.52
0.56
0.70
0.92
1.13
1.25
1.24
1.10
0.90
0.72
0.62
0.59
0.59
0.59
0.56
0.50
0.43
0.36
0.29
0.20
0.12
0.06
0.04
0.07
0.11
0.13
0.09
-0.03
-0.17
-0.28
-0.30
-0.23
-0.11
-0.02
-0.01
-0.05
-0.09
-0.04
0.12
0.30
0.43
0.40
0.23
-0.01
-0.20
-0.28
-0.28
-0.30
-0.41
-0.62
-0.86
-0.99
-0.96
-0.76
-0.48
-0.22
-0.07
-0.04
-0.10
-0.23
-0.38
-0.54
-0.68
-0.79
-0.85
-0.85
-0.78
-0.62
-0.38
-0.09
0.18
0.37
0.44
0.43
0.40
0.44
0.57
0.74
0.86
0.83
0.66
0.41
0.19
0.08
0.11
0.22
0.34
0.40
0.39
0.33
0.24
0.17
0.10
0.03
-0.05
-0.13
-0.17
-0.15
-0.07
0.06
0.14
0.12
-0.02
-0.26
-0.53
-0.75
-0.86
-0.83
-0.68
-0.44
-0.18
0.04
0.20
0.30
0.37
0.43
0.49
0.50
0.40
0.19
-0.11
-0.37
-0.47
-0.37
-0.13
0.10
0.18
0.01
-0.35
-0.76
-1.05
-1.12
-0.95
-0.61
-0.25
0.06
0.26
0.37
0.41
0.43
0.45
0.48
0.51
0.57
0.64
0.70
0.70
0.59
0.37
0.07
-0.20
-0.34
-0.30
-0.11
0.13
0.32
0.38
0.34
0.26
0.22
0.26
0.35
0.43
0.47
0.44
0.39
0.34
0.27
0.13
-0.13
-0.55
-1.07
-1.55
-1.83
-1.79
-1.42
-0.83
-0.20
0.30
0.56
0.62
0.56
0.50
0.51
0.59
0.66
0.66
0.54
0.30
0.00
-0.31
-0.59
-0.81
-0.97
-1.04
-1.02
-0.89
-0.68
-0.40
-0.12
0.12
0.29
0.41
0.51
0.61
0.71
0.78
0.77
0.65
0.43
0.16
-0.08
-0.23
-0.28
-0.26
-0.22
-0.20
-0.23
-0.29
-0.33
-0.34
-0.24
-0.03
0.26
0.57
0.80
0.88
0.80
0.60
0.36
0.18
0.09
0.12
0.26
0.45
0.66
0.83
0.92
0.93
0.84
0.68
0.45
0.19
-0.09
-0.35
-0.53
-0.64
-0.65
-0.61
-0.58
-0.58
-0.62
-0.66
-0.64
-0.54
-0.34
-0.08
0.20
0.44
0.64
0.76
0.82
0.81
0.74
0.60
0.41
0.20
0.04
-0.05
-0.04
0.01
0.02
-0.05
-0.22
-0.44
-0.63
-0.73
-0.71
-0.63
-0.53
-0.45
-0.43
-0.46
-0.53
-0.62
-0.67
-0.66
-0.55
-0.34
-0.07
0.18
0.32
0.30
0.15
-0.04
-0.20
-0.28
-0.30
-0.31
-0.35
-0.44
-0.57
-0.68
-0.74
-0.71
-0.57
-0.32
0.02
0.36
0.64
0.80
0.80
0.68
0.50
0.33
0.21
0.18
0.22
0.30
0.41
0.53
0.66
0.79
0.92
1.05
1.13
1.10
0.92
0.56
0.09
-0.37
-0.65
-0.63
-0.35
0.05
0.33
0.32
-0.05
-0.65
-1.24
-1.63
-1.71
-1.54
-1.25
-0.97
-0.71
-0.43
-0.07
0.37
0.82
1.15
1.29
1.24
1.07
0.85
0.62
0.35
0.03
-0.34
-0.69
-0.88
-0.83
-0.55
-0.13
0.28
0.57
0.68
0.63
0.51
0.38
0.30
0.27
0.25
0.23
0.18
0.11
0.03
-0.02
-0.05
-0.06
-0.07
-0.11
-0.20
-0.34
-0.47
-0.51
-0.43
-0.21
0.07
0.28
0.28
0.01
-0.45
-0.92
-1.18
-1.12
-0.77
-0.28
0.14
0.39
0.47
0.48
0.49
0.52
0.50
0.41
0.24
0.07
-0.05
-0.13
-0.25
-0.50
-0.86
-1.20
-1.32
-1.09
-0.52
0.19
0.77
1.03
0.94
0.63
0.29
0.07
-0.01
-0.02
-0.03
-0.08
-0.13
-0.07
0.12
0.44
0.74
0.91
0.84
0.56
0.16
-0.22
-0.46
-0.50
-0.38
-0.17
0.05
0.23
0.33
0.34
0.27
0.13
-0.04
-0.16
-0.17
-0.07
0.10
0.29
0.40
0.43
0.39
0.33
0.28
0.21
0.10
-0.07
-0.28
-0.43
-0.47
-0.38
-0.21
-0.06
0.03
0.05
0.08
0.17
0.33
0.49
0.54
0.39
0.05
-0.42
-0.88
-1.23
-1.40
-1.40
-1.26
-1.04
-0.83
-0.68
-0.63
-0.67
-0.75
-0.78
-0.69
-0.44
-0.08
0.30
0.62
0.83
0.92
0.92
0.87
0.79
0.69
0.57
0.47
0.44
0.51
0.64
0.80
0.92
0.94
0.86
0.68
0.45
0.21
0.03
-0.07
-0.08
-0.03
0.02
0.00
-0.09
-0.25
-0.41
-0.50
-0.48
-0.37
-0.21
-0.07
0.02
0.04
-0.01
-0.11
-0.21
-0.28
-0.29
-0.24
-0.14
-0.02
0.10
0.22
0.31
0.37
0.36
0.27
0.11
-0.06
-0.19
-0.22
-0.13
0.04
0.19
0.25
0.16
-0.04
-0.32
-0.59
-0.76
-0.78
-0.67
-0.47
-0.23
-0.03
0.11
0.18
0.19
0.13
0.03
-0.07
-0.11
-0.02
0.19
0.47
0.69
0.78
0.70
0.53
0.37
0.31
0.35
0.44
0.48
0.43
0.32
0.20
0.07
-0.04
-0.18
-0.34
-0.49
-0.58
-0.56
-0.40
-0.14
0.15
0.39
0.53
0.52
0.40
0.23
0.07
-0.01
0.02
0.11
0.21
0.24
0.20
0.10
-0.00
-0.07
-0.10
-0.12
-0.18
-0.30
-0.46
-0.63
-0.77
-0.84
-0.80
-0.62
-0.29
0.12
0.54
0.83
0.90
0.72
0.37
-0.04
-0.37
-0.55
-0.58
-0.51
-0.43
-0.37
-0.32
-0.26
-0.15
-0.02
0.09
0.14
0.11
0.05
-0.01
-0.00
0.10
0.31
0.59
0.86
1.02
0.98
0.70
0.22
-0.31
-0.73
-0.93
-0.86
-0.60
-0.29
-0.07
-0.02
-0.13
-0.32
-0.50
-0.61
-0.61
-0.55
-0.48
-0.44
-0.44
-0.43
-0.39
-0.32
-0.24
-0.18
-0.13
-0.05
0.10
0.35
0.65
0.91
1.04
0.98
0.75
0.42
0.11
-0.05
0.02
0.29
0.66
1.00
1.17
1.09
0.81
0.44
0.07
-0.18
-0.30
-0.29
-0.22
-0.14
-0.12
-0.21
-0.44
-0.75
-1.05
-1.22
-1.22
-1.08
-0.87
-0.66
-0.46
-0.25
-0.01
0.25
0.44
0.49
0.36
0.10
-0.17
-0.31
-0.26
-0.07
0.14
0.24
0.17
-0.02
-0.23
-0.34
-0.28
-0.06
0.21
0.40
0.44
0.31
0.12
-0.04
-0.12
-0.15
-0.18
-0.26
-0.35
-0.38
-0.28
-0.07
0.20
0.41
0.52
0.53
0.50
0.50
0.51
0.50
0.39
0.18
-0.04
-0.20
-0.22
-0.10
0.09
0.26
0.37
0.40
0.37
0.30
0.20
0.08
-0.05
-0.17
-0.24
-0.26
-0.23
-0.20
-0.19
-0.22
-0.30
-0.39
-0.44
-0.44
-0.32
-0.08
0.24
0.57
0.81
0.90
0.85
0.73
0.63
0.58
0.57
0.52
0.41
0.26
0.15
0.14
0.25
0.38
0.44
0.37
0.18
-0.02
-0.16
-0.19
-0.16
-0.16
-0.27
-0.49
-0.78
-1.07
-1.26
-1.36
-1.37
-1.33
-1.24
-1.06
-0.76
-0.37
0.04
0.38
0.56
0.58
0.46
0.26
0.06
-0.10
-0.17
-0.11
0.07
0.31
0.51
0.55
0.37
0.05
-0.28
-0.45
-0.41
-0.20
0.04
0.17
0.16
0.03
-0.12
-0.22
-0.24
-0.20
-0.11
0.02
0.21
0.41
0.56
0.53
0.29
-0.11
-0.53
-0.79
-0.77
-0.48
-0.03
0.42
0.73
0.87
0.84
0.72
0.55
0.38
0.22
0.10
0.06
0.12
0.27
0.43
0.52
0.48
0.34
0.17
0.09
0.16
0.36
0.61
0.77
0.76
0.57
0.25
-0.12
-0.48
-0.78
-1.00
-1.14
-1.16
-1.06
-0.89
-0.67
-0.45
-0.23
-0.01
0.20
0.40
0.56
0.62
0.59
0.48
0.34
0.20
0.12
0.10
0.16
0.29
0.48
0.67
0.76
0.69
0.41
-0.03
-0.50
-0.87
-1.04
-0.98
-0.77
-0.54
-0.36
-0.28
-0.25
-0.23
-0.17
-0.08
0.02
0.10
0.15
0.17
0.17
0.13
0.04
-0.08
-0.23
-0.38
-0.51
-0.59
-0.61
-0.58
-0.51
-0.41
-0.32
-0.27
-0.26
-0.30
-0.36
-0.37
-0.29
-0.11
0.17
0.45
0.66
0.71
0.59
0.37
0.18
0.12
0.25
0.51
0.79
0.98
1.04
0.97
0.81
0.58
0.28
-0.10
-0.51
-0.86
-1.05
-1.01
-0.77
-0.42
-0.08
0.14
0.24
0.24
0.18
0.13
0.08
0.05
-0.01
-0.10
-0.19
-0.25
-0.24
-0.14
0.01
0.17
0.27
0.27
0.19
0.09
-0.00
-0.06
-0.11
-0.19
-0.30
-0.43
-0.53
