1544027334.00
64.000000
-0.00
-0.00
-0.00
-0.00
-0.00
-0.00
-0.00
-0.00
-0.00
-0.01
-0.00
0.00
0.01
0.01
-0.00
-0.03
-0.05
-0.05
-0.00
0.13
0.36
0.66
1.01
1.37
1.72
2.06
2.40
2.77
3.24
3.80
4.43
5.07
5.70
6.26
6.80
7.35
7.97
8.81
9.87
11.10
12.39
13.63
14.76
15.83
17.01
18.42
20.45
23.08
26.21
29.55
32.83
35.87
38.77
41.84
45.40
50.15
56.11
63.06
70.47
77.78
84.65
91.17
97.86
105.30
114.50
125.55
138.10
151.34
164.39
176.69
188.34
200.97
212.85
226.19
241.77
260.37
282.07
305.69
328.35
345.77
353.34
347.56
328.06
296.73
257.56
214.87
171.86
130.12
89.93
51.15
13.90
-20.72
-51.82
-78.74
-101.62
-121.03
-137.53
-151.32
-162.26
-170.04
-174.33
-175.52
-174.49
-172.48
-170.69
-170.00
-170.42
-171.62
-173.13
-174.47
-175.56
-176.57
-177.83
-179.61
-182.03
-185.08
-188.75
-193.19
-198.47
-204.61
-211.55
-218.78
-225.92
-232.94
-240.46
-249.68
-261.58
-276.07
-291.38
-304.43
-312.01
-311.88
-303.77
-289.08
-269.69
-246.91
-221.35
-193.44
-164.48
-136.97
-113.94
-97.07
-85.59
-76.55
-66.21
-52.48
-36.01
-19.99
-7.89
-1.47
0.47
1.54
5.32
13.50
24.62
35.06
41.25
41.56
37.74
33.71
33.47
38.75
47.74
56.36
60.28
57.58
49.98
41.66
37.03
37.96
42.85
47.83
48.84
44.28
36.12
28.39
25.00
27.42
34.00
40.70
43.51
40.94
34.45
27.73
24.49
26.35
31.74
36.83
37.98
33.48
24.82
15.92
10.83
11.51
16.66
22.67
25.44
22.91
16.38
9.57
6.47
8.86
15.14
21.25
22.96
18.22
8.88
-0.61
-5.67
-4.09
2.54
9.84
12.89
9.35
0.66
-8.85
-14.32
-13.35
-7.31
-0.66
1.83
-2.15
-11.26
-20.87
-25.91
-23.84
-16.04
-7.07
-1.98
-3.71
-11.13
-19.78
-24.67
-22.99
-15.81
-7.23
-2.13
-3.31
-9.64
-17.18
-21.38
-19.72
-13.28
-5.93
-2.07
-3.73
-9.67
-16.05
-18.49
-14.86
-6.54
2.39
7.63
6.94
1.42
-4.78
-7.18
-3.62
4.51
13.04
17.58
15.88
9.60
3.25
1.30
5.74
14.72
23.83
28.40
26.57
20.40
14.19
12.21
16.05
23.87
31.36
34.56
32.26
26.31
20.71
19.32
23.57
31.64
39.49
43.51
42.11
36.82
31.56
30.26
34.60
42.83
50.95
54.69
51.95
44.45
36.68
33.36
36.70
44.98
53.63
57.47
54.12
45.37
35.72
30.12
30.83
36.51
42.70
44.80
40.75
31.75
21.84
15.36
14.69
18.78
23.88
25.97
22.67
14.97
6.66
2.02
3.44
9.69
16.88
20.39
17.74
10.21
1.85
-2.88
-1.82
3.65
9.51
11.41
7.59
-0.16
-7.59
-10.21
-6.18
2.82
12.14
16.96
14.89
7.17
-1.72
-6.82
-5.35
1.69
10.07
14.94
13.45
6.59
-1.34
-5.62
-3.57
3.52
11.32
14.81
11.45
2.82
-6.60
-11.84
-10.44
-3.84
3.34
6.26
2.72
-5.73
-14.53
-18.77
-16.13
-8.23
0.41
5.05
3.24
-3.56
-10.81
-13.77
-10.29
-1.93
6.85
11.21
8.87
1.61
-6.14
-9.85
-7.51
-0.74
6.08
8.51
4.91
-2.83
-10.39
-13.43
-10.16
-2.36
5.50
9.20
6.90
0.19
-6.63
-9.23
-5.60
2.57
11.02
15.29
13.10
5.96
-1.87
-5.84
-3.77
2.88
9.98
13.00
9.85
2.20
-5.74
-9.63
-7.55
-1.02
5.81
8.77
6.17
-0.43
-7.11
-10.01
-7.40
-0.86
5.81
8.82
6.47
0.19
-6.29
-9.10
-6.55
-0.06
6.63
9.55
6.97
0.39
-6.32
-9.27
-6.86
-0.57
5.71
8.24
5.54
-0.73
-6.86
-9.34
-6.69
-0.51
5.65
8.35
6.05
0.18
-5.86
-8.56
-6.29
-0.36
5.93
8.83
6.56
0.34
-6.39
-9.78
-8.04
-2.24
4.12
7.25
5.34
-0.48
-6.68
-9.63
-7.55
-1.58
4.86
8.14
6.43
0.87
-5.13
-7.98
-5.87
0.08
6.46
9.54
7.52
1.64
-4.64
-7.58
-5.46
0.52
6.80
9.65
7.32
1.06
-5.59
-8.86
-6.83
-0.65
6.12
9.45
7.11
0.11
-7.73
-12.01
-10.18
-3.09
5.37
10.49
9.46
3.08
-4.90
-9.89
-9.27
-3.79
2.97
6.81
5.44
-0.12
-6.23
-8.85
-5.95
1.32
9.18
13.26
11.27
4.35
-3.57
-7.95
-6.28
0.40
7.95
11.69
9.10
1.29
-7.41
-12.22
-10.56
-3.54
4.82
9.90
9.14
3.67
-2.74
-5.77
-3.23
3.78
11.20
14.67
11.98
4.45
-3.67
-7.89
-5.77
1.15
8.67
12.05
8.95
0.93
-7.73
-12.17
-10.24
-3.22
4.48
8.23
5.65
-1.95
-10.21
-14.61
-12.52
-5.33
2.85
7.22
5.26
-1.69
-9.47
-13.14
-10.41
-2.55
5.98
10.39
8.23
0.76
-7.55
-12.07
-10.16
-3.18
4.81
9.02
6.93
-0.20
-8.30
-12.49
-10.36
-2.92
5.38
9.80
7.79
0.54
-7.44
-11.37
-8.60
-0.66
8.16
12.90
11.01
3.89
-4.23
-8.39
-6.19
1.32
9.78
14.48
12.79
5.73
-2.47
-7.13
-5.40
1.56
9.80
14.44
12.69
5.55
-3.11
-8.39
-7.68
-1.65
5.68
9.69
7.61
0.11
-8.90
-14.82
-14.58
-8.84
-1.21
3.63
2.74
-3.18
-10.45
-14.23
-11.88
-4.17
4.70
9.88
8.62
1.89
-6.00
-10.31
-8.23
-0.92
7.59
12.49
11.16
4.67
-3.21
-7.74
-6.43
-0.04
7.50
11.73
10.01
2.98
-5.50
-10.91
-10.34
-4.54
3.07
7.94
7.24
1.65
-5.49
-9.86
-9.08
-3.58
3.23
7.37
6.61
1.58
-4.45
-7.83
-6.20
-0.35
6.61
10.86
10.08
4.84
-1.89
-6.14
-5.59
-0.58
5.80
9.67
8.51
2.66
-4.61
-9.38
-8.98
-3.85
2.98
7.46
6.96
1.91
-4.76
-9.18
-9.01
-4.47
1.59
5.52
5.12
0.62
-5.22
-9.00
-8.42
-3.82
2.21
6.30
6.12
1.89
-3.89
-7.76
-7.50
-3.19
2.78
6.99
7.17
3.26
-2.37
-6.50
-6.76
-3.01
2.56
6.90
7.50
4.11
-1.34
-5.73
-6.52
-3.35
2.01
6.40
7.34
4.30
-0.80
-4.74
-4.99
-1.13
4.69
9.12
9.38
5.24
-1.03
-5.88
-6.51
-2.69
3.26
7.56
7.57
3.06
-3.46
-8.15
-8.26
-3.57
3.11
7.97
8.05
3.26
-3.53
-8.24
-7.83
-2.28
5.57
11.36
11.97
7.24
-0.06
-5.72
-6.77
-2.91
3.06
7.32
7.03
2.17
-4.42
-8.91
-8.53
-3.41
3.57
8.28
7.80
2.18
-5.63
-11.37
-11.92
-7.17
-0.13
4.82
4.33
-1.98
-11.26
-19.04
-21.86
-19.06
-13.01
-7.85
-6.90
-10.81
-17.40
-23.00
-24.75
-22.09
-17.29
-13.81
-14.30
-19.27
-26.57
-32.87
-35.56
-34.33
-31.26
-29.51
-31.74
-38.33
-47.29
-55.49
-60.38
-61.64
-61.18
-62.21
-67.16
-76.26
-87.44
-97.45
-103.88
-106.43
-106.99
-108.09
-110.92
-114.05
-113.74
-105.91
-88.58
-63.14
-34.00
-6.25
16.93
35.58
52.89
73.17
99.63
132.55
169.33
205.81
237.92
263.03
280.13
289.32
290.92
285.08
271.87
251.66
225.66
195.90
164.92
135.10
108.10
84.53
64.05
45.78
28.89
13.03
-1.63
-14.53
-25.14
-33.21
-38.96
-42.98
-45.96
-48.47
-50.73
-52.67
-54.05
-54.64
-54.35
-53.29
-51.69
-49.79
-47.73
-45.56
-43.25
-40.77
-38.14
-35.39
-32.57
-29.68
-26.63
-23.29
-19.57
-15.53
-11.42
-7.53
-4.12
-1.22
1.36
4.06
7.37
11.58
16.55
21.74
26.42
30.12
32.66
34.37
36.00
38.37
41.79
45.68
48.79
49.50
46.48
39.32
28.46
15.24
1.04
-13.04
-26.81
-40.79
-55.69
-72.09
-89.56
-108.41
-128.38
-147.94
-163.86
-171.51
-166.32
-146.04
-113.01
-72.75
-33.28
-1.70
18.37
27.59
29.56
28.40
26.74
25.12
23.05
20.00
16.51
13.93
13.36
14.84
17.31
19.15
18.91
16.26
11.79
6.87
2.89
0.63
-0.05
-0.05
-0.56
-2.49
-6.05
-10.88
-16.19
-21.20
-25.51
-29.25
-32.94
-37.19
-42.40
-48.64
-55.71
-63.26
-70.97
-78.73
-86.61
-94.73
-103.06
-111.37
-119.20
-126.08
-131.60
-135.41
-137.24
-136.74
-133.50
-127.27
-117.67
-104.68
-88.93
-71.68
-54.59
-39.26
-26.71
-16.97
-9.14
-1.75
6.47
16.09
26.68
37.11
46.23
53.60
59.95
67.18
77.54
92.63
112.48
135.31
158.21
178.07
192.72
201.75
206.67
209.95
214.19
221.41
232.15
244.69
254.64
255.21
238.96
200.73
140.31
64.19
-14.82
-80.97
-121.08
-127.65
-102.36
-55.19
0.42
52.01
91.22
114.78
123.22
118.93
104.77
83.28
55.87
25.71
-3.49
-28.68
-48.34
-62.71
-73.23
-81.37
-87.81
-91.62
-90.53
-82.55
-67.38
-47.14
-26.36
-10.64
-4.56
-9.96
-25.01
-44.65
-62.80
-74.63
-78.02
-73.91
-65.41
-56.10
-48.66
-43.97
-41.23
-38.93
-35.82
-31.53
-26.61
-22.11
-18.86
-17.02
-15.97
-14.64
-12.30
-9.07
-5.93
-4.26
-4.99
-7.99
-11.85
-14.50
-14.21
-10.56
-4.79
0.80
3.95
3.67
0.76
-2.70
-4.51
-3.56
-0.52
2.71
4.05
2.50
-1.19
-4.98
-6.74
-5.54
-2.22
1.12
2.30
0.40
-3.61
-7.42
-8.73
-6.57
-1.89
2.87
5.14
3.72
-0.67
-5.76
-9.07
-9.22
-6.70
-3.52
-1.93
-3.19
-6.81
-10.89
-13.28
-12.89
-10.32
-7.49
-6.50
-8.47
-12.78
-17.50
-20.47
-20.60
-18.37
-15.46
-13.57
-13.36
-13.90
-13.32
-9.87
-3.30
4.32
9.03
6.80
-3.90
-20.78
-37.98
-48.26
-45.82
-28.57
0.90
36.21
68.97
91.58
98.80
88.79
63.07
26.24
-14.73
-51.07
-73.78
-76.29
-56.36
-17.81
29.81
73.67
101.43
105.81
87.27
54.20
17.27
-14.42
-35.63
-45.26
-44.92
-37.11
-24.01
-7.48
10.49
27.37
40.47
48.03
49.88
47.37
42.68
38.10
35.06
33.84
33.47
32.48
29.47
23.59
15.08
5.39
-3.13
-8.48
-9.86
-8.02
-5.02
-3.25
-4.18
-7.82
-12.73
-16.80
-18.43
-17.34
-14.72
-12.46
-12.05
-13.77
-16.56
-18.69
-18.76
-16.54
-12.95
-9.52
-7.45
-6.90
-6.97
-6.45
-4.68
-2.04
0.21
0.72
-1.01
-4.21
-7.18
-8.25
-6.78
-3.48
-0.07
1.70
1.08
-1.24
-3.59
-4.29
-2.64
0.63
3.63
4.33
1.50
-4.66
-12.53
-19.70
-23.93
-23.94
-19.90
-13.32
-6.38
-1.02
1.85
2.61
2.43
2.48
3.10
3.58
2.64
-0.58
-5.77
-11.29
-14.84
-14.53
-9.77
-1.56
7.88
15.91
20.38
20.14
15.36
7.27
-2.23
-11.16
-17.89
-21.34
-21.00
-17.04
-10.45
-3.01
3.03
5.74
4.66
1.36
-0.70
2.21
11.92
26.68
41.21
49.00
45.49
30.63
8.98
-12.53
-28.18
-35.98
-37.93
-37.97
-39.15
-41.74
-43.28
-40.51
-31.71
-17.99
-2.91
9.29
15.64
15.67
11.29
5.71
1.87
1.10
2.81
4.98
5.57
3.67
0.21
-2.69
-2.92
0.23
5.57
10.59
12.84
11.38
7.21
2.75
0.37
1.13
4.17
7.34
8.43
6.40
1.97
-2.90
-6.07
-6.34
-3.99
-0.48
2.40
3.52
2.90
1.53
0.58
0.67
1.44
1.89
1.05
-1.26
-4.14
-6.04
-5.63
-2.62
1.97
6.33
8.77
8.63
6.60
4.24
3.05
3.63
5.42
7.08
7.42
6.17
4.20
2.97
3.69
6.49
10.24
13.08
13.43
10.92
6.64
2.64
0.90
2.32
6.30
11.07
14.61
15.58
13.91
10.50
6.67
3.37
0.89
-0.97
-2.35
-3.00
-2.19
0.83
6.27
13.33
20.16
24.39
24.00
18.17
7.66
-5.55
-19.00
-30.71
-39.69
-45.86
-49.64
-51.19
-50.23
-46.42
-39.99
-32.37
-26.12
-24.05
-27.96
-37.56
-50.28
-62.08
-68.93
-68.25
-59.70
-45.10
-27.66
-10.97
1.92
9.10
10.14
6.06
-0.95
-8.21
-13.37
-15.11
-13.44
-9.50
-4.85
-0.85
1.79
3.11
3.51
3.59
3.90
4.90
6.88
9.87
13.55
17.30
20.33
21.97
21.97
20.52
18.20
15.67
13.52
11.98
11.03
10.66
10.91
12.00
14.03
16.73
19.38
20.97
20.79
18.80
15.90
13.46
12.65
13.70
15.86
17.72
18.09
16.74
14.52
12.91
13.13
15.41
18.75
21.51
22.29
20.71
17.70
14.97
14.07
15.47
18.39
21.16
22.18
20.86
17.87
14.69
12.77
12.62
13.55
14.13
13.09
9.98
5.59
1.49
-0.82
-0.64
1.57
4.55
6.85
7.66
7.15
6.18
5.69
6.17
7.29
8.26
8.35
7.36
5.83
4.68
4.77
6.48
9.52
13.05
15.94
17.29
16.86
15.31
13.93
14.12
16.36
19.64
21.75
20.36
14.56
5.87
-2.18
-5.82
-3.25
4.06
11.92
15.54
12.23
2.85
-8.71
-17.72
-21.12
-19.07
-14.46
-10.94
-10.84
-14.01
-18.14
-20.26
-18.44
-12.22
-2.50
9.42
22.53
35.83
47.54
54.69
53.64
41.73
19.05
-10.70
-41.08
-65.17
-78.14
-78.90
-70.09
-56.48
-42.78
-32.00
-24.89
-20.53
-17.48
-14.91
-12.95
-12.37
-13.86
-17.24
-21.26
-24.19
-24.63
-22.27
-18.30
-14.51
-12.37
-12.23
-13.05
-13.04
-10.74
-5.94
0.18
5.50
8.01
6.80
2.48
-3.15
-7.94
-10.40
-10.25
-8.27
-5.68
-3.24
-0.92
1.91
5.87
10.77
15.54
18.56
18.52
15.19
9.72
4.13
0.37
-0.63
0.63
2.52
3.18
1.54
-2.09
-6.18
-8.72
-8.39
-5.19
-0.50
3.67
5.74
5.35
3.52
1.84
1.57
2.78
4.41
5.02
3.75
0.95
-1.97
-3.40
-2.53
0.16
3.24
5.08
4.83
2.82
0.29
-1.39
-1.43
0.01
1.98
3.35
3.44
2.29
0.65
-0.52
-0.57
0.45
1.88
2.79
2.53
1.10
-0.78
-2.18
-2.42
-1.51
-0.13
0.80
0.67
-0.38
-1.63
-2.16
-1.45
0.25
2.02
2.81
1.95
-0.37
-3.16
-5.17
-5.48
-4.00
-1.48
0.85
1.95
1.53
0.11
-1.23
-1.50
-0.36
1.65
3.44
3.91
2.66
0.19
-2.32
-3.65
-3.15
-1.11
1.45
3.32
3.70
2.42
-0.14
-3.46
-7.11
-10.90
-14.66
-18.13
-20.86
-22.49
-22.75
-21.79
-20.12
-18.46
-17.58
-18.10
-20.00
-22.28
-23.07
-20.45
-13.94
-5.33
1.78
3.95
0.27
-6.66
-11.98
-11.40
-3.92
7.49
17.76
22.92
22.42
19.11
17.02
18.56
23.03
27.39
28.47
25.09
18.64
12.00
7.94
7.60
10.16
13.49
15.29
14.24
10.55
5.72
1.74
0.14
1.21
3.97
6.81
8.33
8.02
6.38
4.33
2.65
1.58
0.73
-0.43
-2.11
-4.01
-5.44
-5.71
-4.61
-2.50
-0.15
1.63
2.34
2.07
1.34
0.85
1.03
1.90
3.01
3.76
3.79
3.27
2.72
2.76
3.62
5.00
6.14
6.25
4.96
2.53
-0.15
-2.10
-2.66
-1.82
-0.17
1.38
2.16
1.99
1.28
0.69
0.71
1.36
2.17
2.46
1.82
0.36
-1.28
-2.30
-2.18
-0.97
0.73
2.15
2.78
2.63
2.16
2.01
2.51
3.56
4.61
5.03
4.43
2.96
1.24
0.05
-0.07
0.89
2.42
3.72
4.14
3.52
2.27
1.12
0.73
1.28
2.41
3.43
3.75
3.22
2.30
1.63
1.72
2.55
3.62
4.24
3.97
2.87
1.46
0.35
-0.16
-0.22
-0.41
-1.30
-3.12
-5.57
-7.91
-9.32
-9.33
-8.09
-6.28
-4.81
-4.31
-4.85
-5.88
-6.62
-6.54
-5.72
-4.76
-4.39
-4.99
-6.35
-7.73
-8.41
-8.06
-6.88
-5.48
-4.45
-4.05
-4.16
-4.40
-4.43
-4.11
-3.55
-3.01
-2.73
-2.79
-3.17
-3.67
-4.08
-4.24
-4.12
-3.84
-3.53
-3.30
-3.07
-2.68
-1.98
-0.97
0.09
0.91
1.29
1.36
1.49
2.13
3.44
5.13
6.53
6.90
5.89
3.78
1.41
-0.23
-0.50
0.57
2.33
3.83
4.38
3.80
2.55
1.42
1.16
2.14
4.24
6.86
9.22
10.60
10.68
9.63
8.09
6.90
6.86
8.35
11.08
14.16
16.35
16.69
14.92
11.58
7.73
4.49
2.59
2.41
4.12
7.77
13.08
19.13
24.28
26.77
25.48
20.70
14.02
7.62
3.14
1.01
0.62
1.00
1.57
2.21
2.83
2.86
1.18
-3.39
-11.25
-21.60
-32.63
-42.02
-47.46
-47.24
-40.68
-28.95
-15.28
-4.36
-0.77
-6.74
-20.66
-37.30
-50.03
-53.90
-47.97
-35.46
-21.73
-11.36
-6.09
-4.65
-4.35
-3.11
-0.66
1.65
2.17
0.20
-3.47
-6.90
-8.14
-6.28
-1.99
2.97
6.50
7.29
5.45
2.39
0.13
0.25
3.06
7.54
11.92
14.58
14.89
13.41
11.47
10.45
11.04
13.05
15.60
17.68
18.68
18.58
17.89
17.19
16.88
16.96
17.12
17.02
16.52
15.72
14.88
14.20
13.61
12.83
11.51
9.47
6.90
4.26
2.08
0.62
-0.25
-0.97
-2.04
-3.69
-5.80
-7.92
-9.57
-10.49
-10.73
-10.60
-10.46
-10.57
-10.98
-11.60
-12.25
-12.88
-13.51
-14.21
-15.04
-15.91
-16.63
-16.98
-16.81
-16.09
-14.99
-13.76
-12.66
-11.77
-10.95
-9.81
-7.90
-4.88
-0.73
4.21
9.30
13.87
17.47
20.03
21.78
23.11
24.36
25.69
27.03
28.18
28.91
29.06
28.67
27.93
27.07
26.17
25.05
23.22
20.15
15.55
9.63
3.12
-3.08
-8.32
-12.52
-16.03
-19.37
-22.71
-25.67
-27.65
-28.17
-27.33
-25.83
-24.63
-24.36
-24.94
-25.56
-25.20
-23.22
-19.69
-15.28
-10.90
-7.35
-5.09
-4.21
-4.49
-5.36
-5.95
-5.28
-2.61
2.21
8.50
15.00
20.37
23.82
25.41
25.76
25.66
25.50
25.24
24.66
23.72
22.59
21.46
20.31
18.78
16.48
13.37
10.00
7.36
6.30
7.00
8.72
10.15
10.04
7.88
4.12
-0.18
-3.95
-6.59
-8.13
-9.09
-9.92
-10.80
-11.52
-11.76
-11.37
-10.49
-9.60
-9.16
-9.38
-10.05
-10.67
-10.72
-9.96
-8.64
-7.26
-6.37
-6.22
-6.67
-7.25
-7.44
-7.00
-6.05
-5.00
-4.28
-4.12
-4.36
-4.64
-4.55
-3.92
-2.91
-1.91
-1.29
-1.25
-1.64
-2.14
-2.40
-2.26
-1.82
-1.34
-1.10
-1.23
-1.60
-1.96
-2.03
-1.73
-1.18
-0.70
-0.63
-1.08
-1.92
-2.85
-3.54
-3.83
-3.79
-3.61
-3.50
-3.48
-3.33
-2.66
-1.18
1.15
4.04
7.07
9.81
11.95
13.32
13.96
14.06
13.91
13.83
13.91
13.90
13.31
11.62
8.59
4.56
0.17
-3.72
-6.58
-8.25
-8.89
-8.53
-7.01
-4.29
-0.77
2.50
4.21
3.36
-0.24
-5.78
-11.89
-17.08
-20.17
-20.45
-17.70
-12.23
-4.93
2.83
9.52
13.87
15.29
13.98
10.72
6.45
1.94
-2.19
-5.44
-7.17
-7.04
-5.07
-1.93
1.28
3.39
3.74
2.40
0.11
-2.09
-3.38
-3.43
-2.48
-1.13
0.04
0.78
1.14
1.41
1.80
2.26
2.58
2.48
1.91
1.07
0.33
0.04
0.28
0.84
1.33
1.45
1.14
0.62
0.22
0.20
0.54
1.02
1.28
1.09
0.45
-0.39
-1.05
-1.29
-1.07
-0.58
-0.14
-0.04
-0.30
-0.73
-1.03
-0.97
-0.57
-0.09
0.11
-0.22
-1.04
-2.01
-2.70
-2.83
-2.39
-1.71
-1.25
-1.34
-2.00
-2.89
-3.53
-3.56
-2.92
-1.95
-1.19
-1.09
-1.77
-2.93
-4.02
-4.49
-4.13
-3.14
-2.00
-1.26
-1.19
-1.77
-2.69
-3.67
-4.58
-5.54
-6.66
-7.82
-8.56
-8.24
-6.47
-3.44
-0.05
2.40
2.90
1.25
-1.67
-4.26
-4.90
-2.70
2.14
8.38
14.21
17.83
18.06
14.77
8.98
2.60
-2.30
-4.27
-3.16
-0.14
2.87
4.20
3.21
0.45
-2.71
-5.00
-5.71
-4.65
-1.71
3.23
9.91
17.10
22.44
23.34
18.35
8.26
-3.89
-14.09
-19.23
-18.43
-13.18
-6.25
-0.15
3.87
5.92
6.77
7.09
7.06
6.51
5.33
3.68
2.00
0.77
0.38
0.94
2.12
3.35
3.96
3.50
2.00
-0.04
-1.81
-2.58
-2.09
-0.65
0.94
1.88
1.65
0.32
-1.51
-3.03
-3.65
-3.19
-2.04
-0.86
-0.24
-0.49
-1.43
-2.59
-3.42
-3.59
-3.12
-2.38
-1.80
-1.65
-1.89
-2.22
-2.32
-2.04
-1.51
-1.04
-0.94
-1.24
-1.75
-2.14
-2.20
-1.93
-1.53
-1.29
-1.36
-1.71
-2.14
-2.36
-2.23
-1.73
-1.05
-0.45
-0.10
-0.04
-0.12
-0.10
0.26
1.02
2.07
3.15
3.97
4.35
4.29
3.93
3.45
2.92
2.25
1.32
0.07
-1.25
-2.13
-2.07
-0.85
1.16
3.11
4.02
3.27
0.94
-2.26
-5.30
-7.44
-8.43
-8.59
-8.47
-8.46
-8.57
-8.46
-7.60
-5.56
-2.26
2.09
6.99
11.86
16.33
20.29
24.02
27.98
32.56
37.88
43.62
49.20
53.90
57.21
59.02
59.59
59.48
59.22
59.04
58.62
57.30
54.27
49.05
41.73
32.92
23.41
13.99
5.34
-1.80
-6.50
-8.01
-6.32
-2.66
0.57
0.69
-3.85
-12.63
-23.22
-32.43
-37.82
-38.74
-36.33
-32.58
-29.11
-26.46
-24.31
-22.16
-20.03
-18.58
-18.73
-21.01
-25.15
-30.04
-34.13
-36.24
-35.97
-33.86
-31.16
-29.11
-28.41
-28.95
-29.88
-30.18
-29.13
-26.69
-23.42
-20.22
-17.82
-16.50
-15.99
-15.66
-14.90
-13.40
-11.29
-9.05
-7.22
-6.12
-5.68
-5.53
-5.22
-4.56
-3.70
-3.04
-2.99
-3.65
-4.72
-5.64
-5.87
-5.20
-3.88
-2.42
-1.40
-1.10
-1.44
-2.03
-2.46
-2.47
-2.09
-1.62
-1.41
-1.66
-2.36
-3.24
-3.90
-4.02
-3.49
-2.46
-1.36
-0.65
-0.54
-0.89
-1.16
-0.73
0.73
3.12
5.95
8.74
11.33
13.89
16.67
19.62
22.26
23.90
24.14
23.23
22.03
21.65
22.74
25.18
28.01
29.92
29.79
27.05
21.87
14.99
7.43
0.18
-6.08
-11.10
-15.02
-18.14
-20.59
-22.26
-22.78
-21.77
-19.09
-14.89
-9.51
-3.32
3.32
10.01
16.09
20.63
22.69
21.73
18.00
12.66
7.52
4.51
4.95
9.05
15.87
23.59
30.18
34.06
34.44
31.52
26.07
19.12
11.49
3.66
-4.19
-11.85
-18.82
-24.33
-27.53
-28.01
-25.99
-22.27
-17.87
-13.59
-9.78
-6.39
-3.23
-0.06
3.37
7.53
13.11
20.73
30.44
41.22
51.11
57.85
60.00
57.53
51.84
44.94
38.49
33.28
29.27
26.20
23.94
22.67
22.29
22.03
20.53
16.28
8.48
-2.47
-15.01
-26.93
-36.23
-41.62
-42.70
-39.82
-34.02
-26.76
-19.79
-14.78
-12.76
-13.76
-16.62
-19.50
-20.67
-19.32
-15.83
-11.33
-6.94
-3.03
0.96
6.17
13.46
22.77
32.89
42.12
49.07
53.38
55.93
58.37
62.28
68.50
76.77
85.83
93.94
99.26
100.34
96.40
87.78
76.22
64.75
57.07
56.48
64.48
79.98
99.48
118.06
131.15
136.05
132.51
122.39
108.42
93.16
78.29
64.29
50.22
33.75
11.60
-19.22
-59.67
-107.50
-157.24
-202.04
-236.41
-258.30
-269.36
-273.26
-273.11
-269.73
-261.83
-247.63
-226.80
-201.22
-174.17
-148.54
-125.72
-105.45
-86.69
-68.93
-52.70
-39.29
-29.86
-24.48
-21.87
-19.91
-16.60
-11.02
-3.75
3.49
8.72
10.81
10.03
7.84
5.99
5.56
6.51
7.81
8.38
7.76
6.43
5.43
5.58
6.88
8.37
8.75
7.09
3.57
-0.68
-4.16
-5.90
-5.98
-5.50
-5.96
-8.30
-12.35
-16.81
-19.95
-20.72
-19.42
-17.72
-17.88
-21.58
-28.92
-38.18
-46.67
-52.10
-54.07
-54.22
-55.43
-60.30
-69.62
-81.92
-94.37
-104.31
-110.74
-115.10
-120.13
-128.28
-140.27
-154.57
-168.26
-178.65
-184.56
-186.85
-188.18
-190.96
-195.88
-201.44
-204.71
-203.25
-197.14
-189.30
-181.53
-176.01
-172.66
-168.38
-158.46
-139.19
-110.01
-73.45
-32.43
12.74
64.79
127.59
202.23
283.83
362.01
426.15
468.21
485.61
481.36
461.19
430.23
390.78
342.86
287.03
227.18
170.71
126.50
101.02
94.98
103.28
116.79
126.51
127.57
120.74
110.49
101.38
95.41
91.38
86.48
78.66
67.63
54.41
39.63
22.85
3.47
-18.26
-40.60
-61.94
-82.37
-104.00
-128.97
-156.44
-180.75
-192.59
-184.35
-153.84
-107.26
-57.63
-19.41
-2.40
-8.26
-31.04
-60.85
-88.52
-108.37
-118.32
-118.90
-111.62
-97.73
-78.00
-53.69
-27.34
-2.98
15.19
24.34
24.88
20.89
18.81
24.99
42.57
70.09
101.92
130.81
150.79
159.41
158.09
150.67
141.18
132.04
123.59
114.73
104.83
93.06
79.46
64.78
50.02
35.92
22.69
10.16
-1.88
-13.35
-23.79
-32.39
-38.40
-41.64
-42.67
-42.54
-42.38
-42.80
-43.74
-44.66
-44.83
-43.83
-41.84
-39.52
-37.56
-36.33
-35.68
-35.07
-33.86
-31.60
-28.37
-24.74
-21.55
-19.52
-18.85
-19.10
-19.34
-18.55
-16.07
-11.85
-6.54
-1.02
4.00
8.24
11.77
14.76
17.10
18.43
18.38
16.92
14.62
12.47
11.35
11.65
12.95
14.23
14.38
12.67
9.02
3.83
-2.22
-8.46
-14.31
-19.27
-22.74
-24.06
-22.73
-18.73
-12.86
-6.61
-1.77
0.26
-0.82
-4.10
-7.82
-10.24
-10.39
-8.41
-5.31
-2.31
-0.21
0.85
1.27
1.64
2.39
3.77
5.79
8.27
10.71
12.38
12.48
10.51
6.64
1.70
-3.07
-6.58
-8.37
-8.63
-8.03
-7.27
-6.80
-6.82
-7.27
-8.10
-9.18
-10.37
-11.49
-12.29
-12.60
-12.38
-11.79
-11.25
-11.31
-12.41
-14.60
-17.31
-19.56
-20.40
-19.28
-16.34
-12.22
-7.63
-2.95
1.94
7.40
13.58
19.99
25.65
29.56
31.32
31.33
30.60
30.11
30.41
31.47
32.89
34.35
35.82
37.59
40.07
43.52
47.85
52.65
57.27
60.91
62.77
62.21
59.01
53.54
46.72
39.74
33.41
27.83
22.35
15.98
8.07
-1.25
-10.95
-19.67
-26.23
-30.20
-32.04
-32.88
-34.17
-37.08
-42.17
-49.14
-56.89
-63.75
-67.94
-68.12
-63.91
-56.07
-46.42
-37.26
-30.62
-27.59
-27.94
-30.34
-32.98
-34.32
-33.58
-30.78
-26.41
-20.85
-14.25
-6.59
1.86
10.21
17.06
21.11
21.78
19.59
16.10
13.12
11.94
12.75
14.68
16.43
17.09
16.57
15.55
15.00
15.49
16.93
18.70
20.10
20.75
20.70
20.09
18.84
16.56
12.72
7.23
0.77
-5.41
-10.02
-12.36
-12.57
-11.42
-9.76
-8.14
-6.66
-5.22
-3.72
-2.24
-0.99
-0.11
0.44
0.84
1.32
2.03
3.03
4.27
5.79
7.59
9.69
11.96
14.17
16.01
17.27
17.83
17.70
17.00
15.85
14.32
12.51
10.53
8.59
7.03
6.20
6.33
7.31
8.72
9.89
10.12
9.01
6.70
3.85
1.38
0.06
0.01
0.59
0.82
0.14
-1.03
-1.48
-0.06
3.32
7.26
9.52
8.26
3.03
-5.22
-15.02
-25.56
-37.02
-49.64
-62.41
-72.28
-75.22
-68.30
-52.03
-31.01
-12.18
-1.35
-0.24
-5.67
-11.59
-12.61
-7.01
2.72
11.89
16.80
16.93
14.88
14.16
16.74
21.69
26.02
26.74
22.87
15.93
8.80
3.93
2.03
2.12
2.46
1.74
-0.18
-2.44
-3.71
-3.18
-0.77
2.74
6.16
8.39
8.79
7.36
4.66
1.45
-1.55
-3.76
-4.94
-4.96
-3.81
-1.61
1.38
4.59
7.30
8.85
8.95
7.82
6.08
4.48
3.50
3.14
3.12
3.05
2.64
1.94
0.95
-0.54
-2.85
-6.07
-9.54
-11.87
-11.58
-8.02
-2.04
4.19
8.15
8.31
4.84
-0.49
-5.30
-7.67
-6.89
-3.50
1.21
5.81
9.22
10.95
11.14
10.33
9.11
7.75
5.96
2.99
-1.67
-7.78
-14.33
-19.86
-23.39
-24.83
-24.91
-24.43
-23.52
-21.49
-17.47
-11.36
-4.33
1.55
4.32
3.38
-0.10
-3.83
-5.60
-4.53
-1.41
1.92
3.92
4.18
3.61
3.72
5.46
8.52
11.42
12.44
10.84
7.43
4.26
3.41
5.78
10.40
14.87
16.57
13.99
7.42
-1.34
-9.99
-16.83
-21.32
-23.95
-25.61
-27.10
-28.82
-30.87
-33.22
-35.68
-37.88
-39.29
-39.55
-38.54
-36.64
-34.41
-32.26
-30.18
-27.70
-24.16
-19.20
-12.90
-5.76
1.58
8.64
15.19
21.08
26.11
29.96
32.30
33.00
32.27
30.62
28.69
26.98
25.74
24.94
24.37
23.75
22.82
21.51
19.93
18.38
17.28
17.03
17.84
19.57
21.78
23.88
25.31
25.81
25.44
24.53
23.51
22.70
22.24
22.18
22.45
22.99
23.64
24.04
23.75
22.45
20.20
17.55
15.40
14.48
14.86
15.76
15.85
13.99
9.93
4.57
-0.41
-3.39
-3.62
-1.55
1.58
4.42
6.23
7.14
7.86
9.03
10.82
12.68
13.73
13.22
11.02
7.75
4.51
2.40
2.05
3.32
5.47
7.48
8.50
8.18
6.70
4.64
2.60
1.01
-0.03
-0.69
-1.21
-1.76
-2.37
-3.00
-3.59
-4.13
-4.63
-5.04
-5.29
-5.37
-5.45
-5.96
-7.44
-10.27
-14.45
-19.48
-24.53
-28.82
-32.02
-34.35
-36.53
-39.33
-43.27
-48.33
-53.86
-58.72
-61.54
-61.06
-56.45
-47.56
-35.14
-20.75
-6.53
5.46
13.86
18.46
20.26
21.15
23.24
28.20
36.59
47.65
59.68
70.72
79.33
85.04
88.55
91.11
93.99
97.52
100.86
102.53
101.48
97.92
93.44
90.61
91.31
95.98
102.82
108.64
110.43
107.03
99.56
90.92
85.18
86.07
96.54
117.43
146.95
180.68
212.46
235.99
246.96
245.00
229.22
201.97
166.98
127.85
86.60
43.33
-1.27
-49.02
-99.49
-148.76
-189.65
-215.45
-221.98
-211.55
-191.96
-176.43
-178.01
-202.87
-247.66
-301.24
-350.74
-386.44
-403.90
-402.44
-382.77
-345.88
-293.28
-228.90
-159.32
-92.56
-34.76
11.62
47.94
76.78
99.33
114.10
117.50
106.43
80.69
44.44
5.10
-29.05
-51.88
-61.02
-57.51
-44.06
-21.93
7.03
40.96
77.33
112.37
141.36
160.17
166.99
163.02
151.78
137.37
122.59
108.00
92.09
72.18
45.86
11.88
-29.49
-76.63
-124.91
-168.92
-202.16
-218.18
-212.85
-186.35
-143.97
-94.58
-47.64
-9.97
15.90
31.49
40.23
44.98
46.95
46.18
42.73
37.70
33.02
30.40
30.45
32.37
34.33
34.28
31.13
25.08
17.48
10.07
4.09
-0.10
-3.16
-6.37
-11.03
-17.88
-26.83
-37.11
-47.74
-58.04
-67.86
-77.55
-87.78
-99.19
-111.98
-125.91
-140.26
-154.16
-166.85
-177.86
-186.66
-192.69
-195.24
-193.47
-186.70
-174.38
-156.40
-133.18
-105.67
-75.08
-42.73
-9.80
22.75
54.19
83.94
111.51
136.42
158.19
176.46
191.08
202.22
210.72
218.08
226.18
236.43
248.75
261.03
269.35
269.36
257.93
234.38
200.79
161.25
120.55
83.08
51.83
28.03
11.20
-0.41
-9.08
-16.81
-24.71
-33.01
-41.45
-49.58
-57.04
-63.48
-68.34
-70.96
-71.05
-69.26
-67.08
-66.30
-67.91
-71.53
-75.77
-79.48
-82.89
-87.50
-94.47
-102.63
-107.63
-103.63
-86.49
-56.70
-20.23
13.79
37.05
45.58
41.05
29.16
16.34
6.72
1.16
-1.84
-4.31
-7.13
-9.67
-10.43
-8.21
-2.95
4.05
10.45
13.95
13.52
10.03
6.11
4.81
7.99
15.19
23.72
29.96
31.07
26.55
18.19
9.22
2.67
0.10
1.28
4.75
8.88
12.80
16.66
21.19
26.92
33.56
39.91
44.34
45.61
43.47
38.80
33.17
28.01
24.07
21.20
18.74
16.19
13.68
11.95
11.84
13.58
16.40
18.72
18.86
16.11
11.19
5.91
2.24
1.21
2.42
4.39
5.47
4.71
2.23
-1.07
-4.31
-7.19
-10.13
-13.92
-19.14
-25.69
-32.75
-39.16
-43.95
-46.78
-48.03
-48.57
-49.21
-50.23
-50.99
-50.16
-46.40
-39.36
-30.17
-21.17
-14.79
-12.21
-12.60
-13.48
-12.10
-6.92
1.55
11.11
19.28
24.57
27.18
28.50
29.99
32.31
34.95
36.84
37.14
35.86
33.79
31.96
31.01
30.75
30.30
28.62
25.17
20.23
14.81
10.07
6.82
5.09
4.21
3.22
1.44
-1.14
-3.93
-6.03
-6.88
-6.50
-5.56
-5.03
-5.64
-7.45
-9.81
-11.71
-12.32
-11.53
-9.95
-8.65
-8.53
-9.77
-11.72
-13.25
-13.37
-11.81
-9.22
-6.71
-5.35
-5.52
-6.73
-7.87
-7.86
-6.24
-3.40
-0.48
1.34
1.41
0.03
-1.70
-2.59
-1.92
0.08
2.42
4.03
4.39
3.88
3.53
4.24
6.07
8.10
8.88
7.32
3.51
-1.16
-4.70
-5.58
-3.61
-0.23
2.35
2.18
-1.28
-6.82
-12.18
-15.26
-15.29
-13.15
-10.86
-10.21
-11.73
-14.36
-16.04
-15.19
-11.61
-6.73
-2.92
-1.97
-4.11
-7.79
-10.57
-10.58
-7.55
-3.05
0.52
1.21
-1.26
-5.35
-8.61
-9.03
-6.31
-2.01
1.40
1.91
-0.72
-4.81
-7.74
-7.47
-3.76
1.69
6.22
7.77
6.05
2.67
0.11
0.15
2.84
6.47
8.64
7.82
4.27
0.01
-2.39
-1.33
2.87
8.15
11.89
12.35
9.77
6.11
3.84
4.51
7.73
11.40
12.89
10.54
4.72
-2.36
-7.80
-9.56
-7.53
-3.50
-0.14
0.52
-1.87
-5.85
-9.10
-9.90
-8.05
-5.03
-3.07
-3.84
-7.40
-12.13
-15.64
-16.11
-13.34
-8.84
-5.02
-3.73
-5.17
-7.76
-9.08
-7.38
-2.73
2.89
6.51
5.95
1.11
-5.92
-11.93
-14.38
-12.91
-9.38
-6.81
-7.72
-12.53
-19.43
-25.55
-28.57
-28.19
-26.37
-26.09
-29.86
-38.29
-49.65
-60.69
-67.94
-69.04
-63.57
-53.12
-40.41
-28.14
-17.91
-9.79
-2.81
4.00
10.91
17.05
21.19
23.03
23.65
24.91
27.72
30.21
28.18
17.58
-2.17
-25.83
-43.80
-46.45
-29.19
4.51
44.38
78.20
97.27
99.62
89.67
74.55
60.15
48.95
40.30
32.50
25.02
19.05
16.74
19.54
26.80
35.46
41.38
41.09
33.54
20.92
7.58
-1.86
-4.70
-1.45
4.62
9.35
9.75
5.55
-0.95
-6.60
-9.08
-8.30
-6.27
-5.51
-7.60
-12.06
-16.67
-18.87
-17.38
-12.81
-7.35
-3.62
-2.96
-4.94
-7.70
-9.01
-7.73
-4.50
-1.15
0.26
-1.30
-4.96
-8.59
-9.89
-7.65
-2.52
3.31
7.36
8.13
5.83
2.28
-0.35
-0.64
1.37
4.20
5.99
5.55
3.05
-0.10
-2.01
-1.51
1.28
4.98
7.70
8.12
6.22
3.22
0.77
0.06
1.03
2.57
3.24
2.14
-0.43
-3.23
-4.86
-4.58
-2.77
-0.66
0.43
-0.13
-1.95
-3.85
-4.63
-3.79
-1.80
0.16
0.93
0.07
-1.87
-3.64
-4.09
-2.86
-0.63
1.23
1.51
-0.13
-2.81
-4.91
-4.98
-2.59
1.36
5.18
7.30
7.17
5.62
4.24
4.39
6.36
9.10
10.83
10.13
6.79
2.02
-2.15
-3.97
-2.86
0.28
3.57
5.19
4.31
1.52
-1.56
-3.14
-2.34
0.33
3.33
4.81
3.74
0.53
-3.30
-5.98
-6.49
-5.22
-3.65
-3.29
-4.77
-7.33
-9.27
-9.03
-6.27
-2.16
1.18
1.73
-1.17
-6.50
-12.01
-15.33
-15.12
-11.71
-6.73
-2.23
0.37
1.02
0.80
1.21
3.13
6.20
9.04
10.07
8.46
4.79
0.81
-1.64
-1.61
0.44
2.81
3.72
2.35
-0.65
-3.58
-4.72
-3.47
-0.77
1.47
1.35
-1.88
-7.36
-13.10
-17.06
-18.19
-16.99
-15.10
-14.37
-15.81
-18.98
-22.32
-24.09
-23.29
-20.24
-16.18
-12.32
-8.97
-5.30
-0.03
7.45
16.23
24.14
28.85
29.08
25.39
19.82
14.79
11.98
11.77
13.51
16.27
19.43
22.83
26.48
30.20
33.46
35.52
35.76
34.00
30.57
26.26
22.10
19.04
17.60
17.60
18.16
17.97
15.94
11.70
5.85
-0.26
-5.23
-8.27
-9.63
-10.32
-11.57
-13.94
-16.96
-19.42
-20.02
-18.31
-15.01
-11.69
-9.94
-10.45
-12.54
-14.62
-15.09
-13.24
-9.72
-6.17
-4.18
-4.41
-6.23
-8.03
-8.33
-6.61
-3.64
-1.06
-0.40
-2.13
-5.35
-8.27
-9.25
-7.73
-4.62
-1.64
-0.38
-1.34
-3.57
-5.34
-5.17
-2.71
0.98
3.97
4.66
2.67
-0.94
-4.16
-5.30
-3.88
-0.91
1.63
2.00
-0.23
-3.99
-7.22
-8.09
-6.09
-2.31
1.22
2.62
1.28
-1.83
-4.84
-6.03
-4.82
-2.08
0.48
1.30
-0.14
-2.94
-5.30
-5.67
-3.57
0.07
3.36
4.60
3.24
0.21
-2.56
-3.32
-1.54
1.77
4.69
5.42
3.44
-0.17
-3.42
-4.55
-3.04
-0.05
2.44
2.73
0.47
-3.05
-5.66
-5.68
-2.86
1.33
4.50
4.80
1.97
-2.53
-6.28
-7.44
-5.72
-2.53
-0.07
-0.05
-2.56
-6.11
-8.55
-8.27
-5.27
-1.12
1.97
2.34
-0.11
-3.84
-6.68
-6.99
-4.56
-0.74
2.44
3.48
2.22
-0.01
-1.27
-0.18
3.24
7.51
10.50
10.64
7.90
3.72
0.37
-0.40
1.72
5.54
9.12
10.79
10.20
8.34
6.79
6.81
8.43
10.46
11.33
9.95
6.50
2.39
-0.62
-1.44
-0.15
1.88
2.90
1.83
-1.16
-4.70
-6.95
-6.78
-4.32
-0.91
1.55
1.78
-0.14
-2.92
-4.73
-4.25
-1.52
2.15
4.97
5.58
3.95
1.35
-0.50
-0.34
1.89
4.96
7.23
7.58
5.98
3.65
2.18
2.59
4.78
7.56
9.26
8.83
6.34
2.91
0.20
-0.67
0.33
2.22
3.56
3.27
1.32
-1.38
-3.55
-4.24
-3.40
-1.92
-1.02
-1.61
-3.73
-6.56
-8.88
-9.85
-9.38
-8.20
-7.41
-7.73
-9.13
-10.87
-11.90
-11.60
-10.17
-8.53
-7.75
-8.43
-10.17
-11.75
-11.83
-9.65
-5.58
-1.09
1.92
2.08
-0.86
-5.83
-10.90
-14.09
-14.12
-10.84
-5.20
1.30
7.25
11.76
14.64
16.18
16.72
16.40
15.17
12.99
10.23
7.66
6.16
6.24
7.55
8.93
9.06
7.17
3.76
0.36
-1.22
-0.01
3.49
7.47
9.68
8.81
5.24
0.89
-1.94
-1.90
0.67
3.89
5.57
4.49
1.23
-2.22
-3.70
-2.17
1.60
5.45
7.06
5.30
0.88
-4.04
-7.09
-7.00
-4.33
-1.04
0.61
-0.51
-3.71
-6.94
-8.01
-6.01
-1.86
2.13
3.66
1.82
-2.37
-6.45
-7.99
-6.00
-1.54
2.87
4.63
2.50
-2.67
-8.44
-12.04
-11.83
-8.20
-3.14
0.72
1.65
-0.35
-3.69
-6.22
-6.52
-4.70
-2.31
-1.28
-2.74
-6.21
-9.83
-11.49
-10.08
-6.15
-1.71
1.05
0.89
-1.74
-4.97
-6.71
-5.74
-2.51
1.33
3.81
3.80
1.81
-0.55
-1.37
0.24
3.62
6.89
7.97
6.05
2.06
-1.67
-2.85
-0.74
3.36
6.62
6.48
2.21
-4.49
-10.35
-12.46
-9.94
-4.46
0.68
2.54
0.10
-5.28
-10.78
-13.78
-13.22
-10.03
-6.18
-3.60
-2.98
-3.57
-3.86
-2.49
0.86
5.32
9.38
11.67
11.79
10.38
8.92
8.77
10.48
13.53
16.53
18.02
17.30
14.80
11.78
9.63
9.04
9.63
10.27
9.80
7.88
5.22
3.19
2.96
4.75
7.63
10.02
10.58
8.90
5.71
2.32
-0.16
-1.43
-2.00
-2.69
-4.04
-5.86
-7.47
-8.09
-7.44
-5.96
-4.58
-4.21
-5.15
-7.00
-8.72
-9.26
-8.06
-5.37
-2.15
0.40
1.42
0.83
-0.67
-2.01
-2.33
-1.44
0.08
1.34
1.66
1.06
0.23
0.10
1.28
3.60
6.17
7.86
7.90
6.33
3.98
2.06
1.52
2.57
4.53
6.25
6.65
5.34
2.78
0.05
-1.79
-2.20
-1.47
-0.44
0.03
-0.46
-1.57
-2.44
-2.32
-0.97
0.98
2.40
2.13
-0.32
-4.49
-9.15
-12.92
-14.99
-15.44
-15.10
-14.97
-15.55
-16.56
-17.16
-16.57
-14.67
-12.18
-10.23
-9.77
-10.80
-12.40
-13.15
-11.97
-8.74
-4.44
-0.59
1.47
1.41
0.02
-1.17
-0.85
1.46
5.03
8.38
10.13
9.74
7.83
5.72
4.58
4.73
5.41
5.27
3.35
-0.23
-4.15
-6.62
-6.44
-3.80
-0.28
2.02
1.71
-1.06
-4.56
-6.52
-5.36
-1.14
4.51
9.28
11.44
10.75
8.45
6.46
6.24
7.97
10.52
12.22
11.80
9.19
5.50
2.34
0.91
1.34
2.72
3.73
3.48
2.01
0.28
-0.51
0.32
2.47
4.80
5.93
5.11
2.61
-0.36
-2.32
-2.39
-0.70
1.63
3.17
2.95
1.06
-1.47
-3.21
-3.17
-1.41
1.02
2.61
2.25
-0.16
-3.69
-6.93
-8.70
-8.74
-7.78
-7.07
-7.71
-10.00
-13.35
-16.60
-18.66
-19.10
-18.35
-17.46
-17.48
-18.96
-21.63
-24.53
-26.45
-26.61
-24.92
-22.01
-18.80
-15.93
-13.53
-11.21
-8.53
-5.40
-2.23
0.41
2.48
4.84
8.93
15.79
24.83
33.24
36.89
32.30
18.78
-0.48
-19.47
-31.94
-34.44
-27.89
-16.91
-7.26
-2.83
-4.07
-8.35
-12.03
-12.74
-10.45
-6.90
-3.96
-2.23
-0.66
2.45
8.15
15.76
23.10
27.63
27.84
24.12
18.61
14.05
12.49
14.37
18.46
22.55
24.66
23.83
20.49
16.13
12.49
10.76
11.04
12.41
13.44
13.01
10.84
7.62
4.56
2.71
2.50
3.60
5.21
6.55
7.24
7.38
7.23
7.05
6.91
6.83
6.99
7.76
9.62
12.68
16.56
20.36
23.20
24.74
25.52
27.08
31.50
40.59
55.16
74.11
93.96
109.14
113.49
102.78
77.13
41.87
5.97
-21.54
-35.52
-36.69
-30.63
-24.36
-22.45
-25.13
-29.23
-31.04
-29.08
-24.98
-22.07
-22.95
-27.73
-34.07
-38.69
-39.41
-36.22
-31.01
-26.47
-24.44
-25.00
-26.71
-27.46
-25.79
-21.69
-16.52
-12.25
-10.34
-10.94
-12.93
-14.61
-14.65
-12.75
-9.66
-6.68
-4.83
-4.36
-4.81
-5.41
-5.62
-5.42
-5.16
-5.24
-5.72
-6.26
-6.36
-5.73
-4.55
-3.45
-3.16
-4.07
-5.96
-8.02
-9.23
-8.94
-7.25
-5.04
-3.52
-3.59
-5.31
-7.80
-9.72
-10.04
-8.56
-6.09
-3.97
-3.39
-4.70
-7.27
-9.88
-11.38
-11.25
-9.85
-8.06
-6.73
-6.19
-6.05
-5.50
-3.79
-0.69
3.45
7.96
12.31
16.39
20.44
24.70
28.93
32.27
33.49
31.70
26.94
20.43
14.04
9.42
7.13
6.40
5.55
3.06
-1.61
-7.65
-13.25
-16.67
-17.04
-14.80
-11.41
-8.52
-7.12
-7.23
-8.02
-8.42
-7.84
-6.35
-4.55
-3.07
-2.09
-1.11
0.65
3.77
8.14
12.89
16.87
19.41
20.80
22.33
25.52
31.05
37.94
44.10
47.15
46.01
41.86
37.72
36.94
41.50
51.32
64.64
79.26
93.37
105.16
112.09
110.56
96.92
69.33
29.07
-19.60
-70.88
-119.38
-161.02
-192.65
-211.12
-213.00
-195.67
-159.37
-108.70
-52.31
-0.52
37.99
58.89
62.78
54.29
39.63
24.35
11.98
3.60
-1.39
-4.25
-5.73
-5.95
-4.78
-2.40
0.27
1.92
1.55
-0.94
-4.68
-8.43
-11.21
-12.70
-13.06
-12.57
-11.22
-8.71
-4.76
0.51
6.55
12.51
17.75
21.91
24.77
26.05
25.31
22.32
17.37
11.45
5.90
1.68
-1.01
-2.86
-4.91
-7.89
-11.83
-16.11
-19.84
-22.27
-22.99
-21.96
-19.39
-15.70
-11.55
-7.68
-4.67
-2.64
-1.25
0.07
1.66
3.40
4.83
5.42
5.04
4.10
3.29
3.11
3.48
3.77
3.14
1.15
-1.82
-4.69
-6.20
-5.70
-3.55
-1.07
0.21
-0.64
-3.40
-6.72
-8.95
-8.98
-6.92
-4.00
-1.89
-1.77
-3.70
-6.65
-9.10
-9.88
-8.75
-6.41
-4.08
-2.84
-3.13
-4.64
-6.62
-8.32
-9.42
-10.06
-10.65
-11.56
-12.81
-14.11
-15.08
-15.52
-15.55
-15.50
-15.62
-15.78
-15.46
-13.99
-10.87
-6.20
-0.67
4.68
8.87
11.39
12.37
12.37
12.10
12.06
12.34
12.67
12.69
12.22
11.40
10.65
10.44
10.89
11.67
12.09
11.50
9.71
7.21
5.01
4.15
5.15
7.68
10.71
13.06
14.02
13.72
13.03
12.97
14.04
15.85
17.27
17.05
14.52
10.03
4.74
0.03
-3.19
-4.90
-5.80
-6.78
-8.39
-10.49
-12.52
-13.95
-14.68
-15.20
-16.26
-18.40
-21.47
-24.62
-26.59
-26.35
-23.74
-19.63
-15.72
-13.68
-14.40
-17.40
-21.05
-23.36
-23.02
-20.09
-15.95
-12.53
-11.14
-11.78
-13.18
-13.64
-12.10
-8.73
-4.81
-1.88
-0.76
-1.10
-1.56
-0.71
2.07
6.21
10.21
12.55
12.55
10.84
8.97
8.58
10.48
14.26
18.57
21.91
23.48
23.62
23.49
24.34
26.78
30.42
34.11
36.68
37.50
36.77
35.17
33.33
31.34
28.76
25.00
19.85
13.79
7.98
3.65
1.59
1.70
3.06
4.36
4.53
3.22
0.96
-1.20
-2.27
-1.88
-0.52
0.75
0.83
-0.69
-3.27
-5.67
-6.66
-5.71
-3.35
-0.87
0.39
-0.16
-2.02
-3.93
-4.71
-4.08
-2.88
-2.55
-4.16
-7.59
-11.43
-13.81
-13.42
-10.35
-6.10
-2.74
-1.74
-3.26
-6.08
-8.41
-8.90
-7.30
-4.51
-1.95
-0.74
-1.11
-2.42
-3.55
-3.63
-2.57
-1.03
-0.02
-0.31
-1.87
-3.91
-5.33
-5.30
-3.75
-1.42
0.53
1.15
0.18
-1.80
-3.70
-4.54
-3.95
-2.38
-0.80
-0.07
-0.42
-1.32
-1.82
-1.15
0.72
3.07
4.78
5.06
3.90
2.09
0.71
0.45
1.14
1.83
1.36
-0.84
-4.26
-7.48
-8.89
-7.63
-4.17
-0.15
2.48
2.52
0.16
-3.12
-5.43
-5.45
-3.12
0.43
3.60
5.15
4.80
3.29
1.78
1.27
2.07
3.73
5.40
6.26
5.95
4.72
3.24
2.17
1.85
2.11
2.42
2.24
1.44
0.34
-0.43
-0.40
0.40
1.43
1.92
1.40
0.12
-1.05
-1.06
0.57
3.37
6.04
7.16
6.04
3.25
0.32
-1.12
-0.35
1.97
4.11
4.24
1.61
-2.98
-7.58
-10.12
-9.66
-6.90
-3.74
-2.28
-3.52
-6.89
-10.61
-12.81
-12.50
-10.18
-7.29
-5.39
-5.15
-6.02
-6.69
-5.95
-3.54
-0.34
2.16
2.70
1.07
-1.68
-3.76
-3.70
-1.06
3.07
6.76
8.14
6.41
2.41
-1.94
-4.65
-4.77
-2.92
-0.83
-0.30
-2.07
-5.36
-8.25
-8.92
-6.64
-2.31
2.05
4.55
4.40
2.40
0.41
0.06
1.89
4.94
7.44
7.95
6.21
3.34
1.14
0.90
2.68
5.16
6.46
5.33
1.85
-2.54
-5.80
-6.52
-4.64
-1.50
0.92
1.18
-0.85
-3.94
-6.26
-6.46
-4.43
-1.21
1.59
2.81
2.35
1.07
0.24
0.71
2.50
4.82
6.51
6.80
5.60
3.55
1.68
0.78
1.09
2.18
3.17
3.23
2.02
-0.14
-2.42
-3.93
-4.16
-3.24
-1.83
-0.76
-0.59
-1.37
-2.64
-3.74
-4.12
-3.64
-2.52
-1.18
0.04
1.14
2.33
3.82
5.56
7.09
7.74
7.01
4.95
2.27
-0.01
-1.04
-0.64
0.60
1.65
1.63
0.28
-1.86
-3.84
-4.78
-4.43
-3.23
-2.05
-1.62
-2.06
-2.85
-3.15
-2.34
-0.48
1.68
3.13
3.14
1.76
-0.18
-1.49
-1.34
0.35
2.76
4.70
5.22
4.15
2.17
0.38
-0.33
0.19
1.29
1.87
1.07
-1.19
-4.16
-6.61
-7.55
-6.66
-4.50
-2.11
-0.41
0.26
0.25
0.29
0.95
2.35
4.03
5.35
5.85
5.56
4.91
4.41
4.29
4.34
4.01
2.82
0.67
-1.97
-4.24
-5.29
-4.78
-3.01
-0.88
0.60
0.78
-0.31
-1.98
-3.28
-3.50
-2.56
-0.95
0.57
1.50
1.86
2.03
2.43
3.16
3.91
4.18
3.75
2.81
1.91
1.58
1.96
2.68
3.11
2.77
1.60
0.02
-1.32
-1.93
-1.72
-1.00
-0.30
-0.07
-0.47
-1.36
-2.34
-2.95
-2.87
-2.09
-0.93
0.06
0.41
-0.02
-0.89
-1.46
-1.03
0.65
3.09
5.27
6.08
4.96
2.21
-1.10
-3.70
-4.75
-4.23
-2.86
-1.66
-1.34
-2.03
-3.26
-4.32
-4.62
-4.03
-2.80
-1.49
-0.58
-0.31
-0.58
-0.98
-1.01
-0.36
0.93
2.39
3.32
3.22
2.01
0.16
-1.55
-2.46
-2.41
-1.86
-1.57
-2.14
-3.66
-5.64
-7.34
-8.13
-7.92
-7.13
-6.42
-6.27
-6.72
-7.41
-7.74
-7.28
-5.89
-3.77
-1.15
1.85
5.29
9.12
12.92
15.85
16.92
15.61
12.26
8.19
5.01
3.81
4.52
6.01
6.76
5.85
3.42
0.56
-1.48
-2.14
-1.80
-1.46
-1.88
-2.93
-3.58
-2.56
0.69
5.36
9.51
10.95
8.47
2.56
-4.70
-10.56
-12.96
-11.43
-7.24
-2.66
0.22
0.46
-1.41
-3.88
-5.39
-5.20
-3.72
-2.23
-2.08
-3.87
-7.05
-10.22
-11.80
-10.90
-7.67
-3.18
1.26
4.76
7.19
8.95
10.49
11.82
12.43
11.62
9.08
5.17
0.95
-2.24
-3.43
-2.42
0.07
2.73
4.20
3.68
1.22
-2.22
-5.24
-6.59
-5.73
-3.04
0.37
3.22
4.70
4.79
4.16
3.66
3.80
4.44
4.95
4.66
3.32
1.34
-0.49
-1.42
-1.26
-0.36
0.57
0.97
0.71
0.09
-0.52
-1.06
-1.81
-3.21
-5.40
-7.95
-9.92
-10.39
-8.88
-5.75
-1.94
1.48
3.82
4.98
5.38
5.49
5.55
5.39
4.68
3.18
1.04
-1.20
-2.76
-3.01
-1.77
0.54
2.96
4.35
3.83
1.28
-2.52
-6.12
-7.97
-7.20
-4.03
0.28
4.00
5.85
5.58
4.04
2.63
2.39
3.42
4.81
5.21
3.69
0.43
-3.33
-5.85
-5.87
-3.27
0.75
4.29
5.64
4.10
0.23
-4.52
-8.57
-10.92
-11.46
-10.71
-9.33
-7.56
-5.19
-1.86
2.40
6.84
10.18
11.24
9.57
5.85
1.53
-1.80
-3.24
-2.86
-1.59
-0.58
-0.53
-1.38
-2.45
-3.06
-2.99
-2.67
-2.89
-4.26
-6.72
-9.31
-10.52
-9.00
-4.31
2.62
9.69
14.51
15.39
12.18
6.35
0.27
-3.87
-4.96
-3.34
-0.31
2.72
5.05
6.87
8.71
10.68
12.03
11.43
7.84
1.41
-6.22
-12.52
-15.27
-13.75
-9.12
-3.78
-0.14
0.62
-1.06
-3.60
-5.34
-5.49
-4.43
-3.17
-2.49
-2.37
-1.87
0.12
4.12
9.45
14.38
16.90
15.69
10.87
3.97
-2.72
-7.11
-8.23
-6.51
-3.42
-0.69
0.53
0.20
-0.84
-1.35
-0.55
1.47
3.81
5.28
5.10
3.43
1.25
-0.18
-0.02
1.71
4.11
5.95
6.28
4.92
2.43
-0.30
-2.57
-4.20
-5.42
-6.58
-7.76
-8.68
-8.86
-8.05
-6.47
-4.86
-4.07
-4.62
-6.31
-8.27
-9.40
-8.92
-6.75
-3.52
-0.07
3.03
5.79
8.62
11.85
15.28
17.93
18.54
16.16
10.85
3.87
-2.70
-6.85
-7.47
-4.85
-0.52
3.45
5.30
4.39
1.34
-2.35
-5.03
-5.73
-4.46
-2.14
0.05
1.31
1.59
1.47
1.72
2.69
4.03
4.84
4.25
1.93
-1.58
-5.12
-7.44
-7.91
-6.76
-4.97
-3.64
-3.40
-4.04
-4.82
-4.89
-4.07
-2.91
-2.43
-3.36
-5.56
-7.92
-8.95
-7.58
-3.85
1.05
5.42
8.02
8.58
7.87
6.98
6.63
6.66
6.36
4.96
2.41
-0.59
-2.73
-2.97
-0.99
2.43
5.84
7.64
6.99
4.09
0.28
-2.74
-3.59
-2.04
1.00
3.89
5.29
4.85
3.52
2.79
3.87
6.57
9.51
10.65
8.71
3.94
-1.77
-6.00
-7.07
-5.14
-2.01
-0.19
-1.31
-5.15
-9.79
-12.84
-12.85
-10.32
-7.23
-5.88
-7.36
-10.83
-14.04
-14.68
-11.75
-6.25
-0.49
3.26
4.13
3.04
2.12
3.18
6.68
11.20
14.39
14.17
10.09
3.61
-2.59
-5.99
-5.55
-2.19
1.78
3.89
2.79
-1.08
-5.82
-9.13
-9.53
-7.04
-3.05
0.50
2.16
1.70
0.06
-1.31
-1.35
0.04
2.03
3.42
3.44
2.25
0.85
0.42
1.58
3.93
6.22
7.04
5.63
2.35
-1.54
-4.50
-5.61
-4.92
-3.40
-2.19
-1.98
-2.56
-3.07
-2.58
-0.76
1.88
4.25
5.36
4.90
3.54
2.45
2.67
4.34
6.63
8.10
7.61
4.95
1.12
-2.26
-3.76
-2.89
-0.40
2.20
3.45
2.66
0.29
-2.42
-4.11
-4.07
-2.54
-0.54
0.87
1.12
0.55
0.00
0.34
1.81
3.90
5.57
5.91
4.62
2.15
-0.61
-2.77
-3.93
-4.23
-4.20
-4.33
-4.82
-5.48
-5.94
-5.86
-5.24
-4.37
-3.72
-3.64
-4.16
-4.89
-5.24
-4.73
-3.24
-1.17
0.70
1.65
1.36
0.18
-0.99
-1.17
0.16
2.71
5.40
6.99
6.65
4.56
1.74
-0.46
-1.13
-0.20
1.48
2.81
2.95
1.86
0.09
-1.49
-2.30
-2.26
-1.74
-1.18
-0.81
-0.46
0.22
1.47
3.19
4.89
5.97
6.03
5.16
3.90
2.93
2.67
3.07
3.59
3.55
2.55
0.68
-1.40
-2.91
-3.31
-2.66
-1.52
-0.67
-0.61
-1.31
-2.24
-2.67
-2.17
-0.82
0.83
2.08
2.47
2.01
1.20
0.70
1.00
2.15
3.69
4.83
4.78
3.16
0.12
-3.61
-7.07
-9.44
-10.36
-10.02
-8.95
-7.66
-6.39
-5.08
-3.58
-1.97
-0.73
-0.50
-1.74
-4.22
-7.03
-8.89
-8.81
-6.65
-3.13
0.54
3.38
5.22
6.73
8.85
11.98
15.50
17.88
17.49
13.56
6.78
-0.97
-7.45
-11.22
-12.31
-12.06
-12.24
-13.98
-17.05
-19.96
-20.85
-18.54
-13.25
-6.58
-0.64
2.97
4.03
3.69
3.69
5.28
8.42
11.80
13.63
12.74
9.37
5.10
1.88
0.96
2.17
4.11
5.10
4.22
1.93
-0.20
-0.45
2.04
6.68
11.75
15.14
15.49
12.87
8.71
5.03
3.33
3.79
5.09
5.27
2.88
-1.96
-7.55
-11.36
-11.52
-7.81
-1.85
3.82
7.13
7.53
6.10
4.70
4.74
6.34
8.23
8.67
6.45
1.73
-4.11
-9.11
-11.84
-12.01
-10.51
-8.79
-7.96
-8.21
-8.85
-8.76
-7.22
-4.30
-0.86
1.99
3.56
4.07
4.44
5.70
8.18
11.14
12.98
12.10
7.85
1.06
-6.20
-11.62
-13.67
-12.30
-8.80
-4.98
-2.29
-1.16
-1.13
-1.35
-1.25
-0.83
-0.56
-0.93
-2.06
-3.48
-4.39
-4.07
-2.32
0.39
3.14
4.99
5.45
4.73
3.62
3.01
3.43
4.74
6.19
6.86
6.18
4.26
1.80
-0.30
-1.45
-1.73
-1.77
-2.30
-3.71
-5.74
-7.69
-8.81
-8.76
-7.77
-6.39
-5.13
-4.09
-2.92
-1.10
1.69
5.24
8.80
11.35
12.11
10.89
8.28
5.42
3.40
2.78
3.25
3.90
3.76
2.42
0.33
-1.44
-1.87
-0.58
1.93
4.60
6.34
6.63
5.60
3.79
1.81
-0.02
-1.69
-3.33
-4.95
-6.34
-7.14
-7.09
-6.17
-4.76
-3.42
-2.70
-2.83
-3.52
-4.12
-3.88
-2.38
0.17
2.92
4.73
4.70
2.65
-0.73
-4.19
-6.51
-7.15
-6.51
-5.62
-5.51
-6.50
-7.99
-8.80
-8.01
-5.56
-2.45
-0.08
0.50
-0.67
-2.57
-3.75
-3.30
-1.32
1.20
3.05
3.49
2.66
1.34
0.42
0.37
1.06
1.92
2.41
2.31
1.88
1.73
2.46
4.39
7.31
10.57
13.27
14.75
14.93
14.38
13.98
14.38
15.50
16.42
15.85
12.89
7.64
1.32
-4.38
-8.17
-9.83
-10.27
-10.94
-12.90
-16.23
-20.02
-23.02
-24.33
-23.96
-22.61
-21.11
-19.79
-18.27
-15.68
-11.37
-5.42
1.21
7.08
11.03
12.73
12.97
13.20
14.74
18.00
22.14
25.38
25.91
22.86
16.80
9.49
2.98
-1.40
-3.66
-4.83
-6.25
-8.62
-11.63
-14.17
-15.14
-14.03
-11.28
-7.93
-5.00
-3.02
-1.77
-0.58
1.20
3.69
6.41
8.42
8.88
7.57
5.03
2.39
0.75
0.55
1.36
2.09
1.65
-0.45
-3.78
-7.26
-9.77
-10.71
-10.30
-9.29
-8.51
-8.28
-8.31
-7.88
-6.35
-3.59
-0.13
3.11
5.28
6.10
6.05
6.10
7.19
9.60
12.72
15.31
16.04
14.30
10.53
6.02
2.30
0.30
-0.04
0.30
0.09
-1.45
-4.16
-7.17
-9.35
-10.01
-9.19
-7.55
-5.92
-4.75
-3.99
-3.13
-1.73
0.33
2.66
4.60
5.61
5.57
4.83
4.01
3.58
3.62
3.78
3.54
2.52
0.77
-1.20
-2.76
-3.49
-3.45
-3.17
-3.35
-4.44
-6.39
-8.61
-10.29
-10.81
-10.00
-8.23
-6.17
-4.41
-3.15
-2.08
-0.63
1.66
4.74
7.99
10.42
11.23
10.25
8.11
5.90
4.64
4.63
5.36
5.83
5.14
3.05
0.11
-2.69
-4.51
-5.05
-4.64
-3.94
-3.50
-3.42
-3.36
-2.82
-1.52
0.40
2.36
3.65
3.78
2.82
1.32
0.07
-0.29
0.37
1.61
2.74
3.12
2.58
1.45
0.36
-0.12
0.15
0.79
1.11
0.44
-1.31
-3.66
-5.64
-6.36
-5.55
-3.68
-1.74
-0.70
-0.86
-1.67
-2.08
-1.10
1.42
4.69
7.29
7.94
6.26
2.96
-0.51
-2.74
-3.18
-2.22
-0.95
-0.38
-0.78
-1.65
-2.11
-1.64
-0.58
0.15
-0.41
-2.49
-5.25
-7.25
-7.21
-4.79
-0.95
2.70
4.63
4.37
2.67
1.03
0.84
2.48
5.11
7.18
7.34
5.32
2.20
-0.28
-0.65
1.27
4.14
5.96
5.13
1.51
-3.45
-7.62
-9.32
-8.31
-5.83
-3.76
-3.51
-5.19
-7.62
-9.11
-8.39
-5.36
-1.06
2.95
5.35
5.73
4.63
3.11
2.18
2.13
2.54
2.64
1.83
0.18
-1.57
-2.47
-1.94
-0.20
1.80
2.88
2.27
0.10
-2.68
-4.74
-5.05
-3.35
-0.24
3.14
5.69
6.81
6.60
5.72
4.95
4.73
5.03
5.32
5.06
3.99
2.34
0.68
-0.45
-0.90
-1.05
-1.48
-2.65
-4.48
-6.40
-7.70
-7.93
-7.18
-6.03
-5.16
-4.95
-5.26
-5.52
-5.05
-3.50
-1.00
1.80
4.14
5.39
5.40
4.56
3.51
2.81
2.63
2.62
2.20
0.92
-1.13
-3.34
-4.86
-5.11
-4.13
-2.65
-1.63
-1.75
-2.97
-4.52
-5.34
-4.67
-2.49
0.48
3.15
4.65
4.73
3.86
2.88
2.49
2.87
3.56
3.87
3.30
1.96
0.53
-0.24
-0.04
0.70
1.05
0.18
-2.03
-4.80
-6.88
-7.28
-5.85
-3.38
-1.15
-0.16
-0.71
-2.22
-3.62
-3.84
-2.25
0.87
4.47
6.98
7.13
4.67
0.76
-2.44
-2.96
-0.29
4.20
7.85
8.40
5.38
0.58
-3.18
-3.77
-1.16
2.69
5.20
4.87
2.28
-0.62
-1.83
-0.72
1.74
3.72
3.80
1.88
-0.85
-2.64
-2.23
0.58
4.76
8.62
10.61
10.04
7.60
5.16
4.83
7.58
12.28
15.90
15.17
8.73
-1.43
-10.76
-14.71
-11.57
-3.70
3.94
6.92
4.09
-1.86
-6.42
-6.37
-1.77
4.32
8.03
7.17
2.31
-3.84
-8.31
-9.42
-7.47
-4.17
-1.66
-1.49
-3.99
-8.20
-12.30
-14.49
-13.90
-11.08
-7.68
-5.45
-5.06
-5.67
-5.45
-2.85
2.30
8.57
13.69
15.86
14.68
11.34
7.89
6.13
6.71
8.95
11.23
11.96
10.38
6.91
2.92
-0.16
-1.61
-1.76
-1.71
-2.45
-4.16
-6.05
-6.87
-5.77
-2.93
0.49
2.98
3.51
2.02
-0.56
-2.89
-3.90
-3.35
-1.92
-0.87
-1.30
-3.54
-6.87
-9.90
-11.29
-10.61
-8.61
-6.78
-6.49
-8.08
-10.70
-12.82
-13.22
-11.71
-9.18
-6.97
-6.10
-6.64
-7.83
-8.57
-8.06
-6.19
-3.52
-0.96
0.74
1.25
0.90
0.48
0.79
2.24
4.45
6.40
6.95
5.59
2.92
0.43
-0.32
1.34
4.67
7.80
8.91
7.32
3.97
0.94
0.12
1.99
5.25
7.46
6.56
2.26
-3.60
-7.88
-7.87
-2.91
5.09
12.47
15.89
14.15
8.93
3.86
2.31
5.44
11.41
16.42
17.08
12.46
4.80
-1.82
-3.96
-0.89
4.97
9.40
9.11
3.71
-3.94
-9.37
-9.34
-3.82
3.89
8.92
7.88
0.88
-8.35
-14.51
-13.99
-6.91
2.81
9.60
9.63
3.00
-6.26
-12.51
-11.98
-5.00
4.09
9.41
7.17
-2.05
-13.45
-20.65
-19.57
-10.74
0.96
8.97
9.10
1.86
-7.79
-13.35
-10.80
-0.94
10.96
18.24
16.82
7.60
-4.10
-11.60
-10.88
-2.86
7.22
12.83
10.13
0.11
-11.93
-19.43
-18.43
-9.73
1.72
9.58
9.96
3.54
-5.00
-9.71
-7.05
1.98
12.49
18.40
16.09
6.60
-5.02
-12.43
-11.70
-3.53
7.32
14.61
14.26
6.57
-4.27
-12.51
-14.28
-9.65
-2.17
3.25
3.42
-1.26
-7.41
-10.60
-8.25
-1.24
6.79
11.45
10.29
4.32
-2.80
-6.62
-4.68
2.08
10.07
15.06
14.63
9.74
3.67
0.27
1.41
5.64
9.27
8.44
1.59
-9.23
-19.65
-25.04
-23.23
-15.85
-7.10
-1.48
-1.29
-5.27
-9.73
-10.62
-5.85
3.37
13.54
20.81
22.76
19.73
13.96
8.40
5.26
4.96
6.55
8.56
9.67
9.61
8.72
7.61
6.88
6.42
5.73
4.32
1.82
-1.33
-4.28
-6.07
-5.93
-4.14
-1.97
-1.07
-3.01
-7.91
-14.33
-19.72
-21.34
-18.14
-11.68
-5.38
-3.14
-6.70
-14.45
-22.10
-24.77
-19.98
-9.42
2.09
9.09
8.73
2.47
-5.29
-9.68
-8.41
-3.05
2.62
4.95
2.77
-1.95
-5.93
-6.58
-3.55
1.13
4.73
5.46
3.53
0.98
0.14
2.21
6.59
11.16
13.52
12.33
8.02
2.65
-1.15
-1.55
1.73
7.14
11.96
13.74
11.30
5.46
-1.39
-6.66
-8.59
-7.17
-4.07
-1.36
-0.51
-1.55
-3.15
-3.96
-3.43
-2.21
-1.80
-3.21
-6.29
-9.61
-11.18
-9.86
-6.06
-1.45
1.79
2.28
0.10
-3.46
-6.54
-7.92
-7.65
-6.75
-6.62
-8.06
-10.72
-13.51
-15.01
-14.50
-12.45
-10.16
-9.13
-10.25
-13.14
-16.65
-19.29
-20.21
-19.71
-18.95
-19.18
-21.11
-24.24
-27.41
-29.42
-29.81
-29.27
-29.36
-31.46
-36.16
-42.70
-49.37
-54.44
-56.84
-56.76
-55.34
-54.05
-53.88
-54.60
-55.00
-53.14
-46.91
-34.56
-15.33
10.44
41.08
73.94
105.50
131.44
147.37
149.94
138.51
116.32
90.39
69.29
60.05
65.29
82.47
105.57
127.91
144.89
154.15
155.11
147.26
130.02
103.89
71.53
37.43
5.62
-22.76
-49.97
-79.45
-112.33
-145.15
-170.14
-178.48
-164.31
-127.45
-73.49
-11.86
47.03
94.06
122.99
130.65
116.92
84.30
37.85
-14.77
-63.81
-98.70
-110.56
-95.62
-57.04
-5.14
45.86
83.05
99.35
95.29
77.65
55.26
35.46
22.40
16.88
17.71
22.44
27.43
29.11
25.02
15.49
4.02
-4.31
-5.44
1.23
12.05
21.55
24.84
20.48
10.62
-0.83
-10.34
-16.59
-20.98
-25.88
-33.72
-45.58
-60.73
-77.34
-92.67
-103.75
-108.86
-107.73
-102.12
-95.40
-91.06
-91.63
-97.46
-106.29
-114.77
-119.56
-119.12
-114.37
-107.81
-102.37
-99.75
-99.16
-97.96
-92.39
-79.63
-59.23
-33.68
-8.53
9.40
14.39
3.75
-20.41
-51.70
-81.19
-99.80
-101.38
-84.40
-52.21
-12.52
25.26
52.88
65.90
65.32
56.88
48.76
48.41
59.84
82.61
113.03
145.90
176.44
201.03
217.13
223.81
221.91
215.53
210.28
211.61
222.43
241.31
262.73
279.41
285.27
277.98
259.45
233.83
206.05
179.08
153.37
127.17
97.95
64.20
27.03
-9.76
-41.26
-63.37
-75.17
-79.12
-79.46
-80.26
-83.91
-90.49
-98.71
-106.97
-114.15
-119.53
-122.52
-122.68
-119.88
-114.65
-107.89
-100.21
-91.71
-81.95
-71.19
-61.30
-55.71
-57.50
-67.32
-81.99
-95.63
-102.72
-100.75
-91.85
-81.45
-75.16
-76.08
-83.46
-93.65
-102.82
-108.74
-111.13
-110.81
-107.88
-101.19
-89.04
-70.84
-48.29
-25.59
-8.17
-0.37
-3.86
-16.63
-33.64
-48.86
-57.79
-59.20
-55.40
-51.12
-50.72
-56.72
-68.77
-84.05
-99.42
-112.58
-122.77
-130.27
-135.24
-136.93
-134.02
-125.47
-111.65
-94.66
-77.66
-63.69
-54.31
-49.06
-45.50
-40.70
-32.48
-20.47
-6.15
7.96
19.70
28.08
33.21
35.97
37.07
36.61
34.42
30.00
23.41
15.46
7.38
1.03
-1.53
1.13
9.25
21.63
35.33
46.95
54.27
56.89
56.72
57.20
61.31
70.35
83.62
98.15
110.46
118.04
119.99
117.75
114.18
111.72
111.65
113.58
115.48
115.82
114.41
112.30
111.49
113.11
116.11
118.47
118.18
114.53
109.15
104.36
101.37
99.77
97.41
92.09
84.35
77.21
75.27
82.18
97.56
116.71
132.84
139.70
134.53
119.18
98.48
78.34
63.67
56.53
55.59
56.78
53.78
40.62
14.23
-24.17
-68.20
-107.74
-132.47
-134.98
-113.10
-71.18
-17.99
35.85
80.26
108.57
118.27
110.35
88.51
57.78
23.22
-9.96
-37.15
-54.95
-61.86
-59.05
-50.31
-40.64
-34.31
-33.44
-37.50
-44.47
-52.59
-60.74
-68.85
-77.06
-84.84
-90.80
-92.94
-89.30
-79.06
-63.31
-44.59
-26.78
-13.32
-5.78
-3.62
-4.81
-6.90
-8.53
-9.72
-10.68
-11.62
-11.69
-9.78
-5.84
-1.71
-0.71
-6.17
-19.16
-37.08
-54.73
-66.34
-68.68
-63.17
-55.51
-53.30
-62.76
-85.74
-119.02
-155.67
-187.28
-206.68
-209.91
-196.90
-171.96
-142.62
-117.82
-105.17
-108.32
-125.32
-149.50
-171.99
-184.92
-184.09
-169.25
-143.48
-110.71
-73.86
-34.93
4.53
42.82
77.83
107.41
129.97
144.78
152.30
153.96
151.58
147.18
142.46
138.34
135.02
132.09
128.80
124.82
120.25
115.41
110.79
106.34
101.36
94.88
86.07
74.83
62.19
49.71
38.93
30.69
24.80
20.30
16.10
11.36
5.75
-0.45
-6.83
-12.90
-18.02
-21.58
-23.04
-22.21
-19.64
-16.30
-13.40
-11.94
-12.31
-14.30
-17.37
-20.84
-24.36
-28.11
-32.80
-39.70
-50.12
-64.73
-82.70
-100.94
-114.33
-117.07
-104.89
-77.35
-38.64
3.64
40.96
66.59
77.32
73.54
58.39
36.53
12.99
-7.60
-21.87
-28.62
-29.10
-26.45
-24.21
-24.63
-27.82
-32.08
-35.17
-35.49
-32.32
-25.01
-12.44
6.69
32.28
61.03
86.20
99.88
96.33
75.40
43.32
10.37
-13.37
-22.24
-17.01
-3.66
10.09
18.38
19.42
15.25
9.70
6.38
7.53
13.93
25.62
42.40
63.42
86.70
108.78
125.22
131.62
125.15
105.57
75.45
39.44
3.03
-28.71
-52.18
-65.84
-70.22
-67.56
-61.14
-54.24
-49.40
-47.80
-49.22
-52.46
-55.88
-57.93
-57.42
-53.65
-46.49
-36.64
-25.53
-15.08
-7.21
-3.06
-2.24
-2.92
-2.66
0.38
6.41
13.73
19.63
21.76
19.57
14.83
10.72
10.22
14.59
22.82
32.48
41.18
47.64
51.58
52.88
50.84
44.29
32.73
17.45
1.63
-10.90
-17.47
-17.96
-14.57
-10.33
-7.33
-5.90
-5.10
-3.96
-2.44
-1.40
-1.66
-3.14
-4.71
-4.81
-2.37
2.63
9.13
15.55
20.48
23.20
23.80
22.97
21.56
20.23
19.20
18.28
17.04
15.05
12.09
8.27
4.02
-0.01
-3.14
-4.90
-5.21
-4.39
-3.02
-1.70
-0.94
-0.99
-1.83
-3.27
-5.03
-6.81
-8.37
-9.55
-10.26
-10.49
-10.33
-9.91
-9.36
-8.79
-8.22
-7.63
-6.99
-6.25
-5.48
-4.77
-4.27
-4.02
-3.95
-3.86
-3.58
-3.12
-2.73
-2.74
-3.36
-4.46
-5.59
-6.18
-5.84
-4.61
-2.92
-1.38
-0.52
-0.61
-1.64
-3.41
-5.61
-7.88
-9.80
-11.00
-11.34
-11.01
-10.54
-10.63
-11.79
-14.08
-17.02
-19.83
-21.70
-22.12
-20.92
-18.27
-14.61
-10.48
-6.43
-2.96
-0.38
1.24
2.01
2.27
2.33
2.43
2.67
3.00
3.31
3.46
3.27
2.57
1.31
-0.33
-1.86
-2.64
-2.24
-0.69
1.42
3.09
3.36
1.84
-1.07
-4.28
-6.47
-6.81
-5.35
-2.96
-0.94
-0.41
-1.72
-4.28
-6.87
-8.38
-8.50
-7.90
-7.85
-9.41
-12.66
-16.48
-19.16
-19.26
-16.55
-12.07
-7.50
-4.06
-1.87
0.05
3.00
7.55
13.01
17.69
19.93
19.16
16.32
13.40
12.27
13.65
16.47
18.60
18.16
14.73
9.86
6.15
5.85
9.44
15.15
19.91
20.99
17.64
11.54
5.89
3.47
5.22
9.66
13.69
14.47
11.13
5.33
0.32
-0.98
2.39
8.74
14.50
16.24
12.61
5.23
-2.12
-5.65
-3.59
2.76
9.81
13.66
12.29
6.70
0.18
-3.66
-3.00
1.23
6.04
8.27
6.40
1.45
-3.63
-5.97
-4.32
0.25
4.92
6.83
4.67
-0.56
-6.14
-9.19
-8.29
-4.13
0.87
3.88
3.25
-0.62
-5.54
-8.80
-8.61
-5.13
-0.20
3.74
5.03
3.69
1.25
-0.31
0.26
2.70
5.32
6.17
4.28
0.38
-3.43
-4.86
-2.88
1.67
6.27
8.08
5.48
-0.91
-8.48
-13.97
-15.24
-12.40
-7.69
-4.16
-3.88
-6.73
-10.59
-12.76
-11.59
-7.56
-3.05
-0.87
-2.45
-6.74
-10.71
-11.14
-6.61
1.58
9.93
14.48
13.11
6.74
-1.15
-6.53
-7.05
-3.36
1.26
2.83
-0.91
-8.92
-17.27
-21.36
-18.48
-9.46
1.56
9.31
10.32
4.90
-3.06
-8.42
-7.86
-1.68
6.31
11.11
9.57
2.37
-6.39
-11.62
-10.43
-3.83
3.81
7.36
3.98
-5.12
-15.36
-21.53
-20.69
-13.68
-4.46
2.21
3.48
-0.23
-5.71
-9.14
-8.17
-3.09
3.52
8.33
9.10
5.96
1.21
-2.00
-1.48
2.71
8.12
11.16
9.04
1.51
-8.91
-18.21
-23.04
-22.39
-17.87
-12.34
-7.76
-3.75
1.95
11.53
24.91
38.86
48.21
48.62
39.17
23.27
7.06
-3.63
-6.08
-1.70
5.14
9.72
9.34
4.46
-2.09
-7.05
-8.59
-7.15
-4.92
-4.43
-6.92
-11.70
-16.40
-18.41
-16.22
-10.33
-3.13
2.24
3.52
0.42
-5.06
-9.64
-10.30
-6.01
1.59
8.99
12.51
10.31
3.55
-4.17
-8.73
-8.06
-3.29
1.74
2.68
-2.46
-11.94
-20.94
-24.29
-19.48
-8.18
4.47
12.88
13.99
9.10
2.69
-0.18
3.00
10.83
18.95
22.83
20.35
12.98
4.64
-0.59
-0.81
2.76
6.77
7.77
4.14
-3.05
-10.75
-15.52
-15.45
-11.00
-4.65
0.47
2.30
0.80
-2.05
-3.46
-1.52
3.74
10.43
15.79
17.78
16.09
12.17
8.21
5.78
4.99
4.50
2.52
-1.97
-8.55
-15.41
-20.49
-22.51
-21.63
-19.23
-16.91
-15.44
-14.17
-11.41
-5.57
3.70
14.85
24.92
30.84
31.00
26.13
18.94
12.76
9.80
10.09
11.61
11.64
8.47
2.42
-4.34
-9.07
-10.11
-7.95
-4.81
-3.38
-5.11
-9.34
-13.61
-15.10
-12.29
-5.89
1.46
6.53
7.24
3.69
-1.92
-6.60
-8.17
-6.33
-2.64
0.54
1.51
0.15
-2.14
-3.56
-3.12
-1.39
-0.22
-1.52
-5.84
-11.66
-16.04
-16.38
-12.10
-5.39
-0.17
0.11
-5.21
-13.20
-18.78
-17.59
-8.75
4.40
16.01
20.99
17.90
9.65
1.71
-1.24
2.13
9.19
15.23
16.32
11.64
3.83
-2.70
-4.50
-1.08
4.80
8.83
7.63
0.76
-8.83
-16.39
-17.95
-12.56
-2.82
6.46
10.84
8.65
1.78
-5.51
-9.00
-6.87
-0.57
6.16
9.43
7.42
1.32
-5.43
-9.15
-8.05
-3.14
2.33
4.76
2.29
-4.19
-11.62
-16.58
-17.20
-14.10
-9.78
-6.90
-6.53
-7.47
-7.04
-2.91
5.33
15.65
24.57
28.94
27.68
22.28
15.99
12.04
11.97
14.95
18.34
19.26
16.18
9.88
2.84
-2.05
-3.26
-1.38
1.13
1.52
-1.65
-7.40
-12.79
-14.65
-11.44
-4.37
3.08
7.02
5.58
-0.09
-6.07
-8.22
-4.40
3.84
12.20
15.86
12.53
3.88
-5.34
-10.02
-7.77
-0.56
6.44
7.86
1.42
-10.29
-21.43
-26.05
-21.90
-11.66
-1.62
2.42
-1.56
-10.35
-17.39
-16.99
-7.62
6.98
20.05
25.60
21.96
12.20
2.36
-2.39
-0.35
5.90
11.62
12.67
7.96
0.04
-6.69
-8.53
-4.62
2.50
8.37
9.10
3.48
-6.18
-15.39
-19.86
-17.91
-11.23
-4.02
-0.50
-2.66
-9.20
-16.41
-20.35
-19.10
-13.69
-7.31
-3.43
-3.64
-6.89
-10.21
-10.61
-6.97
-0.72
4.87
6.65
3.32
-3.67
-10.99
-15.27
-14.86
-10.65
-5.38
-1.96
-1.70
-3.68
-5.29
-3.83
1.89
10.83
20.17
26.76
28.67
26.13
21.26
16.86
15.03
16.07
18.57
20.23
19.25
15.44
10.25
5.93
4.18
5.11
7.12
7.79
5.51
0.64
-4.69
-7.55
-6.35
-1.86
2.78
4.00
0.01
-7.75
-14.99
-17.16
-12.02
-1.52
9.29
14.81
12.21
3.22
-6.96
-12.57
-10.77
-3.20
4.95
8.07
3.64
-6.21
-15.94
-19.96
-16.17
-7.34
0.58
2.00
-4.59
-15.39
-23.48
-22.74
-11.80
5.16
20.46
27.34
23.51
12.25
0.27
-6.25
-4.81
2.23
9.73
12.72
9.29
1.49
-6.24
-9.67
-7.36
-1.18
4.73
6.42
2.37
-5.66
-13.67
-17.68
-15.78
-9.26
-1.68
3.07
2.89
-1.41
-6.67
-9.31
-7.29
-1.33
5.57
9.84
9.33
4.61
-1.56
-5.77
-5.99
-2.70
1.48
3.39
1.25
-4.26
-10.35
-13.85
-13.02
-8.58
-3.26
-0.13
-0.79
-4.36
-7.97
-8.50
-4.30
3.79
12.96
19.98
22.90
22.05
19.52
17.85
18.53
21.19
24.01
24.91
22.87
18.53
13.74
10.47
9.60
10.40
11.00
9.49
5.08
-1.37
-7.78
-12.05
-13.16
-11.84
-10.08
-9.97
-12.47
-16.71
-20.44
-21.27
-18.09
-11.88
-5.35
-1.53
-2.19
-6.71
-12.41
-15.92
-15.04
-9.89
-2.88
2.76
4.70
2.79
-1.05
-4.10
-4.48
-2.29
0.62
1.85
0.02
-4.26
-8.63
-10.26
-7.48
-0.80
7.22
13.21
14.77
11.72
6.29
1.89
1.24
4.91
11.01
16.22
17.73
14.78
9.06
3.64
1.16
2.37
5.72
8.45
8.26
4.67
-0.69
-5.20
-6.76
-5.12
-1.96
0.09
-1.07
-5.71
-12.17
-17.72
-20.10
-18.68
-14.74
-10.74
-8.93
-10.22
-13.79
-17.60
-19.60
-18.71
-15.32
-10.90
-7.19
-5.27
-5.10
-5.71
-5.89
-4.93
-3.07
-1.37
-1.10
-2.94
-6.46
-10.19
-12.38
-11.86
-8.79
-4.54
-0.93
0.89
1.20
1.58
3.93
9.15
16.42
23.37
27.38
26.99
22.80
17.14
12.86
11.77
13.82
17.31
19.86
19.92
17.46
13.98
11.45
11.25
13.14
15.36
15.64
12.32
5.62
-2.30
-8.29
-9.96
-6.95
-1.49
2.83
3.06
-1.35
-8.07
-13.25
-13.72
-9.09
-1.85
3.83
4.74
0.53
-5.94
-10.40
-9.79
-4.21
2.95
7.09
4.99
-3.01
-13.14
-20.36
-21.16
-15.63
-7.51
-1.75
-1.76
-7.16
-14.03
-17.09
-13.05
-2.34
10.82
20.82
23.77
19.55
11.60
4.92
3.21
6.69
12.59
16.71
16.17
10.84
3.46
-2.29
-3.83
-1.13
3.33
6.28
5.34
0.47
-6.11
-11.28
-12.83
-10.61
-6.67
-3.90
-4.44
-8.32
-13.56
-17.22
-17.24
-13.58
-8.28
-4.25
-3.61
-6.37
-10.53
-13.13
-12.12
-7.49
-1.32
3.42
4.53
1.74
-3.23
-7.82
-10.09
-9.79
-8.17
-7.05
-7.45
-8.94
-9.82
-8.23
-3.26
4.42
12.77
19.36
22.46
21.82
18.67
15.04
12.72
12.47
13.78
15.24
15.55
14.23
11.96
10.15
10.13
12.13
15.04
16.87
15.85
11.56
5.29
-0.37
-2.99
-1.78
1.66
4.02
2.13
-5.12
-15.71
-25.20
-29.20
-25.97
-17.66
-9.23
-5.65
-8.78
-16.12
-22.21
-22.25
-15.25
-4.87
2.72
2.97
-3.84
-12.43
-15.95
-10.57
1.63
13.62
17.81
11.27
-1.85
-12.70
-13.27
-1.61
16.68
31.75
35.64
27.36
13.25
2.86
2.81
12.86
26.19
33.99
30.91
18.15
2.40
-8.51
-10.04
-3.26
6.33
12.38
11.18
3.39
-6.89
-14.67
-16.74
-13.21
-7.02
-2.13
-1.44
-5.37
-11.85
-17.46
-19.37
-16.75
-11.13
-5.49
-2.65
-3.78
-7.79
-12.06
-13.92
-12.16
-7.68
-2.89
-0.44
-1.70
-5.99
-11.04
-14.29
-14.38
-11.95
-9.15
-8.26
-10.06
-13.13
-14.51
-11.50
-3.36
7.95
18.70
25.39
26.69
24.10
20.96
20.46
23.87
29.87
35.45
37.59
34.90
28.15
19.78
12.40
7.60
5.21
3.82
1.64
-2.10
-6.90
-11.04
-12.96
-11.98
-9.16
-6.52
-6.12
-8.49
-12.52
-15.63
-15.57
-11.54
-5.01
1.14
3.88
2.00
-3.52
-9.58
-12.93
-11.70
-6.48
0.03
4.45
4.83
1.38
-3.27
-6.11
-5.31
-1.52
2.47
3.37
-0.29
-7.39
-14.20
-16.79
-13.24
-4.82
4.36
9.67
8.68
2.29
-5.30
-9.45
-7.58
-0.70
7.10
11.04
8.60
0.67
-8.47
-13.99
-13.09
-6.55
1.61
6.52
5.30
-1.57
-10.30
-16.28
-16.58
-11.40
-3.96
1.61
2.62
-0.90
-6.19
-9.61
-8.97
-4.39
1.55
5.72
6.16
3.22
-0.63
-2.43
-0.58
4.43
10.04
13.28
12.41
7.84
2.03
-2.01
-2.51
0.37
4.43
6.97
6.13
2.15
-3.04
-6.68
-7.03
-4.02
0.53
4.19
5.15
3.42
0.61
-0.82
0.71
5.22
11.01
15.76
17.67
16.56
13.64
10.86
9.47
9.52
9.78
8.77
5.60
0.85
-3.85
-6.52
-6.18
-3.39
-0.03
1.68
0.37
-3.50
-8.06
-10.89
-10.50
-7.17
-2.78
0.27
0.43
-2.09
-5.55
-7.70
-7.07
-3.87
0.31
3.44
4.21
2.75
0.36
-1.35
-1.36
0.12
1.96
2.83
2.02
-0.13
-2.51
-3.87
-3.57
-1.91
0.01
0.89
-0.11
-2.79
-6.10
-8.59
-9.11
-7.47
-4.37
-1.25
0.61
0.62
-0.77
-2.40
-2.89
-1.61
1.14
4.05
5.71
5.25
3.10
0.45
-1.23
-1.27
-0.28
0.40
-0.40
-2.74
-5.31
-6.25
-4.53
-0.70
3.06
4.31
1.82
-3.28
-8.22
-9.96
-7.24
-1.38
4.50
7.14
5.18
-0.10
-5.63
-8.39
-7.01
-2.52
2.50
5.49
5.31
2.66
-0.48
-2.25
-1.84
0.22
2.45
3.38
2.38
-0.08
-2.73
-4.25
-4.09
-2.63
-1.02
-0.40
-1.18
-2.69
-3.62
-2.71
0.40
4.80
8.76
10.63
9.74
6.83
3.65
2.04
2.95
5.97
9.60
12.06
12.28
10.35
7.41
4.97
4.04
4.71
6.10
6.90
6.11
3.59
0.10
-3.11
-4.91
-4.84
-3.35
-1.62
-0.90
-1.96
-4.68
-8.09
-10.75
-11.42
-9.62
-5.90
-1.57
1.92
3.64
3.58
2.50
1.28
0.30
-0.72
-2.15
-3.74
-4.26
-2.21
2.95
9.68
14.49
13.80
6.28
-5.58
-16.32
-20.36
-15.40
-3.96
7.84
13.86
11.51
3.07
-5.96
-10.37
-8.24
-1.64
5.10
8.32
7.12
3.45
0.41
0.05
2.31
5.31
6.80
5.54
2.06
-1.84
-4.22
-4.06
-1.69
1.48
3.73
3.86
1.73
-1.85
-5.60
-8.37
-9.59
-9.34
-8.17
-6.72
-5.45
-4.55
-4.01
-3.73
-3.56
-3.25
-2.55
-1.20
0.77
2.97
4.68
5.18
4.18
2.09
-0.08
-1.23
-0.76
0.96
2.77
3.30
1.83
-1.26
-4.65
-6.78
-6.76
-4.83
-2.22
-0.39
-0.17
-1.20
-2.24
-1.93
0.35
4.04
7.68
9.76
9.58
7.65
5.35
4.10
4.61
6.44
8.39
9.15
8.14
5.76
3.16
1.51
1.36
2.33
3.32
3.15
1.25
-2.02
-5.57
-8.18
-9.14
-8.61
-7.49
-6.82
-7.16
-8.25
-9.18
-8.97
-7.14
-4.02
-0.62
1.91
2.88
2.36
1.12
0.11
-0.05
0.62
1.54
1.94
1.43
0.23
-0.93
-1.30
-0.61
0.71
1.67
1.32
-0.68
-3.69
-6.39
-7.41
-6.08
-2.81
1.07
3.97
4.93
4.09
2.57
1.82
2.80
5.37
8.38
10.30
10.10
7.89
4.91
2.80
2.70
4.53
7.02
8.42
7.52
4.38
0.32
-2.89
-4.05
-3.24
-1.75
-1.28
-2.86
-6.20
-9.83
-11.94
-11.48
-8.72
-5.15
-2.61
-2.26
-3.91
-6.19
-7.33
-6.16
-2.82
1.36
4.54
5.41
3.92
1.23
-0.96
-1.35
0.17
2.51
4.04
3.55
1.00
-2.45
-5.16
-5.94
-4.71
-2.55
-0.98
-1.04
-2.60
-4.43
-4.97
-3.20
0.68
5.31
8.86
10.03
8.72
6.06
3.72
3.00
4.13
6.19
7.75
7.68
5.92
3.42
1.54
1.24
2.44
4.00
4.44
2.74
-0.96
-5.39
-8.86
-10.12
-9.08
-6.85
-5.03
-4.82
-6.29
-8.37
-9.53
-8.68
-5.86
-2.18
0.79
1.97
1.36
-0.01
-0.77
-0.02
2.10
4.50
5.81
5.18
2.83
-0.06
-2.02
-2.10
-0.40
1.91
3.30
2.69
0.14
-3.13
-5.45
-5.55
-3.29
0.32
3.65
5.39
5.22
3.88
2.70
2.79
4.42
6.91
9.06
9.82
8.90
6.86
4.78
3.69
3.97
5.21
6.42
6.60
5.32
2.98
0.55
-0.97
-1.24
-0.86
-1.08
-3.03
-6.82
-11.22
-14.22
-14.18
-10.90
-5.94
-1.83
-0.69
-2.96
-7.08
-10.43
-10.81
-7.65
-2.36
2.57
4.95
4.10
1.04
-2.20
-3.75
-2.91
-0.43
2.01
2.81
1.38
-1.54
-4.39
-5.65
-4.75
-2.37
-0.01
0.91
-0.10
-2.33
-4.29
-4.55
-2.55
1.06
4.77
7.10
7.34
5.94
4.17
3.39
4.23
6.34
8.57
9.69
9.13
7.25
5.07
3.64
3.45
4.19
4.95
4.80
3.32
0.84
-1.85
-3.85
-4.72
-4.59
-4.05
-3.78
-4.10
-4.88
-5.65
-5.88
-5.28
-3.94
-2.24
-0.65
0.51
1.15
1.37
1.36
1.28
1.16
0.93
0.52
-0.10
-0.84
-1.52
-1.90
-1.82
-1.32
-0.69
-0.33
-0.66
-1.83
-3.69
-5.73
-7.28
-7.76
-6.88
-4.81
-2.06
0.61
2.53
3.41
3.36
2.92
2.71
3.13
4.12
5.18
5.63
5.12
3.83
2.51
2.00
2.70
4.30
5.83
6.16
4.76
2.02
-0.85
-2.46
-2.07
-0.04
2.29
3.29
2.00
-1.28
-5.06
-7.47
-7.31
-4.72
-1.20
1.19
1.10
-1.37
-4.60
-6.42
-5.34
-1.49
3.31
6.56
6.46
2.97
-2.14
-6.22
-7.28
-5.03
-1.08
1.98
2.20
-0.65
-4.87
-7.91
-7.85
-4.66
-0.28
2.45
1.62
-2.46
-7.24
-9.32
-6.57
0.47
8.53
13.34
12.18
5.61
-2.60
-7.53
-6.05
1.21
10.02
14.90
12.44
3.48
-7.27
-13.85
-12.63
-4.44
5.78
11.84
9.91
0.82
-10.52
-18.01
-17.94
-11.11
-2.22
2.92
1.04
-6.65
-15.13
-18.52
-13.67
-2.08
10.74
18.34
17.01
7.90
-3.60
-10.93
-10.02
-1.56
9.42
16.48
15.50
7.05
-3.99
-11.33
-10.93
-3.38
6.49
12.60
11.32
3.73
-5.10
-9.28
-5.84
3.21
12.04
14.62
8.66
-2.70
-12.61
-14.62
-6.69
7.37
20.03
24.43
18.51
6.18
-5.12
-8.93
-3.57
6.84
15.07
15.26
6.66
-5.79
-14.49
-13.81
-3.75
9.66
17.59
13.69
-1.81
-21.69
-35.56
-35.74
-21.78
-1.02
15.42
18.83
7.85
-11.01
-27.26
-32.44
-24.57
-8.74
6.26
13.18
10.12
0.96
-7.41
-9.33
-3.30
7.50
17.34
21.33
18.13
10.57
3.84
2.56
8.17
18.08
27.09
30.34
26.02
16.39
6.47
1.13
2.41
8.47
14.86
17.19
13.70
6.23
-1.13
-4.46
-2.45
2.92
7.63
8.02
3.07
-5.02
-12.14
-14.59
-11.29
-4.40
1.74
3.15
-1.47
-9.78
-17.02
-18.58
-12.74
-1.90
8.50
12.90
8.82
-1.52
-12.37
-17.66
-14.55
-5.03
5.16
10.05
7.03
-1.68
-10.53
-14.01
-10.13
-1.50
6.29
8.15
2.62
-7.22
-15.74
-18.18
-13.44
-4.71
2.50
3.64
-2.24
-11.92
-20.01
-22.03
-16.87
-7.33
1.51
5.28
2.65
-4.03
-10.27
-12.10
-8.24
-0.76
6.27
9.16
6.79
1.18
-3.70
-4.26
0.66
9.09
17.02
20.69
18.61
12.34
5.56
1.99
3.48
9.08
15.71
19.93
19.84
15.97
10.82
7.43
7.63
11.23
16.16
19.68
19.96
16.93
12.08
7.62
5.24
5.22
6.56
7.57
7.12
4.98
2.37
0.58
-0.27
-1.99
-7.73
-19.80
-37.38
-55.80
-68.23
-68.94
-56.57
-35.51
-14.11
-0.67
0.64
-8.57
-22.22
-33.37
-37.59
-34.72
-27.87
-21.01
-16.52
-14.07
-11.49
-6.33
2.17
12.21
20.30
23.05
19.44
11.31
2.93
-1.52
0.14
6.95
15.45
21.60
23.03
20.01
14.60
9.13
4.80
1.26
-2.59
-7.29
-11.94
-14.46
-12.81
-6.33
3.64
14.08
21.67
24.20
21.59
15.96
10.48
7.85
8.92
12.24
14.90
14.11
8.93
0.97
-6.43
-9.96
-8.25
-2.68
3.32
6.21
4.29
-1.33
-7.42
-10.42
-8.26
-1.45
7.28
14.45
17.59
16.37
12.55
8.89
7.62
9.46
13.46
17.89
21.42
24.12
26.91
30.19
32.40
30.05
19.76
1.18
-21.19
-39.22
-45.07
-35.74
-15.29
6.78
20.46
20.38
8.27
-8.58
-21.92
-26.90
-23.94
-17.28
-11.64
-9.32
-9.40
-9.13
-6.11
-0.09
6.85
11.50
11.42
6.52
-0.79
-6.64
-7.85
-3.64
3.87
10.68
13.06
9.51
1.60
-6.92
-12.16
-12.12
-7.62
-1.69
2.18
1.93
-2.04
-7.21
-10.53
-10.08
-6.05
-0.61
3.42
3.98
0.84
-4.52
-9.76
-12.99
-13.57
-12.13
-9.92
-7.98
-6.55
-5.23
-3.54
-1.46
0.38
1.08
0.15
-2.05
-4.33
-5.25
-3.96
-0.62
3.62
7.24
9.09
8.89
7.31
5.50
4.47
4.61
5.63
6.85
7.64
7.80
7.55
7.30
7.14
6.76
5.53
2.99
-0.51
-3.78
-5.18
-3.52
1.01
6.67
10.75
10.95
6.53
-1.20
-9.37
-14.99
-16.33
-13.68
-8.90
-4.29
-1.22
0.41
1.74
3.90
6.87
9.39
9.67
6.69
1.12
-4.71
-7.96
-6.85
-1.77
4.79
9.58
10.31
7.03
1.97
-1.70
-1.76
1.74
6.49
9.38
8.39
3.96
-1.14
-3.47
-1.00
5.48
12.72
16.82
15.55
9.74
2.79
-1.24
-0.07
5.42
11.62
14.33
11.25
3.43
-5.22
-10.20
-8.99
-2.63
4.86
8.80
6.53
-1.01
-9.95
-15.68
-15.62
-10.63
-4.40
-1.22
-3.43
-10.14
-17.89
-22.76
-22.63
-18.35
-13.01
-10.04
-11.28
-15.95
-21.28
-24.16
-22.88
-18.06
-12.16
-8.09
-7.59
-10.29
-14.01
-15.94
-14.13
-8.56
-1.04
5.78
9.81
10.60
9.38
8.17
8.54
10.61
13.07
14.04
12.31
8.18
3.35
0.01
-0.42
1.88
5.26
7.60
7.44
4.87
1.40
-0.98
-0.92
1.43
4.51
6.24
5.22
1.55
-3.18
-6.72
-7.36
-4.89
-0.62
3.32
5.25
4.86
3.25
2.19
3.00
5.65
8.78
10.59
9.91
6.92
3.16
0.69
0.99
4.16
8.88
13.05
14.95
14.29
12.21
10.66
11.00
13.00
14.76
13.92
9.27
1.83
-5.41
-9.03
-7.33
-1.51
4.83
7.62
4.76
-2.59
-10.69
-15.37
-14.40
-8.78
-2.11
1.66
0.47
-4.70
-10.40
-12.82
-10.05
-3.31
3.85
7.46
5.50
-0.95
-8.41
-12.96
-12.41
-7.45
-1.15
2.90
2.55
-1.80
-7.54
-11.37
-11.15
-7.01
-1.10
3.66
5.24
3.65
0.75
-0.87
0.56
4.82
9.79
12.55
11.15
5.82
-1.00
-5.88
-6.32
-2.30
3.68
7.95
7.81
3.18
-3.38
-8.13
-8.36
-4.01
2.33
6.95
7.23
3.15
-2.78
-6.97
-6.89
-2.47
3.87
8.74
9.66
6.50
1.52
-2.05
-1.77
2.49
8.57
13.15
13.72
9.98
4.01
-0.90
-2.07
0.99
6.33
10.71
11.42
7.95
2.31
-2.08
-2.33
2.12
9.03
14.55
15.38
10.87
3.50
-2.43
-3.35
1.27
8.48
13.46
12.45
5.09
-5.19
-13.15
-14.95
-10.51
-3.60
0.43
-1.96
-10.20
-19.87
-25.30
-23.04
-13.98
-2.85
4.55
4.72
-1.56
-9.89
-15.00
-13.81
-7.22
0.67
5.01
3.09
-4.13
-12.64
-17.68
-16.30
-9.06
0.42
7.33
8.42
3.64
-3.81
-9.37
-9.60
-4.24
3.74
9.83
10.66
5.91
-1.50
-7.18
-7.79
-3.06
4.12
9.37
9.41
3.94
-4.08
-10.14
-10.72
-5.35
3.05
9.82
11.14
6.31
-1.83
-8.48
-9.64
-4.50
4.12
11.30
13.01
8.37
0.19
-6.79
-8.61
-4.48
2.82
8.66
9.19
3.69
-4.93
-11.78
-12.77
-6.93
2.85
11.53
14.71
11.29
4.04
-1.90
-2.21
3.86
12.96
19.52
19.21
11.69
0.98
-6.93
-7.57
-0.78
9.20
16.13
15.47
7.01
-5.02
-14.43
-16.58
-11.06
-1.75
5.48
6.21
-0.09
-9.81
-17.35
-18.41
-12.45
-2.87
4.95
6.86
2.29
-5.66
-12.09
-13.18
-8.42
-0.63
5.68
7.05
2.92
-4.09
-9.82
-10.86
-6.53
0.80
7.09
8.90
5.30
-1.51
-7.46
-8.84
-4.46
3.64
11.29
14.50
11.67
4.51
-2.99
-6.72
-4.86
1.23
7.81
10.94
8.73
2.43
-4.28
-7.51
-5.40
0.74
7.15
9.98
7.56
1.57
-3.90
-4.85
-0.00
8.32
15.47
17.34
13.07
5.69
0.30
0.93
7.78
16.83
22.07
19.11
8.03
-6.33
-17.01
-18.82
-11.44
0.33
9.33
10.14
2.16
-10.14
-19.90
-22.00
-15.91
-5.90
1.67
2.24
-4.29
-13.69
-20.04
-19.30
-11.70
-1.41
5.90
6.39
0.11
-9.11
-16.00
-16.72
-10.98
-2.13
4.82
6.03
0.88
-7.60
-14.45
-15.51
-9.77
-0.04
8.59
11.53
7.21
-1.97
-10.95
-14.76
-11.39
-2.73
6.53
11.62
10.43
4.65
-1.33
-3.14
0.84
8.57
15.40
17.18
12.70
4.73
-1.76
-2.47
3.38
12.47
19.51
20.29
14.49
5.70
-0.65
-0.55
5.87
14.60
20.04
18.45
10.27
-0.00
-6.44
-5.20
2.98
13.17
18.91
16.17
5.67
-7.32
-16.08
-16.40
-9.20
0.15
4.88
1.13
-9.79
-22.02
-28.74
-25.95
-14.90
-1.46
7.42
7.33
-1.05
-12.71
-21.04
-21.48
-14.06
-3.01
5.71
7.83
3.02
-5.02
-10.87
-10.56
-3.91
5.53
12.47
13.16
7.49
-0.96
-7.07
-7.13
-1.06
7.71
14.28
15.12
10.08
2.27
-3.79
-4.77
-0.49
6.19
11.14
11.30
6.45
-0.78
-6.49
-7.72
-4.15
1.84
6.54
7.12
3.14
-3.19
-8.34
-9.43
-5.95
0.03
5.02
6.08
2.54
-3.62
-8.89
-10.18
-6.70
-0.37
5.22
6.88
3.69
-2.47
-7.95
-9.45
-6.03
0.39
6.08
7.76
4.51
-1.71
-7.21
-8.70
-5.33
0.90
6.31
7.75
4.43
-1.55
-6.45
-7.12
-2.92
3.90
9.46
10.55
6.48
-0.47
-6.43
-8.08
-4.66
1.72
7.30
8.90
5.61
-0.75
-6.76
-9.33
-7.43
-2.55
2.17
3.81
1.32
-3.82
-8.41
-9.32
-5.51
1.33
7.60
9.84
6.85
0.57
-4.99
-6.10
-1.61
6.23
13.05
14.93
10.72
2.75
-4.56
-7.23
-4.12
2.57
8.56
9.97
5.55
-2.69
-10.59
-14.18
-11.89
-5.44
1.24
4.26
2.00
-3.93
-9.54
-10.86
-6.39
1.95
9.75
12.83
9.67
2.61
-3.56
-4.45
1.08
10.13
17.29
18.10
11.83
2.21
-4.86
-4.87
2.29
11.98
17.75
15.10
4.59
-8.42
-16.77
-15.74
-6.08
6.47
14.45
13.05
2.98
-9.91
-18.11
-16.87
-7.18
5.00
12.06
9.50
-1.50
-14.59
-22.10
-19.57
-8.43
4.79
12.38
9.96
-0.87
-13.62
-20.78
-18.08
-7.01
6.12
14.00
12.36
2.46
-9.76
-17.09
-15.15
-5.04
7.45
14.97
12.98
2.30
-11.11
-19.57
-18.10
-7.31
6.78
16.19
15.59
5.45
-8.33
-17.85
-17.76
-8.38
4.61
13.80
14.27
6.60
-3.69
-9.53
-6.58
3.92
16.07
22.57
19.37
7.96
-5.10
-12.14
-9.00
2.36
14.83
20.13
13.90
-1.58
-18.51
-28.23
-26.27
-15.04
-2.56
2.74
-3.10
-16.82
-30.16
-34.67
-26.81
-10.31
6.11
13.83
9.29
-4.02
-17.62
-22.85
-15.96
-0.17
16.51
25.62
23.45
12.76
1.26
-3.27
2.35
14.82
26.21
28.99
20.50
4.99
-8.96
-13.39
-5.66
9.81
23.96
28.45
20.37
4.03
-11.54
-17.61
-10.69
5.32
21.54
28.88
23.37
8.14
-8.31
-17.00
-13.70
-1.19
12.56
18.95
13.86
-0.12
-15.35
-23.69
-21.09
-9.71
3.44
10.76
8.32
-1.96
-13.76
-19.99
-16.77
-5.73
7.08
14.59
12.82
3.01
-8.97
-16.01
-13.84
-3.51
9.22
17.21
16.10
6.86
-4.88
-12.19
-10.91
-2.06
8.94
15.65
14.44
6.50
-3.08
-8.59
-7.00
0.25
8.41
12.34
9.62
1.81
-6.64
-11.11
-9.44
-3.11
3.81
7.06
4.70
-1.89
-8.86
-12.20
-9.97
-3.46
3.63
7.36
5.72
-0.21
-6.95
-10.63
-9.16
-3.48
3.11
6.80
5.59
0.37
-5.52
-8.35
-6.12
0.06
6.72
9.94
7.76
1.42
-5.36
-8.54
-6.15
0.38
7.09
9.86
6.86
-0.27
-7.37
-10.22
-7.06
0.27
7.44
10.23
7.00
-0.30
-7.35
-10.06
-6.94
-0.04
6.39
8.44
4.88
-2.15
-8.43
-10.24
-6.47
0.59
6.78
8.42
4.51
-2.72
-9.19
-11.29
-7.93
-1.15
5.16
7.51
4.79
-1.16
-6.74
-8.71
-5.99
-0.31
4.92
6.64
3.90
-1.69
-6.86
-8.69
-6.16
-0.79
4.34
6.41
4.43
-0.23
-4.70
-6.31
-4.08
0.71
5.33
7.24
5.53
1.47
-2.36
-3.54
-1.23
3.25
7.35
8.69
6.58
2.38
-1.29
-2.08
0.67
5.48
9.59
10.57
7.78
2.74
-1.72
-3.15
-0.86
3.63
7.55
8.53
6.00
1.54
-2.18
-2.94
-0.35
3.92
7.20
7.34
4.05
-1.01
-5.17
-6.29
-3.98
0.19
3.65
4.29
1.65
-2.87
-6.84
-8.20
-6.36
-2.53
0.99
2.23
0.59
-2.78
-5.73
-6.37
-4.15
-0.30
2.94
3.58
1.15
-3.00
-6.33
-6.63
-3.35
1.94
6.36
7.34
4.21
-1.31
-6.07
-7.29
-4.20
1.43
6.35
7.77
5.04
-0.01
-4.25
-5.22
-2.55
1.82
4.88
4.49
0.59
-4.67
-8.28
-8.05
-3.90
1.99
6.40
6.80
2.79
-3.64
-9.08
-10.55
-7.10
-0.39
6.21
9.47
8.06
3.25
-1.90
-4.35
-2.75
1.84
6.74
9.24
8.14
4.32
0.04
-2.41
-2.01
0.56
3.47
4.80
3.61
0.35
-3.56
-6.57
-7.78
-7.41
-6.48
-6.21
-7.23
-9.36
-11.87
-14.19
-16.54
-20.16
-26.45
-35.71
-45.98
-53.12
-52.29
-40.43
-18.21
9.56
35.80
54.14
61.68
59.82
52.91
45.67
40.76
38.03
35.46
31.15
24.84
18.14
13.38
12.00
13.62
16.10
16.73
13.81
7.59
0.22
-5.45
-7.38
-5.42
-1.44
1.69
1.64
-2.09
-7.91
-13.07
-15.10
-13.24
-8.79
-4.37
-2.39
-3.71
-7.14
-10.27
-10.88
-8.32
-3.96
-0.32
0.44
-2.20
-6.72
-10.51
-11.37
-8.86
-4.58
-1.19
-0.84
-3.84
-8.46
-11.98
-12.27
-9.11
-4.28
-0.56
0.06
-2.53
-6.39
-8.79
-7.81
-3.51
2.05
6.05
6.50
3.40
-1.26
-4.76
-5.10
-2.18
2.27
5.68
6.18
3.64
-0.32
-3.33
-3.64
-1.12
2.64
5.28
5.05
1.82
-2.84
-6.54
-7.47
-5.41
-1.90
0.73
0.67
-2.26
-6.53
-9.77
-10.10
-7.21
-2.58
1.45
2.95
1.51
-1.54
-3.96
-3.92
-1.09
3.16
6.52
7.10
4.55
0.29
-3.31
-4.29
-2.23
1.48
4.47
4.83
2.25
-1.76
-4.73
-4.76
-1.63
2.99
6.46
6.74
3.61
-1.17
-4.88
-5.40
-2.49
2.09
5.57
5.83
2.63
-2.20
-5.89
-6.34
-3.36
1.20
4.57
4.70
1.53
-3.04
-6.27
-6.16
-2.70
2.15
5.63
5.78
2.59
-1.96
-5.17
-5.12
-1.83
2.74
5.88
5.69
2.22
-2.55
-5.88
-5.85
-2.49
2.23
5.55
5.56
2.32
-2.20
-5.29
-5.06
-1.60
3.08
6.23
5.99
2.50
-2.14
-5.16
-4.71
-0.94
4.01
7.30
7.05
3.42
-1.46
-4.76
-4.58
-1.06
3.68
6.81
6.40
2.60
-2.54
-6.21
-6.47
-3.33
1.24
4.53
4.61
1.47
-3.01
-6.21
-6.26
-3.16
1.21
4.24
4.09
0.77
-3.86
-7.15
-7.22
-4.01
0.67
4.19
4.67
1.99
-2.09
-5.08
-5.13
-2.13
2.18
5.34
5.56
2.82
-1.15
-3.93
-3.83
-0.93
2.93
5.34
4.74
1.40
-2.71
-5.08
-4.20
-0.44
4.07
6.69
5.83
1.88
-2.98
-6.02
-5.55
-1.84
2.97
6.16
5.90
2.34
-2.52
-6.04
-6.37
-3.52
0.68
3.69
3.76
0.90
-3.14
-5.88
-5.62
-2.40
1.96
4.99
4.98
2.01
-2.07
-4.75
-4.36
-1.02
3.36
6.27
6.04
2.85
-1.37
-4.16
-3.94
-0.93
2.93
5.22
4.41
0.84
-3.47
-6.03
-5.31
-1.64
2.90
5.71
5.14
1.48
-3.16
-6.12
-5.66
-1.98
2.83
6.06
5.91
2.51
-2.11
-5.28
-5.21
-2.01
2.34
5.21
4.85
1.46
-2.95
-5.76
-5.33
-1.89
2.44
5.03
4.24
0.47
-4.08
-6.70
-5.80
-1.79
3.02
5.89
5.16
1.29
-3.45
-6.26
-5.51
-1.60
3.19
6.06
5.34
1.42
-3.41
-6.34
-5.68
-1.83
2.95
5.86
5.22
1.48
-3.08
-5.71
-4.82
-0.91
3.70
6.28
5.33
1.46
-2.97
-5.27
-4.00
0.21
5.00
7.68
6.83
3.05
-1.37
-3.83
-2.96
0.62
4.65
6.59
5.13
0.94
-3.71
-6.29
-5.45
-1.75
2.58
5.09
4.39
1.01
-2.97
-5.18
-4.31
-0.88
3.07
5.17
4.12
0.41
-3.89
-6.36
-5.60
-2.02
2.36
5.07
4.57
1.15
-3.25
-6.16
-6.05
-3.12
0.74
3.14
2.59
-0.59
-4.43
-6.53
-5.47
-1.67
2.77
5.30
4.44
0.66
-3.82
-6.36
-5.40
-1.40
3.38
6.20
5.44
1.52
-3.30
-6.29
-5.83
-2.32
1.98
4.44
3.53
-0.16
-4.32
-6.31
-4.73
-0.26
4.67
7.36
6.39
2.47
-2.00
-4.40
-3.38
0.34
4.44
6.39
4.95
0.91
-3.39
-5.45
-4.04
0.09
4.65
7.10
6.12
2.30
-2.22
-4.99
-4.59
-1.41
2.60
5.11
4.69
1.63
-2.23
-4.62
-4.13
-1.03
2.84
5.14
4.38
0.83
-3.60
-6.47
-6.17
-2.89
1.46
4.37
4.18
1.08
-3.01
-5.59
-5.06
-1.70
2.44
4.80
3.83
-0.04
-4.56
-7.07
-5.98
-1.75
3.27
6.32
5.75
2.03
-2.55
-5.27
-4.57
-0.92
3.45
5.92
5.03
1.36
-2.83
-5.01
-3.82
0.08
4.38
6.53
5.24
1.25
-3.02
-4.98
-3.35
1.07
5.80
8.19
6.92
2.78
-1.78
-4.18
-3.12
0.65
4.77
6.72
5.27
1.18
-3.27
-5.67
-4.83
-1.47
2.23
3.89
2.33
-1.76
-6.25
-8.80
-8.20
-5.06
-1.41
0.52
-0.43
-3.61
-7.00
-8.37
-6.58
-2.25
2.52
5.41
5.10
2.09
-1.64
-3.78
-2.97
0.34
4.20
6.25
5.14
1.29
-3.20
-5.87
-5.22
-1.72
2.49
4.84
3.84
0.00
-4.42
-6.79
-5.63
-1.52
3.18
5.76
4.76
0.85
-3.57
-5.82
-4.50
-0.32
4.27
6.63
5.44
1.49
-2.77
-4.74
-3.15
1.19
5.89
8.37
7.39
3.67
-0.52
-2.81
-2.04
1.13
4.59
6.15
4.80
1.27
-2.39
-4.09
-2.90
0.43
3.83
5.20
3.61
-0.16
-4.01
-5.78
-4.47
-0.81
3.09
5.00
3.85
0.33
-3.49
-5.41
-4.33
-0.87
2.96
4.98
4.07
0.89
-2.61
-4.30
-3.12
0.26
3.85
5.52
4.22
0.61
-3.29
-5.30
-4.32
-0.94
2.86
4.87
3.93
0.58
-3.20
-5.23
-4.35
-1.11
2.53
4.34
3.18
-0.31
-4.11
-5.98
-4.75
-1.06
3.02
5.18
4.20
0.67
-3.37
-5.59
-4.73
-1.31
2.65
4.82
3.92
0.49
-3.42
-5.43
-4.23
-0.38
3.99
6.45
5.65
2.19
-1.77
-3.81
-2.69
0.94
4.86
6.67
5.14
1.02
-3.40
-5.69
-4.61
-0.85
3.34
5.54
4.53
1.01
-2.84
-4.67
-3.36
0.32
4.14
5.75
4.09
0.03
-4.11
-5.93
-4.32
-0.18
4.13
6.14
4.67
0.58
-3.77
-5.87
-4.48
-0.34
4.19
6.54
5.39
1.40
-3.14
-5.70
-4.95
-1.49
2.46
4.43
3.14
-0.73
-4.96
-7.07
-5.80
-1.84
2.57
4.96
4.04
0.46
-3.62
-5.78
-4.77
-1.19
2.86
5.02
4.07
0.58
-3.38
-5.50
-4.58
-1.16
2.73
4.81
3.85
0.41
-3.49
-5.57
-4.61
-1.13
2.82
4.92
3.91
0.33
-3.76
-6.03
-5.17
-1.68
2.44
4.88
4.37
1.40
-2.06
-3.84
-2.81
0.43
3.90
5.45
4.05
0.43
-3.30
-4.97
-3.55
0.17
4.01
5.71
4.22
0.35
-3.67
-5.52
-4.13
-0.30
3.71
5.56
4.15
0.35
-3.57
-5.26
-3.69
0.26
4.24
5.92
4.28
0.30
-3.66
-5.29
-3.63
0.29
4.12
5.56
3.73
-0.32
-4.26
-5.78
-4.00
0.12
4.26
6.13
4.74
0.92
-3.09
-5.05
-3.89
-0.39
3.30
4.92
3.39
-0.53
-4.63
-6.57
-5.18
-1.21
3.13
5.44
4.50
1.01
-2.87
-4.79
-3.57
0.10
4.07
6.01
4.78
1.09
-2.87
-4.80
-3.62
-0.11
3.53
5.00
3.26
-0.79
-4.86
-6.60
-4.99
-0.92
3.28
5.26
3.94
0.18
-3.78
-5.61
-4.27
-0.56
3.32
5.11
3.78
0.15
-3.59
-5.17
-3.57
0.37
4.39
6.15
4.60
0.61
-3.51
-5.36
-3.86
0.14
4.29
6.18
4.70
0.74
-3.36
-5.16
-3.58
0.50
4.67
6.47
4.80
0.57
-3.80
-5.84
-4.47
-0.58
3.41
5.11
3.46
-0.53
-4.49
-6.06
-4.31
-0.28
3.60
4.99
3.00
-1.25
-5.31
-6.76
-4.68
-0.13
4.39
6.39
4.84
0.71
-3.54
-5.46
-3.99
-0.05
3.94
5.58
3.85
-0.23
-4.23
-5.76
-3.87
0.37
4.47
6.03
4.10
-0.20
-4.32
-5.79
-3.61
1.09
5.71
7.67
5.85
1.30
-3.41
-5.66
-4.27
-0.21
3.98
5.76
4.02
-0.22
-4.40
-6.02
-4.05
0.40
4.74
6.43
4.45
-0.05
-4.46
-6.20
-4.27
0.23
4.66
6.45
4.56
0.11
-4.27
-6.01
-4.08
0.41
4.84
6.63
4.75
0.30
-4.14
-6.02
-4.30
-0.02
4.30
6.18
4.52
0.28
-4.12
-6.23
-4.97
-1.21
2.72
4.42
2.83
-1.16
-5.18
-6.83
-5.03
-0.70
3.73
5.76
4.25
0.10
-4.30
-6.45
-5.20
-1.34
2.83
4.91
3.80
0.28
-3.48
-5.22
-3.95
-0.47
3.09
4.57
3.10
-0.44
-3.86
-5.08
-3.32
0.42
3.85
4.85
2.68
-1.48
-5.25
-6.42
-4.26
0.04
4.04
5.52
3.72
-0.18
-3.80
-4.94
-2.87
1.24
5.03
6.31
4.38
0.41
-3.22
-4.34
-2.31
1.65
5.14
6.00
3.64
-0.59
-4.20
-5.04
-2.57
1.80
5.48
6.29
3.71
-0.82
-4.68
-5.66
-3.22
1.20
4.98
5.84
3.21
-1.42
-5.35
-6.27
-3.61
1.10
5.08
5.97
3.17
-1.74
-5.93
-6.97
-4.25
0.70
5.04
6.32
3.89
-0.76
-4.86
-5.99
-3.49
1.17
5.21
6.22
3.51
-1.42
-5.79
-7.16
-4.82
-0.19
3.99
5.31
3.05
-1.40
-5.40
-6.66
-4.53
-0.36
3.32
4.34
2.18
-1.70
-4.79
-5.01
-2.00
2.66
6.35
6.97
4.22
-0.19
-3.57
-3.83
-0.75
3.89
7.34
7.56
4.35
-0.42
-4.01
-4.38
-1.44
2.92
5.93
5.58
1.84
-3.28
-6.90
-6.97
-3.40
1.82
5.73
6.14
2.83
-2.35
-6.54
-7.54
-5.01
-0.63
2.93
3.61
1.14
-2.84
-5.81
-5.90
-2.99
1.23
4.26
4.31
1.42
-2.57
-5.04
-4.21
-0.22
4.89
8.29
8.03
4.16
-1.23
-5.19
-5.62
-2.45
2.34
5.85
6.02
2.79
-1.89
-5.24
-5.33
-2.17
2.28
5.30
4.98
1.41
-3.45
-6.85
-6.93
-3.72
0.88
4.20
4.40
1.53
-2.54
-5.24
-4.83
-1.48
2.86
5.59
5.01
1.39
-3.17
-5.98
-5.33
-1.54
3.25
6.26
5.76
2.08
-2.56
-5.35
-4.57
-0.62
4.21
7.08
6.29
2.32
-2.45
-5.19
-4.26
-0.23
4.48
7.01
5.80
1.50
-3.39
-6.02
-4.86
-0.61
4.24
6.80
5.49
0.95
-4.35
-7.52
-6.87
-2.94
1.93
4.85
4.14
0.23
-4.56
-7.43
-6.76
-2.99
1.66
4.45
3.79
0.20
-4.08
-6.39
-5.28
-1.36
3.07
5.35
4.10
0.01
-4.48
-6.68
-5.21
-0.84
3.96
6.44
5.20
1.04
-3.53
-5.75
-4.29
-0.00
4.58
6.75
5.21
0.89
-3.63
-5.65
-3.92
0.56
5.17
7.19
5.40
0.80
-3.94
-6.11
-4.51
-0.22
4.12
5.81
3.74
-0.92
-5.45
-7.12
-4.88
0.03
4.78
6.63
4.50
-0.35
-5.07
-6.90
-4.82
-0.16
4.17
5.42
2.59
-2.89
-7.99
-9.87
-7.54
-2.48
2.21
3.57
0.58
-5.29
-10.87
-13.14
-10.99
-5.84
-0.79
1.14
-1.29
-6.86
-12.70
-15.97
-15.50
-12.33
-9.02
-8.07
-10.50
-15.32
-20.22
-22.99
-22.92
-21.10
-19.62
-20.23
-22.91
-25.61
-25.36
-20.05
-10.18
0.83
8.05
7.77
-0.14
-11.57
-20.10
-20.14
-9.81
8.19
28.18
44.44
53.83
56.60
55.31
52.71
50.08
46.89
41.66
33.43
22.70
11.52
2.59
-1.90
-1.41
2.61
7.31
9.59
7.76
2.40
-3.98
-8.33
-8.78
-5.75
-1.60
0.76
-0.31
-4.19
-8.50
-10.58
-9.17
-5.14
-1.02
0.60
-1.32
-5.64
-9.66
-10.75
-7.93
-2.45
2.92
5.52
4.37
0.84
-2.05
-1.37
4.04
12.70
21.27
26.29
26.14
21.93
16.74
13.80
14.44
17.32
19.31
17.46
11.05
2.15
-5.44
-8.55
-6.52
-1.65
2.16
1.80
-3.21
-10.46
-16.09
-17.00
-12.68
-5.32
1.42
4.53
3.21
-0.86
-4.68
-5.76
-3.59
0.13
2.52
1.30
-3.79
-10.65
-15.90
-16.73
-12.60
-5.62
0.58
2.79
0.14
-5.45
-10.34
-11.34
-7.59
-1.10
4.43
5.82
2.31
-3.94
-9.12
-10.04
-6.10
0.35
5.37
5.80
1.17
-5.93
-11.32
-11.74
-6.81
0.64
6.20
6.45
0.96
-7.34
-13.81
-14.74
-9.48
-0.85
6.45
8.49
4.27
-3.74
-11.00
-13.45
-9.78
-2.13
5.11
7.79
4.25
-3.70
-11.86
-15.93
-13.89
-7.00
1.01
5.99
5.65
0.54
-6.41
-11.74
-13.30
-11.16
-7.25
-3.92
-2.48
-2.32
-1.39
2.39
9.40
17.27
21.59
18.45
7.35
-7.02
-16.18
-12.26
6.90
35.04
59.44
67.34
53.30
22.96
-9.47
-29.02
-28.27
-11.03
10.55
23.77
22.67
10.74
-2.48
-8.10
-3.52
6.18
12.06
7.51
-6.98
-23.13
-29.26
-17.30
11.77
46.85
71.52
72.54
47.40
6.84
-30.18
-46.49
-36.16
-7.67
21.15
33.59
23.52
-1.79
-26.96
-38.26
-31.55
-13.84
2.03
5.77
-4.27
-20.71
-32.43
-31.60
-18.24
0.05
12.97
13.55
1.98
-14.73
-26.89
-27.67
-16.78
-0.39
12.52
15.28
7.16
-6.46
-17.38
-19.31
-11.48
1.23
11.28
13.03
5.95
-5.19
-13.38
-13.59
-5.78
5.17
12.59
12.05
4.08
-6.18
-12.18
-10.01
-0.76
10.08
16.02
13.48
3.95
-6.91
-12.68
-10.05
-0.80
9.32
14.07
10.44
0.46
-10.03
-14.84
-11.11
-1.03
9.50
14.31
10.64
0.67
-9.74
-14.58
-11.15
-1.71
8.02
12.22
8.47
-0.87
-10.11
-13.62
-9.23
0.52
9.90
13.40
8.99
-0.74
-10.12
-13.74
-9.58
-0.21
8.84
12.30
8.24
-0.86
-9.65
-13.02
-9.08
-0.24
8.30
11.55
7.70
-0.89
-9.08
-11.92
-7.55
1.71
10.66
14.22
10.32
1.13
-8.18
-12.35
-9.07
-0.37
8.61
12.50
8.89
-0.24
-9.59
-13.68
-10.03
-0.75
8.68
12.64
8.70
-0.86
-10.36
-14.11
-9.82
-0.07
9.25
12.42
7.44
-2.78
-12.03
-14.60
-8.64
2.55
12.53
15.55
9.96
-0.78
-10.18
-12.59
-6.56
4.31
13.58
15.84
9.87
-0.69
-9.57
-11.61
-5.74
4.40
12.69
14.16
7.82
-2.82
-11.87
-14.40
-9.32
0.12
8.22
10.19
4.92
-4.43
-12.23
-13.73
-7.84
2.13
10.43
12.22
6.50
-3.32
-11.33
-12.68
-6.47
3.65
11.64
12.71
6.19
-4.08
-11.95
-12.74
-5.94
4.48
12.47
13.43
6.95
-3.08
-10.79
-11.79
-5.67
3.81
11.02
11.71
5.48
-4.06
-11.41
-12.37
-6.49
2.72
9.81
10.63
4.75
-4.22
-10.75
-10.66
-3.66
6.39
13.71
14.01
7.13
-2.87
-10.08
-10.22
-3.25
6.63
13.50
13.22
5.87
-4.35
-11.66
-12.11
-5.80
3.20
9.33
8.83
1.87
-7.63
-14.27
-14.28
-7.72
1.55
8.17
8.31
1.97
-7.03
-13.22
-12.67
-5.39
4.69
11.93
12.35
6.02
-2.95
-8.86
-7.84
-0.24
9.58
15.81
14.65
6.68
-3.53
-10.09
-9.24
-1.57
8.31
14.47
13.10
4.76
-6.06
-13.49
-13.66
-6.87
2.57
8.95
8.44
1.35
-8.11
-14.25
-13.27
-5.56
4.55
11.26
10.73
3.45
-6.06
-11.84
-10.07
-1.39
9.40
16.23
15.32
7.44
-2.58
-8.78
-7.62
-0.05
9.13
14.20
11.95
3.54
-6.25
-11.90
-10.35
-2.73
6.32
11.43
9.57
1.70
-7.80
-13.67
-12.73
-5.71
3.24
8.93
8.12
1.38
-7.21
-12.48
-11.15
-3.88
5.11
10.48
8.94
1.34
-7.82
-12.96
-10.78
-2.27
7.79
13.66
12.04
4.12
-5.19
-10.11
-7.56
1.04
10.58
15.35
12.44
3.57
-6.01
-10.62
-7.61
1.06
9.98
13.56
9.34
-0.48
-10.42
-14.90
-11.55
-2.57
6.55
10.28
6.23
-3.47
-13.45
-18.16
-15.08
-6.08
3.62
8.57
6.17
-1.78
-10.24
-13.87
-10.21
-1.13
8.25
12.64
9.75
1.62
-6.55
-9.59
-5.40
3.75
12.61
16.04
12.02
2.81
-6.44
-10.70
-7.89
-0.02
8.04
11.44
8.07
-0.26
-8.92
-13.10
-10.54
-2.86
5.47
9.62
7.27
-0.12
-8.08
-11.76
-8.78
-0.63
8.21
12.86
10.88
3.79
-3.99
-7.68
-5.04
2.34
10.04
13.41
10.32
2.43
-5.92
-10.18
-8.28
-1.72
5.38
8.74
6.35
-0.41
-7.71
-11.47
-9.67
-3.52
3.30
6.80
4.93
-1.16
-7.83
-11.03
-8.66
-1.91
5.42
9.13
7.12
0.75
-5.97
-8.71
-5.52
2.02
9.67
13.12
10.56
3.72
-3.21
-6.19
-3.67
2.55
8.51
10.50
7.21
0.43
-6.12
-8.98
-6.90
-1.55
3.59
5.23
2.21
-3.83
-9.43
-11.29
-8.17
-1.73
4.38
6.64
3.63
-2.93
-9.20
-11.34
-7.85
-0.49
6.59
9.36
6.28
-0.68
-7.13
-8.93
-4.68
3.30
10.30
12.12
7.55
-0.73
-7.83
-9.55
-4.87
3.43
10.52
12.38
8.15
0.53
-5.99
-7.74
-3.94
3.02
9.07
10.94
7.82
1.69
-4.00
-6.36
-4.56
-0.18
3.79
4.75
1.89
-3.39
-8.31
-10.25
-8.19
-3.28
1.78
4.25
2.89
-1.40
-6.05
-8.29
-6.74
-2.23
2.71
5.34
4.34
0.62
-3.20
-4.42
-1.93
3.05
7.74
9.44
7.23
2.60
-1.47
-2.25
1.05
6.78
11.81
13.32
10.44
4.72
-0.84
-3.47
-2.18
1.75
5.59
6.73
4.14
-1.13
-6.55
-9.57
-9.05
-5.87
-2.40
-1.12
-3.13
-7.42
-11.36
-12.19
-8.73
-2.29
3.96
6.78
4.87
-0.22
-4.84
-5.45
-0.92
6.64
13.03
14.47
10.03
2.26
-4.35
-6.11
-2.35
4.23
9.25
9.37
4.26
-3.29
-9.15
-10.32
-6.54
-0.35
4.50
5.21
1.40
-4.77
-9.93
-11.38
-8.48
-3.04
1.76
3.14
0.23
-5.42
-10.68
-12.59
-9.97
-4.19
1.66
4.46
2.86
-1.93
-6.84
-8.80
-6.52
-1.31
3.75
5.69
3.43
-1.46
-5.76
-6.56
-3.08
2.85
7.91
9.24
6.25
0.88
-3.56
-4.39
-1.14
4.22
8.53
9.32
6.24
1.21
-2.78
-3.47
-0.57
4.05
7.60
7.99
5.06
0.62
-2.69
-2.96
-0.15
3.93
6.75
6.61
3.61
-0.42
-3.03
-2.67
0.45
4.48
7.04
6.63
3.50
-0.55
-3.21
-2.99
-0.03
4.02
6.88
6.98
4.24
0.12
-3.22
-4.11
-2.26
1.03
3.63
3.74
0.91
-3.67
-7.82
-9.53
-8.11
-4.58
-1.10
0.28
-1.18
-4.48
-7.39
-7.78
-4.96
-0.16
4.05
5.27
2.76
-2.02
-6.20
-7.11
-3.99
1.56
6.43
7.89
5.26
0.40
-3.44
-3.61
0.24
5.89
9.89
9.67
5.15
-1.16
-5.67
-5.87
-1.81
3.90
7.72
7.27
2.77
-3.16
-7.11
-6.90
-2.79
2.74
6.53
6.54
2.97
-1.94
-5.35
-5.41
-2.26
2.13
5.15
5.00
1.72
-2.96
-6.56
-7.27
-4.89
-0.92
2.25
2.74
0.15
-4.19
-7.96
-9.16
-7.19
-3.24
0.48
1.95
0.54
-2.64
-5.41
-5.81
-3.36
0.69
4.03
4.75
2.50
-1.20
-3.88
-3.57
-0.04
4.97
8.74
9.17
6.03
1.18
-2.50
-2.81
0.47
5.41
9.04
9.12
5.44
-0.02
-4.27
-5.03
-2.04
2.75
6.41
6.67
3.27
-1.92
-6.02
-6.77
-3.87
0.94
4.79
5.43
2.44
-2.50
-6.64
-7.74
-5.37
-1.14
2.30
2.82
0.09
-4.24
-7.54
-7.80
-4.82
-0.32
3.14
3.66
1.19
-2.51
-4.91
-4.33
-0.92
3.40
6.09
5.54
2.02
-2.43
-5.27
-4.90
-1.65
2.50
5.08
4.61
1.45
-2.41
-4.58
-3.65
-0.07
4.19
6.75
6.25
3.10
-0.74
-2.98
-2.38
0.53
3.76
5.10
3.47
-0.37
-4.25
-5.87
-4.22
-0.22
3.84
5.61
4.11
0.30
-3.46
-4.86
-2.95
1.25
5.36
7.03
5.28
1.04
-3.36
-5.53
-4.35
-0.58
3.64
5.96
5.18
1.85
-2.08
-4.39
-3.84
-0.90
2.60
4.49
3.52
0.08
-4.06
-6.74
-6.61
-3.92
-0.36
1.95
1.59
-1.30
-5.11
-7.67
-7.48
-4.54
-0.42
2.62
2.91
0.28
-3.72
-6.78
-7.03
-4.23
0.11
3.56
4.23
1.88
-1.81
-4.31
-3.70
-0.00
4.78
7.81
7.17
3.08
-2.06
-5.16
-4.27
0.17
5.53
8.64
7.70
3.43
-1.37
-3.59
-1.70
3.26
8.36
10.54
8.46
3.35
-1.82
-4.11
-2.35
2.21
6.72
8.40
6.18
1.28
-3.63
-5.98
-4.75
-1.06
2.63
3.92
1.86
-2.56
-7.02
-9.20
-8.03
-4.33
-0.33
1.59
0.22
-3.73
-7.94
-9.77
-7.75
-2.54
3.38
7.03
6.66
2.84
-1.85
-4.33
-2.89
1.75
6.85
9.35
7.69
2.74
-2.74
-5.85
-5.19
-1.61
2.41
4.28
2.82
-1.15
-5.37
-7.48
-6.31
-2.57
1.59
3.80
2.76
-0.96
-5.16
-7.26
-5.78
-1.30
3.82
6.80
6.06
2.27
-2.03
-3.95
-2.05
2.76
7.76
10.04
8.26
3.49
-1.51
-3.96
-2.67
1.34
5.52
7.35
5.76
1.70
-2.53
-4.64
-3.62
-0.31
3.15
4.57
2.92
-1.08
-5.32
-7.48
-6.35
-2.62
1.54
3.69
2.59
-1.00
-4.71
-6.00
-3.72
1.09
5.80
7.71
5.77
1.14
-3.43
-5.31
-3.48
0.91
5.30
7.21
5.67
1.60
-2.79
-5.34
-5.07
-2.70
-0.12
0.74
-1.05
-4.82
-8.71
-10.59
-9.34
-5.51
-1.08
1.60
1.19
-1.80
-5.23
-6.57
-4.50
0.18
4.95
7.05
5.24
0.64
-3.87
-5.40
-2.85
2.43
7.41
9.29
7.18
2.60
-1.48
-2.52
0.10
4.75
8.57
9.24
6.30
1.34
-3.01
-4.56
-2.85
0.77
3.93
4.66
2.48
-1.43
-4.88
-5.89
-3.86
0.11
3.85
5.30
3.68
0.05
-3.35
-4.38
-2.31
1.69
5.27
6.27
4.12
0.15
-3.16
-3.75
-1.24
2.89
6.15
6.57
3.79
-0.74
-4.68
-6.10
-4.57
-1.33
1.46
1.96
-0.23
-3.85
-6.67
-6.76
-3.75
0.94
4.80
5.74
3.29
-1.01
-4.56
-5.23
-2.65
1.64
5.03
5.42
2.43
-2.44
-6.66
-8.09
-6.21
-2.30
1.28
2.45
0.63
-2.90
-5.79
-6.01
-3.09
1.55
5.35
6.22
3.68
-0.77
-4.57
-5.59
-3.40
0.52
3.68
4.10
1.51
-2.49
-5.36
-5.13
-1.63
3.46
7.48
8.38
5.90
1.66
-1.78
-2.45
-0.10
3.65
6.37
6.22
3.05
-1.53
-5.08
-5.72
-3.20
0.95
4.34
5.07
2.87
-0.77
-3.47
-3.35
-0.22
4.27
7.61
7.85
4.81
0.12
-3.72
-4.80
-2.86
0.63
3.38
3.60
0.97
-3.23
-6.86
-8.10
-6.45
-2.95
0.39
1.70
0.36
-2.69
-5.43
-5.95
-3.62
0.44
4.01
5.04
2.95
-0.95
-4.18
-4.60
-1.73
2.86
6.53
7.14
4.39
-0.03
-3.42
-3.81
-1.09
2.95
5.73
5.49
2.37
-1.75
-4.42
-4.09
-1.00
2.97
5.46
5.01
1.83
-2.37
-5.37
-5.69
-3.37
0.07
2.52
2.44
-0.27
-4.16
-7.06
-7.24
-4.48
-0.22
3.23
3.98
1.77
-1.86
-4.45
-4.11
-0.74
3.92
7.23
7.28
4.02
-0.72
-4.31
-4.93
-2.53
1.13
3.63
3.26
0.09
-4.11
-6.91
-6.57
-3.14
1.62
5.16
5.63
2.97
-1.12
-4.09
-4.07
-0.99
3.42
6.63
6.82
3.87
-0.55
-4.01
-4.73
-2.54
1.03
3.73
3.91
1.47
-2.04
-4.35
-3.82
-0.45
4.05
7.24
7.37
4.42
0.13
-3.04
-3.38
-0.90
2.65
4.92
4.32
0.90
-3.70
-7.22
-8.05
-6.06
-2.66
0.12
0.72
-0.99
-3.69
-5.38
-4.60
-1.42
2.55
5.06
4.55
1.22
-3.08
-5.90
-5.64
-2.58
1.31
3.57
2.69
-1.01
-5.55
-8.49
-8.31
-5.24
-1.09
1.84
2.11
-0.06
-2.89
-4.09
-2.31
2.09
7.07
10.09
9.52
5.61
0.34
-3.63
-4.48
-2.22
1.38
3.88
3.59
0.58
-3.36
-5.80
-5.06
-1.21
3.91
7.71
8.35
5.71
1.48
-1.75
-2.04
0.81
5.13
8.36
8.58
5.72
1.57
-1.19
-0.67
3.14
8.28
11.93
12.01
8.40
3.00
-1.26
-2.16
0.63
5.27
8.82
8.93
5.32
0.03
-3.68
-3.30
1.32
7.66
11.87
11.02
4.99
-3.38
-9.76
-11.00
-6.97
-0.73
3.33
2.13
-4.20
-12.40
-17.95
-17.77
-12.01
-3.99
1.68
1.78
-3.65
-11.30
-16.43
-15.71
-9.15
-0.21
6.14
6.33
0.34
-8.28
-14.40
-14.35
-8.08
0.80
7.16
7.36
1.38
-7.16
-13.18
-13.16
-7.18
1.23
7.21
7.46
2.17
-5.21
-10.04
-9.27
-3.20
4.77
10.20
10.23
5.21
-1.55
-5.85
-4.96
0.80
8.43
14.00
14.94
11.33
5.72
1.52
1.11
4.54
9.68
13.58
14.09
11.10
6.45
2.77
1.93
3.95
7.01
8.53
6.71
1.52
-5.19
-10.77
-13.21
-12.29
-9.61
-7.63
-8.29
-11.83
-16.68
-20.35
-20.81
-17.65
-12.28
-7.14
-4.36
-4.53
-6.37
-7.54
-6.01
-1.36
4.87
10.06
12.08
10.60
7.39
5.20
6.14
10.19
15.24
18.18
16.91
11.65
4.93
0.18
-0.30
3.26
8.27
11.29
10.09
4.99
-1.30
-5.39
-5.17
-1.18
3.73
6.12
4.00
-1.88
-8.46
-12.12
-10.85
-5.47
0.82
4.30
2.89
-2.58
-8.89
-12.28
-10.66
-4.87
1.84
5.65
4.41
-1.10
-7.64
-11.31
-9.92
-4.21
2.52
6.40
5.20
-0.33
-6.89
-10.55
-9.06
-3.14
3.96
8.29
7.54
2.25
-4.49
-8.86
-8.47
-3.69
2.64
6.94
6.89
2.82
-2.59
-5.87
-4.80
0.27
6.65
10.80
10.41
5.74
-0.58
-4.98
-5.03
-0.80
5.20
9.49
9.57
5.39
-0.66
-5.12
-5.49
-1.59
4.28
8.72
9.22
5.54
-0.11
-4.43
-4.94
-1.46
3.85
7.73
7.81
3.94
-1.68
-5.83
-6.16
-2.56
2.80
6.75
6.97
3.39
-1.87
-5.69
-5.84
-2.30
2.75
6.22
5.95
2.02
-3.27
-6.76
-6.32
-2.16
3.24
6.62
5.86
1.31
-4.42
-7.98
-7.30
-2.78
2.89
6.35
5.55
0.92
-4.86
-8.48
-7.90
-3.51
2.09
5.69
5.27
1.24
-3.91
-7.01
-6.13
-1.65
3.94
7.56
7.23
3.25
-2.02
-5.54
-5.35
-1.64
3.37
6.75
6.52
2.82
-2.16
-5.39
-4.79
-0.38
5.63
10.10
10.68
7.23
1.83
-2.34
-2.86
0.51
5.73
9.61
9.67
5.64
-0.41
-5.23
-6.29
-3.23
1.91
5.93
6.32
2.79
-2.59
-6.62
-6.84
-3.06
2.54
6.67
6.86
2.93
-2.88
-7.24
-7.71
-4.10
1.33
5.29
5.40
1.58
-3.88
-7.72
-7.65
-3.76
1.57
5.03
4.39
-0.19
-6.26
-10.48
-10.65
-6.89
-1.62
2.00
1.89
-1.68
-6.34
-8.99
-7.74
-3.04
2.56
5.89
4.99
0.29
-5.63
-9.52
-9.32
-5.35
-0.06
3.42
3.09
-0.68
-5.45
-8.08
-6.65
-1.60
4.51
8.47
8.21
4.06
-1.48
-5.19
-4.97
-1.03
4.25
7.80
7.61
3.95
-0.88
-3.86
-3.08
1.14
6.46
9.79
9.13
4.72
-1.11
-5.17
-5.30
-1.49
4.03
8.17
8.67
5.41
0.42
-3.28
-3.48
-0.07
4.94
8.53
8.52
4.84
-0.41
-4.16
-4.23
-0.63
4.46
7.92
7.52
3.26
-2.64
-6.99
-7.50
-4.07
1.13
4.97
5.17
1.63
-3.54
-7.27
-7.39
-3.85
1.22
4.79
4.72
1.00
-4.18
-7.76
-7.62
-3.80
1.51
5.23
5.19
1.36
-4.12
-8.20
-8.67
-5.45
-0.59
2.94
3.03
-0.35
-5.10
-8.26
-7.78
-3.74
1.62
5.23
5.01
1.09
-4.23
-7.79
-7.49
-3.48
1.87
5.41
5.04
0.97
-4.40
-7.86
-7.26
-2.79
3.09
7.11
7.02
2.93
-2.78
-6.82
-6.92
-3.05
2.57
6.80
7.39
4.21
-0.69
-4.35
-4.61
-1.35
3.45
6.94
7.04
3.68
-1.14
-4.48
-4.24
-0.35
5.10
9.11
9.43
5.92
0.65
-3.27
-3.54
0.01
5.33
9.31
9.63
6.11
0.76
-3.32
-3.80
-0.50
4.59
8.41
8.72
5.33
0.23
-3.62
-4.10
-1.14
3.20
5.98
5.16
0.82
-4.80
-8.58
-8.38
-4.30
1.34
5.32
5.38
1.54
-3.96
-7.90
-8.04
-4.37
0.84
4.48
4.33
0.45
-4.93
-8.70
-8.67
-4.89
0.44
4.24
4.33
0.76
-4.27
-7.67
-7.33
-3.37
1.96
5.52
5.19
1.07
-4.51
-8.36
-8.27
-4.29
1.28
5.32
5.60
2.12
-2.92
-6.48
-6.42
-2.77
2.30
5.77
5.52
1.64
-3.66
-7.26
-7.01
-2.95
2.65
6.62
6.69
2.75
-3.02
-7.47
-8.23
-5.09
-0.08
3.80
4.29
1.22
-3.41
-6.62
-6.26
-2.24
3.36
7.50
7.91
4.38
-1.10
-5.49
-6.45
-3.63
1.17
5.08
5.86
3.18
-1.19
-4.44
-4.38
-0.83
4.32
8.12
8.29
4.63
-0.85
-5.02
-5.46
-1.89
3.64
7.94
8.56
5.17
-0.19
-4.32
-4.74
-1.15
4.42
8.76
9.39
6.03
0.79
-3.07
-3.07
1.00
6.96
11.44
11.87
7.95
1.89
-2.89
-3.73
-0.29
5.25
9.49
9.78
5.80
-0.29
-5.09
-6.00
-2.70
2.68
6.79
7.10
3.30
-2.47
-6.92
-7.54
-4.06
1.37
5.47
5.72
1.84
-4.10
-8.83
-9.83
-6.70
-1.43
2.83
3.58
0.45
-4.60
-8.46
-8.74
-5.17
0.21
4.22
4.45
0.64
-5.08
-9.44
-9.92
-6.24
-0.53
3.90
4.49
0.91
-4.75
-9.19
-9.87
-6.44
-0.96
3.34
3.94
0.56
-4.74
-8.69
-8.81
-4.87
1.03
5.61
6.35
2.92
-2.60
-7.00
-7.79
-4.60
0.55
4.56
5.02
1.66
-3.45
-7.14
-6.96
-2.65
3.66
8.65
9.64
6.16
0.27
-4.61
-5.65
-2.18
3.85
9.05
10.53
7.60
2.15
-2.47
-3.41
-0.07
5.59
10.11
10.61
6.49
-0.18
-5.83
-7.47
-4.38
1.46
6.55
7.91
4.78
-0.98
-5.99
-7.38
-4.45
0.90
5.33
6.04
2.42
-3.58
-8.58
-9.75
-6.48
-0.74
4.11
5.24
2.03
-3.60
-8.30
-9.27
-5.85
0.05
5.12
6.55
3.67
-1.68
-6.25
-7.32
-4.23
1.16
5.65
6.54
3.22
-2.42
-7.09
-8.06
-4.73
0.97
5.73
6.78
3.47
-2.28
-7.18
-8.43
-5.35
0.19
4.96
6.19
3.22
-2.11
-6.54
-7.33
-3.85
2.03
7.01
8.25
5.02
-0.86
-5.97
-7.33
-4.04
2.14
7.78
9.78
7.14
1.51
-3.77
-5.57
-2.83
2.87
8.21
10.08
7.41
1.82
-3.36
-5.03
-2.15
3.66
9.06
10.94
8.23
2.52
-2.86
-4.83
-2.30
3.14
8.18
9.74
6.76
0.80
-4.83
-7.05
-4.81
0.36
5.19
6.65
3.69
-2.08
-7.39
-9.19
-6.46
-0.83
4.41
6.17
3.39
-2.36
-7.79
-9.81
-7.31
-1.81
3.45
5.41
2.98
-2.38
-7.52
-9.45
-7.11
-1.94
2.95
4.66
2.20
-2.91
-7.57
-8.92
-6.01
-0.40
4.75
6.50
3.80
-1.86
-7.27
-9.36
-6.92
-1.29
4.38
6.96
5.12
0.08
-5.12
-7.39
-5.42
-0.41
4.61
6.59
4.30
-0.97
-6.09
-7.99
-5.45
0.16
5.65
7.84
5.41
-0.24
-5.83
-8.07
-5.58
0.27
6.18
8.82
6.70
1.16
-4.53
-6.99
-4.75
0.87
6.62
9.20
7.22
2.04
-3.07
-4.90
-2.17
3.66
9.26
11.38
8.71
2.73
-3.21
-5.75
-3.54
2.05
7.67
9.93
7.34
1.20
-5.15
-8.24
-6.47
-1.05
4.75
7.50
5.59
0.22
-5.39
-7.86
-5.62
0.09
6.00
8.70
6.60
0.90
-5.15
-8.15
-6.50
-1.32
4.24
6.83
4.87
-0.57
-6.34
-9.10
-7.24
-1.83
4.04
7.00
5.39
0.19
-5.55
-8.51
-7.01
-2.02
3.47
6.21
4.59
-0.36
-5.61
-7.97
-5.94
-0.64
4.83
7.19
4.92
-0.85
-6.92
-9.93
-8.22
-2.81
3.25
6.62
5.59
1.07
-4.08
-6.67
-5.13
-0.38
4.70
6.99
4.99
-0.23
-5.66
-8.06
-5.87
-0.18
5.89
8.94
7.22
1.67
-4.64
-8.24
-7.26
-2.44
3.29
6.62
5.71
1.29
-3.89
-6.62
-5.20
-0.39
5.02
7.85
6.35
1.34
-4.32
-7.32
-5.86
-0.68
5.33
8.81
7.83
3.03
-2.81
-6.37
-5.73
-1.50
3.61
6.41
5.13
0.50
-4.64
-7.08
-5.06
0.58
6.90
10.44
9.22
3.87
-2.69
-6.93
-6.67
-2.36
3.26
6.73
5.93
1.31
-4.37
-7.72
-6.71
-1.91
3.79
6.92
5.38
-0.20
-6.82
-10.84
-10.06
-5.00
1.44
5.63
5.37
1.11
-4.35
-7.57
-6.48
-1.67
4.00
7.11
5.61
0.18
-6.19
-9.90
-8.81
-3.50
3.04
7.11
6.43
1.40
-5.12
-9.46
-9.31
-5.00
0.65
4.09
3.05
-2.03
-8.28
-12.09
-11.21
-6.12
0.27
4.26
3.56
-1.42
-7.70
-11.52
-10.47
-4.86
2.43
7.67
8.40
4.94
0.09
-2.55
-0.72
5.00
11.57
15.25
13.87
8.28
1.92
-1.17
1.22
8.04
15.50
19.23
16.87
9.49
1.03
-3.92
-2.80
3.50
11.15
15.61
14.16
7.44
-1.02
-6.89
-7.46
-3.07
3.25
7.62
7.52
3.15
-2.78
-6.75
-6.48
-2.26
3.21
6.57
5.78
1.58
-2.83
-3.64
1.19
10.32
19.46
23.74
20.53
11.40
1.48
-3.44
-0.36
8.88
18.45
21.89
16.15
3.51
-9.58
-16.38
-13.89
-4.75
4.40
6.89
0.12
-12.89
-25.37
-30.79
-26.70
-16.04
-5.19
-0.26
-3.69
-13.07
-22.78
-27.39
-24.57
-16.26
-7.34
-2.59
-4.17
-10.23
-16.19
-17.39
-11.93
-1.86
7.79
11.88
8.13
-1.42
-11.28
-15.64
-11.69
-1.35
9.72
15.29
12.37
2.85
-7.50
-12.54
-9.45
-0.45
8.66
11.94
6.97
-3.66
-13.81
-17.45
-12.14
-0.58
10.99
16.34
12.67
2.30
-8.82
-14.51
-11.76
-2.43
7.81
12.87
9.55
-0.48
-11.66
-17.69
-15.02
-4.80
7.85
16.66
17.74
11.53
2.42
-3.80
-3.23
3.94
13.71
20.50
20.43
13.57
3.97
-2.68
-2.32
5.09
15.46
22.97
23.40
16.70
7.06
0.46
1.12
8.97
19.66
27.07
26.95
19.61
9.79
3.80
5.74
14.70
25.03
29.58
24.00
9.70
-6.60
-16.55
-15.04
-3.38
11.14
19.34
15.43
0.51
-17.92
-30.22
-30.13
-18.31
-1.91
9.49
9.40
-2.00
-18.10
-29.71
-30.30
-19.68
-3.91
8.23
10.27
1.70
-11.89
-22.23
-22.98
-13.39
1.47
13.97
18.39
14.07
5.33
-1.76
-3.38
-0.26
2.94
0.81
-9.17
-24.80
-40.12
-48.54
-46.22
-33.95
-16.65
-0.83
8.53
10.15
6.64
2.75
2.56
7.10
13.84
18.19
16.56
8.92
-0.73
-6.67
-4.89
4.22
15.73
22.90
21.09
10.50
-3.81
-14.94
-18.03
-12.98
-4.30
1.72
0.79
-6.82
-16.41
-21.70
-18.49
-7.30
6.68
16.36
16.65
7.45
-6.11
-16.48
-17.88
-9.60
3.61
14.23
16.34
9.00
-3.17
-12.79
-14.04
-6.05
6.53
16.38
17.81
10.11
-2.02
-11.33
-12.29
-4.33
7.86
17.16
18.17
10.38
-1.62
-10.95
-12.43
-5.58
5.28
13.64
14.58
7.62
-3.21
-11.79
-13.50
-7.82
1.49
8.72
9.55
3.51
-5.82
-13.01
-13.97
-8.29
0.57
7.35
8.05
2.30
-6.45
-13.00
-13.38
-7.23
2.05
9.29
10.58
5.54
-2.45
-8.29
-8.13
-1.65
7.73
14.90
16.03
10.83
2.76
-3.09
-2.94
3.40
12.40
18.90
19.02
12.46
2.65
-5.25
-7.32
-3.12
4.15
9.57
9.43
3.51
-4.80
-10.60
-10.35
-4.22
3.88
8.44
5.66
-4.09
-16.09
-23.87
-22.86
-13.25
-0.14
9.20
9.30
-0.33
-14.83
-26.71
-29.92
-23.25
-10.92
-0.02
3.54
-1.59
-11.60
-19.86
-20.83
-13.36
-1.30
8.68
11.07
4.88
-5.50
-12.86
-11.44
-0.55
14.71
26.15
27.25
16.95
0.52
-13.45
-17.82
-10.94
2.48
14.53
18.62
13.46
3.51
-3.95
-3.44
5.15
16.58
23.33
20.50
9.14
-3.79
-9.54
-2.70
15.04
35.14
46.90
43.31
25.47
2.28
-14.22
-15.79
-2.82
15.92
28.05
24.94
6.75
-17.35
-34.49
-35.33
-19.47
4.13
22.56
26.08
13.74
-6.59
-23.10
-27.01
-17.61
-2.10
8.89
7.71
-6.08
-25.40
-40.04
-42.39
-31.49
-13.51
1.94
7.15
0.37
-13.46
-25.65
-28.61
-20.13
-4.61
9.62
14.96
8.94
-4.34
-16.65
-20.37
-12.97
1.63
15.24
20.24
13.90
0.26
-12.45
-16.62
-9.82
3.42
14.43
15.47
4.71
-12.59
-26.87
-30.10
-20.70
-4.84
7.13
6.87
-6.67
-26.14
-40.07
-39.48
-23.37
0.39
19.45
24.09
12.84
-6.63
-22.05
-23.68
-10.05
11.21
28.10
31.26
19.40
0.11
-14.72
-16.03
-2.71
17.76
33.65
36.05
23.91
4.71
-10.15
-11.89
0.52
19.65
34.29
35.77
23.22
3.92
-10.88
-12.54
-0.07
19.44
34.76
37.10
24.94
5.02
-11.83
-16.73
-7.81
8.81
22.80
25.45
14.80
-3.59
-19.80
-25.34
-17.85
-2.10
12.93
19.29
14.20
1.38
-11.65
-17.89
-14.57
-4.36
6.57
12.11
9.61
0.99
-8.53
-13.45
-10.99
-2.63
6.93
12.34
10.47
2.30
-7.77
-14.32
-13.89
-6.90
2.55
9.07
8.98
2.36
-7.08
-14.24
-15.47
-10.71
-3.31
2.01
1.95
-3.37
-10.62
-15.30
-14.44
-8.44
-0.93
3.28
1.18
-6.21
-14.05
-16.11
-8.56
7.05
23.73
32.53
27.61
10.15
-11.62
-26.69
-27.44
-14.00
5.87
21.36
24.90
16.31
2.23
-8.32
-9.54
-1.99
8.36
14.18
11.24
0.80
-11.43
-18.84
-17.62
-8.75
2.83
11.03
11.98
6.04
-2.72
-9.02
-9.33
-3.75
4.30
10.26
11.17
7.38
2.19
-0.15
2.96
10.68
18.98
22.61
18.22
6.72
-6.70
-14.99
-13.16
-1.40
14.56
26.33
27.41
16.87
-0.20
-15.65
-22.91
-20.50
-12.27
-4.57
-2.11
-5.28
-10.39
-12.38
-8.20
1.34
12.14
19.23
19.68
14.16
6.43
1.23
1.59
7.25
14.97
20.30
20.14
14.48
6.19
-0.58
-2.76
-0.06
5.01
8.73
8.36
3.80
-2.42
-6.66
-6.34
-1.51
5.15
9.83
9.80
4.99
-2.02
-7.35
-8.10
-3.86
3.04
8.94
10.93
8.53
3.83
0.16
0.16
4.07
9.58
13.09
11.80
5.47
-3.43
-10.96
-13.92
-11.66
-6.43
-2.08
-1.74
-6.00
-12.57
-17.68
-18.27
-13.96
-7.24
-2.12
-1.71
-6.34
-13.39
-18.82
-19.62
-15.61
-9.64
-5.87
-7.34
-14.09
-23.08
-29.97
-31.49
-27.32
-20.21
-14.32
-12.86
-16.24
-21.93
-26.03
-25.52
-19.97
-11.76
-4.57
-1.27
-2.07
-4.41
-4.34
1.19
12.07
24.56
33.05
33.15
24.71
12.37
3.41
3.76
14.47
30.85
44.92
49.77
43.37
29.40
14.84
5.80
4.21
7.21
9.54
7.14
-0.35
-9.60
-15.78
-15.56
-9.11
0.03
6.98
8.12
3.24
-4.63
-10.88
-11.88
-6.96
1.28
8.49
11.03
7.94
1.45
-4.46
-6.23
-2.83
3.77
9.74
11.64
8.40
1.86
-4.31
-6.78
-4.49
0.80
5.55
6.62
3.17
-2.83
-7.76
-8.47
-4.20
2.89
8.88
10.36
6.39
-0.95
-7.73
-10.44
-7.99
-2.35
2.64
3.56
-0.48
-7.31
-12.88
-13.66
-8.77
-0.62
6.39
8.41
4.39
-3.33
-10.32
-12.64
-9.10
-1.88
4.77
7.04
3.77
-2.95
-9.07
-10.92
-7.39
-0.57
5.51
7.21
3.45
-3.62
-9.77
-11.14
-6.57
1.70
9.15
11.63
7.74
-0.29
-7.82
-10.51
-6.81
1.11
8.60
11.22
7.32
-1.05
-9.31
-13.04
-10.47
-3.52
3.38
5.92
2.44
-5.12
-12.36
-15.03
-11.58
-4.12
2.79
4.85
0.64
-7.58
-15.08
-17.44
-13.19
-4.75
2.83
4.80
-0.55
-10.77
-20.56
-24.72
-21.09
-11.78
-2.00
2.94
0.66
-7.04
-15.30
-19.14
-16.31
-8.61
-0.67
2.78
-0.22
-7.81
-15.43
-18.38
-14.48
-5.22
5.17
12.19
13.62
10.61
6.98
6.83
12.11
21.45
30.92
36.33
35.66
30.15
23.52
19.66
20.32
24.13
27.45
26.74
20.78
11.52
3.06
-0.69
1.70
8.43
15.50
19.15
18.00
13.77
10.18
10.53
15.64
23.21
29.06
29.58
23.83
14.17
5.03
0.50
2.02
7.67
13.15
14.26
9.18
-0.47
-10.59
-16.88
-17.27
-13.07
-8.16
-6.64
-10.40
-17.91
-25.10
-27.75
-24.04
-15.71
-7.23
-3.19
-5.68
-13.04
-20.72
-23.86
-20.16
-11.22
-1.74
3.24
1.23
-6.23
-14.42
-18.19
-14.93
-6.11
3.52
8.71
6.76
-0.94
-9.70
-14.17
-11.49
-2.94
6.82
12.42
10.97
3.75
-4.56
-8.58
-5.49
3.27
12.73
17.32
14.17
4.78
-5.71
-11.48
-9.40
-0.92
8.77
13.78
11.03
2.07
-7.78
-12.63
-9.53
-0.34
9.25
13.15
8.50
-2.58
-14.14
-19.83
-16.69
-6.81
3.86
9.05
5.92
-3.44
-13.15
-17.12
-12.58
-1.71
9.57
15.06
11.79
1.64
-9.81
-16.46
-15.18
-7.41
1.78
6.74
4.52
-3.54
-12.67
-17.52
-15.14
-6.70
3.30
9.64
9.25
2.83
-5.71
-11.50
-11.46
-5.89
1.81
7.24
7.51
2.89
-3.42
-7.13
-5.34
1.76
10.95
17.76
19.01
14.52
7.25
1.58
0.84
5.32
12.22
17.25
17.20
11.89
4.40
-0.81
-0.52
5.25
13.08
18.15
17.10
10.08
0.77
-5.78
-6.16
-0.72
6.62
10.63
7.96
-0.90
-11.77
-19.22
-19.70
-13.63
-5.17
0.24
-0.86
-7.86
-16.37
-20.76
-17.62
-7.90
3.52
10.61
9.73
1.75
-8.40
-14.71
-13.55
-5.73
4.08
10.12
8.94
1.25
-8.56
-15.01
-14.61
-7.74
1.61
8.18
8.35
2.15
-6.79
-13.27
-13.50
-7.28
1.91
8.85
9.69
4.12
-4.32
-10.39
-10.16
-3.40
6.31
13.68
14.73
9.09
0.13
-7.08
-8.63
-4.01
3.78
10.05
11.11
6.43
-1.17
-7.11
-7.79
-2.64
5.48
11.92
12.99
8.13
0.31
-5.68
-6.06
-0.36
8.28
14.89
15.59
9.91
1.06
-5.93
-7.14
-2.06
6.10
12.31
12.65
6.60
-2.65
-10.01
-11.46
-6.36
2.11
8.84
9.73
4.14
-4.75
-11.79
-12.83
-7.27
1.65
8.66
9.60
3.79
-5.54
-13.15
-14.74
-9.48
-0.43
7.21
9.10
4.22
-4.53
-11.99
-13.73
-8.63
0.49
8.40
10.57
5.73
-3.30
-11.29
-13.61
-8.91
0.06
8.11
10.60
6.17
-2.52
-10.30
-12.54
-7.80
1.32
9.69
12.65
8.70
0.34
-7.34
-9.71
-5.27
3.36
11.06
13.18
8.39
-0.50
-8.23
-10.18
-5.12
4.03
11.94
13.99
8.88
-0.54
-9.05
-12.00
-8.05
0.15
7.50
9.45
4.66
-4.18
-11.95
-14.03
-9.03
0.38
9.06
12.37
8.87
1.13
-5.92
-7.93
-3.72
4.07
10.59
11.74
6.49
-2.47
-10.36
-13.03
-9.30
-1.63
5.37
7.62
3.90
-3.42
-9.74
-10.96
-5.85
3.10
11.16
14.01
10.24
2.16
-5.62
-8.84
-6.04
0.63
6.85
8.62
4.63
-2.99
-9.92
-12.21
-8.51
-0.95
6.18
8.89
5.78
-1.04
-7.30
-9.04
-4.97
2.70
9.56
11.60
7.52
-0.47
-8.00
-11.00
-8.04
-1.09
5.65
8.24
5.22
-1.54
-7.88
-9.81
-5.82
2.12
9.72
12.77
9.69
2.44
-4.58
-7.13
-3.70
3.62
10.41
12.58
8.78
1.25
-5.65
-8.00
-4.63
2.26
8.44
10.12
6.12
-1.47
-8.55
-11.34
-8.45
-1.73
4.83
7.38
4.36
-2.58
-9.51
-12.41
-9.59
-2.73
4.06
6.61
3.20
-4.24
-11.22
-13.28
-8.75
0.18
8.63
11.94
8.45
0.54
-6.71
-8.68
-3.88
5.08
13.08
15.53
11.07
2.31
-5.81
-8.87
-5.55
1.79
8.50
10.47
6.33
-1.81
-9.64
-13.14
-10.77
-4.33
2.13
4.67
1.66
-5.24
-12.01
-14.56
-11.17
-3.56
4.07
7.43
4.71
-2.28
-9.13
-11.42
-7.38
0.96
9.01
12.30
9.18
1.83
-5.12
-7.32
-3.28
4.75
12.20
14.90
11.48
4.17
-2.67
-5.06
-1.73
5.20
11.56
13.56
9.94
2.63
-4.42
-7.49
-5.18
0.86
6.87
9.18
6.22
-0.58
-7.60
-11.02
-9.07
-2.98
3.62
6.78
4.47
-2.11
-9.18
-12.51
-9.92
-2.70
5.07
8.92
6.61
-0.38
-7.74
-10.81
-7.51
0.41
8.36
11.71
8.61
1.16
-5.90
-8.06
-3.79
4.52
12.01
14.27
9.95
1.52
-6.25
-9.12
-5.79
1.38
7.85
9.56
5.25
-2.86
-10.39
-13.31
-10.21
-3.09
3.78
6.31
2.89
-4.67
-12.16
-15.31
-12.24
-4.58
3.49
7.54
5.45
-1.42
-8.99
-12.79
-10.51
-3.37
4.67
9.15
7.70
1.39
-5.95
-9.98
-8.43
-2.36
4.51
8.07
6.31
0.55
-5.40
-7.52
-4.10
3.24
10.44
13.42
10.58
3.74
-2.86
-5.06
-1.27
6.50
13.78
16.23
12.23
3.83
-4.28
-7.56
-4.21
3.70
11.44
14.30
10.34
1.48
-7.58
-12.14
-10.10
-3.17
4.26
7.71
5.18
-1.74
-8.90
-12.10
-9.54
-2.81
4.08
7.10
4.62
-1.67
-7.75
-9.66
-5.88
1.74
9.03
11.89
8.70
1.26
-6.22
-9.58
-7.07
-0.32
6.68
9.86
7.44
0.86
-6.08
-9.50
-7.65
-1.83
4.36
7.19
4.94
-1.13
-7.51
-10.53
-8.45
-2.50
3.87
6.96
4.98
-0.92
-7.29
-10.40
-8.38
-2.35
4.22
7.52
5.56
-0.62
-7.52
-11.21
-9.52
-3.41
3.60
7.45
5.90
-0.12
-6.98
-10.48
-8.31
-1.48
6.19
10.29
8.40
1.57
-6.16
-10.20
-8.03
-0.85
7.15
11.26
9.09
2.08
-5.37
-8.51
-5.16
2.89
10.99
14.38
11.10
3.21
-4.51
-7.41
-3.76
4.27
11.94
14.73
10.97
2.71
-5.57
-9.53
-7.44
-1.03
5.55
8.18
5.05
-2.31
-9.91
-13.55
-11.23
-4.30
3.25
7.08
4.98
-1.70
-8.81
-11.81
-8.44
-0.22
8.39
12.60
10.14
2.68
-5.19
-8.67
-5.60
2.25
10.31
13.88
10.90
3.04
-5.38
-9.89
-8.40
-2.34
4.28
7.27
4.59
-2.38
-9.70
-13.10
-10.48
-3.19
4.67
8.61
6.45
-0.34
-7.45
-10.25
-6.58
1.87
10.54
14.64
12.00
4.25
-4.16
-8.62
-6.98
-0.72
6.01
8.84
5.72
-1.93
-10.07
-14.30
-12.41
-5.63
2.06
6.24
4.62
-1.52
-8.09
-10.60
-6.92
1.34
9.72
13.56
10.78
3.15
-4.77
-8.34
-5.59
1.72
9.15
12.27
9.18
1.50
-6.61
-10.88
-9.27
-3.10
3.80
7.23
5.06
-1.57
-8.88
-12.53
-10.19
-2.96
5.23
9.87
8.56
2.50
-4.22
-7.05
-3.80
3.95
11.84
15.26
12.19
4.35
-3.84
-7.89
-5.81
0.75
7.62
10.53
7.57
0.22
-7.55
-11.56
-9.78
-3.49
3.49
6.99
4.94
-1.42
-8.14
-10.93
-7.68
0.12
8.22
12.03
9.43
2.06
-5.58
-8.83
-5.64
2.17
10.01
13.25
9.92
1.82
-6.64
-11.02
-9.32
-3.15
3.41
6.17
3.25
-3.81
-10.92
-13.79
-10.41
-2.34
6.15
10.41
8.17
0.91
-6.91
-10.40
-7.18
1.17
10.03
14.38
11.79
3.79
-5.08
-9.94
-8.38
-1.80
5.54
9.08
6.55
-0.75
-8.76
-12.98
-11.08
-4.19
3.73
8.22
6.91
0.89
-5.90
-9.04
-6.30
0.97
8.62
12.16
9.44
1.94
-6.08
-10.09
-7.92
-1.01
6.42
9.87
7.12
-0.53
-8.93
-13.47
-11.67
-4.60
3.74
8.71
7.74
1.82
-5.07
-8.33
-5.55
2.03
10.17
14.18
11.75
4.26
-3.97
-8.28
-6.39
0.31
7.55
10.75
7.66
-0.29
-8.79
-13.12
-10.88
-3.45
4.85
9.22
7.27
0.41
-6.95
-10.07
-6.77
1.19
9.15
12.34
8.82
0.61
-7.55
-11.03
-8.10
-0.86
6.04
8.23
4.19
-3.91
-11.49
-14.16
-10.24
-1.72
6.89
11.08
8.94
2.15
-4.91
-7.74
-4.29
3.74
11.86
15.37
12.17
4.04
-4.32
-8.02
-4.94
2.95
10.76
13.59
9.54
0.89
-7.14
-9.51
-4.41
5.61
15.02
18.48
13.97
3.84
-6.51
-11.79
-9.84
-2.77
4.44
6.93
2.89
-5.46
-13.22
-15.74
-11.41
-2.65
5.50
8.27
3.94
-5.15
-13.95
-17.55
-14.00
-5.46
3.12
6.86
3.83
-3.86
-11.23
-13.40
-8.49
1.16
10.38
14.11
10.52
1.92
-6.53
-9.90
-6.41
1.60
9.19
11.71
7.60
-0.82
-8.82
-12.00
-8.85
-1.50
5.60
8.26
4.95
-2.45
-9.68
-12.58
-9.42
-1.93
5.71
9.17
6.54
-0.54
-7.74
-10.49
-6.72
1.88
10.76
15.12
12.74
5.27
-2.70
-6.40
-3.68
3.72
11.28
14.38
11.04
2.97
-5.47
-9.88
-8.32
-2.36
4.02
6.77
4.15
-2.39
-9.10
-12.22
-10.07
-4.16
1.80
4.01
0.92
-5.83
-12.16
-13.86
-9.12
0.30
9.88
14.81
12.82
5.48
-2.63
-6.67
-4.39
2.44
9.20
11.16
6.49
-2.66
-11.40
-15.13
-12.29
-5.31
0.89
1.85
-3.72
-13.20
-21.58
-24.24
-19.62
-9.99
-0.12
5.42
4.84
-0.03
-4.87
-5.43
-0.08
9.22
18.04
22.03
19.47
12.33
5.12
2.32
5.67
13.16
20.23
22.49
18.32
9.79
1.41
-2.55
-0.47
5.81
12.26
15.04
12.65
6.57
0.20
-3.16
-2.09
2.27
7.02
9.12
7.00
1.30
-5.52
-10.42
-11.43
-8.64
-4.17
-0.96
-1.08
-4.49
-8.93
-11.21
-9.11
-2.97
4.28
8.75
7.89
2.20
-4.84
-8.75
-6.80
0.19
8.16
12.22
9.58
1.29
-8.28
-14.02
-13.10
-6.60
1.15
5.16
2.69
-5.19
-14.30
-19.73
-18.66
-11.88
-3.25
2.45
2.29
-3.31
-10.80
-15.67
-14.98
-9.05
-1.22
4.08
3.92
-1.51
-9.05
-14.38
-14.53
-9.47
-2.08
3.58
4.63
1.00
-4.60
-8.27
-7.25
-1.54
6.00
11.22
11.13
5.61
-2.39
-8.50
-9.41
-4.85
2.18
7.16
6.77
0.98
-6.75
-11.49
-9.75
-1.71
8.89
16.87
18.84
15.18
9.78
7.57
11.40
20.22
29.70
34.87
33.16
25.95
17.72
13.33
15.10
21.41
27.70
29.17
23.52
12.32
-0.03
-8.77
-11.38
-8.71
-4.21
-1.74
-3.41
-8.56
-14.41
-17.81
-17.01
-12.65
-7.23
-3.72
-3.92
-7.51
-12.19
-14.98
-13.82
-8.81
-2.28
2.43
2.78
-1.50
-8.12
-13.44
-14.46
-10.54
-3.80
2.13
4.17
1.60
-3.53
-7.62
-7.74
-3.34
3.31
8.49
9.25
5.17
-1.33
-6.37
-6.98
-2.82
3.58
8.33
8.49
3.82
-3.03
-8.14
-8.60
-4.26
2.21
6.95
7.17
2.80
-3.51
-8.04
-8.18
-4.01
1.79
5.58
4.91
-0.04
-6.60
-11.21
-11.49
-7.63
-2.24
1.29
0.70
-3.80
-9.73
-13.84
-14.00
-10.43
-5.51
-2.31
-2.82
-6.80
-11.90
-15.07
-14.29
-9.71
-3.55
1.16
2.34
-0.16
-4.42
-7.71
-7.93
-4.81
0.11
4.43
6.36
5.78
4.19
3.85
6.30
11.38
17.24
21.34
21.97
19.23
15.01
11.93
11.78
14.49
18.21
20.43
19.57
15.87
11.30
8.29
8.27
10.76
13.62
14.36
11.60
5.90
-0.56
-5.22
-6.58
-4.92
-2.06
-0.30
-1.02
-4.08
-7.98
-10.76
-11.17
-9.28
-6.42
-4.32
-4.14
-5.84
-8.21
-9.60
-8.86
-6.06
-2.44
0.27
0.84
-0.76
-3.28
-4.98
-4.58
-2.11
1.11
3.23
2.97
0.44
-2.90
-5.09
-4.79
-2.13
1.34
3.55
3.09
0.01
-4.12
-7.16
-7.52
-5.10
-1.37
1.48
1.75
-0.77
-4.64
-7.56
-7.70
-4.76
-0.20
3.60
4.67
2.60
-1.27
-4.67
-5.77
-4.23
-1.28
1.09
1.49
-0.11
-2.36
-3.46
-2.33
0.69
3.92
5.33
3.74
-0.49
-5.48
-8.83
-8.79
-5.28
0.06
4.69
6.53
5.05
1.60
-1.44
-2.04
0.23
3.90
6.50
6.13
2.70
-1.93
-4.99
-4.49
-0.53
4.76
8.34
8.12
4.18
-1.25
-5.13
-5.31
-1.83
3.15
6.63
6.56
2.98
-2.01
-5.45
-5.20
-1.20
4.57
9.15
10.32
7.72
3.12
-0.68
-1.42
1.32
5.90
9.57
10.06
6.88
1.62
-2.97
-4.57
-2.68
1.19
4.35
4.62
1.55
-3.26
-7.16
-8.00
-5.45
-1.15
2.22
2.58
-0.32
-4.76
-8.08
-8.23
-4.99
-0.11
3.72
4.50
1.96
-2.24
-5.61
-6.29
-4.05
-0.40
2.38
2.60
0.11
-3.70
-6.71
-7.32
-5.29
-1.87
0.94
1.56
-0.35
-3.64
-6.36
-6.82
-4.59
-0.76
2.61
3.73
2.03
-1.38
-4.36
-4.98
-2.71
1.24
4.62
5.49
3.38
-0.39
-3.48
-3.95
-1.44
2.62
5.88
6.42
3.88
-0.34
-3.93
-5.03
-3.24
0.14
2.93
3.38
1.13
-2.60
-5.69
-6.36
-4.18
-0.35
3.02
4.11
2.46
-0.76
-3.34
-3.39
-0.45
4.15
8.00
9.02
6.67
2.32
-1.49
-2.56
-0.30
3.91
7.54
8.39
5.89
1.38
-2.65
-4.06
-2.30
1.34
4.48
5.07
2.57
-1.77
-5.62
-6.90
-4.96
-0.96
2.81
4.25
2.62
-1.01
-4.40
-5.40
-3.31
0.74
4.36
5.38
3.10
-1.22
-5.05
-6.10
-3.67
0.90
5.00
6.31
4.12
-0.27
-4.38
-6.02
-4.52
-1.09
2.01
2.85
0.93
-2.60
-5.65
-6.43
-4.45
-0.78
2.61
3.92
2.53
-0.68
-3.89
-5.27
-4.06
-0.94
2.31
3.85
2.81
-0.18
-3.36
-4.81
-3.58
-0.28
3.22
4.90
3.76
0.48
-2.97
-4.46
-2.93
0.88
4.85
6.75
5.49
1.84
-2.05
-3.89
-2.61
0.94
4.57
6.04
4.41
0.65
-2.95
-4.16
-2.11
2.12
6.13
7.63
5.74
1.56
-2.55
-4.32
-2.95
0.51
3.75
4.69
2.61
-1.36
-4.99
-6.24
-4.48
-0.78
2.69
3.94
2.30
-1.26
-4.72
-6.16
-4.85
-1.62
1.64
3.10
1.97
-1.04
-4.12
-5.46
-4.23
-1.10
2.13
3.56
2.30
-0.98
-4.41
-5.94
-4.59
-1.01
2.83
4.81
3.87
0.67
-2.73
-4.12
-2.44
1.51
5.59
7.49
6.17
2.45
-1.43
-3.19
-1.80
1.81
5.41
6.76
4.94
0.92
-3.04
-4.77
-3.39
0.13
3.63
5.04
3.55
0.03
-3.49
-5.08
-3.92
-0.80
2.41
3.84
2.61
-0.66
-4.25
-6.32
-5.90
-3.43
-0.46
1.25
0.72
-1.67
-4.38
-5.62
-4.38
-1.10
2.55
4.59
3.90
0.91
-2.64
-4.60
-3.72
-0.39
3.55
5.87
5.24
2.07
-1.75
-3.89
-3.01
0.43
4.42
6.62
5.71
2.25
-1.70
-3.80
-2.83
0.54
4.21
5.87
4.45
0.73
-3.13
-4.89
-3.61
-0.11
3.46
4.99
3.57
0.01
-3.70
-5.57
-4.73
-1.86
1.20
2.61
1.53
-1.41
-4.51
-5.95
-4.80
-1.60
1.98
4.04
3.48
0.66
-2.82
-4.98
-4.60
-1.93
1.42
3.44
2.87
0.03
-3.33
-5.07
-3.89
-0.20
4.06
6.63
6.15
3.10
-0.53
-2.38
-1.20
2.43
6.39
8.34
7.05
3.18
-1.12
-3.53
-2.88
0.19
3.64
5.27
4.02
0.52
-3.26
-5.25
-4.41
-1.35
2.07
3.82
2.83
-0.41
-4.12
-6.30
-5.78
-2.92
0.63
2.85
2.47
-0.28
-3.87
-6.26
-6.09
-3.48
0.06
2.50
2.43
-0.06
-3.45
-5.60
-5.07
-1.95
2.10
4.85
4.70
1.73
-2.38
-5.29
-5.35
-2.61
1.23
3.87
3.69
0.83
-2.94
-5.26
-4.58
-1.16
3.12
5.81
5.38
2.16
-1.88
-4.29
-3.60
-0.20
3.86
6.13
5.16
1.41
-3.03
-5.69
-5.11
-1.68
2.60
5.37
5.21
2.50
-0.87
-2.67
-1.63
1.79
5.65
7.70
6.65
3.00
-1.29
-3.91
-3.45
-0.33
3.56
5.89
5.28
2.07
-1.86
-4.22
-3.64
-0.51
3.27
5.40
4.49
0.94
-3.35
-6.06
-5.80
-2.87
0.91
3.35
3.10
0.44
-3.00
-5.15
-4.78
-2.19
1.00
2.87
2.30
-0.31
-3.33
-4.83
-3.74
-0.52
3.12
5.20
4.57
1.60
-2.07
-4.46
-4.35
-2.00
1.10
3.06
2.70
0.23
-2.90
-4.88
-4.53
-2.04
1.15
3.26
3.10
0.85
-2.08
-3.90
-3.46
-0.96
2.17
4.10
3.67
1.06
-2.28
-4.46
-4.22
-1.63
1.98
4.71
5.20
3.35
0.34
-2.08
-2.54
-0.91
1.72
3.66
3.65
1.56
-1.43
-3.62
-3.71
-1.64
1.40
3.65
3.81
1.79
-1.22
-3.47
-3.67
-1.69
1.27
3.42
3.37
0.88
-2.90
-6.08
-7.02
-5.20
-1.55
2.08
3.93
3.29
0.95
-1.32
-1.79
0.15
3.62
6.73
7.74
6.12
2.92
0.18
-0.30
1.98
5.82
9.10
9.94
7.89
4.15
0.85
-0.26
1.19
3.94
5.94
5.57
2.65
-1.47
-4.68
-5.40
-3.44
-0.21
2.18
2.08
-0.71
-4.85
-8.20
-8.97
-6.81
-2.99
0.35
1.39
-0.27
-3.38
-5.78
-5.74
-3.06
0.85
3.77
4.10
1.86
-1.30
-3.16
-2.35
0.77
4.28
5.93
4.48
0.60
-3.56
-5.53
-4.00
0.36
5.19
7.74
6.37
1.56
-4.23
-7.82
-6.97
-1.70
5.56
11.23
12.42
8.30
0.50
-7.88
-13.70
-14.81
-10.39
-0.82
12.46
27.03
39.53
46.46
45.27
35.57
19.63
1.64
-13.90
-23.97
-27.78
-26.57
-22.40
-17.15
-12.20
-8.51
-6.76
-7.27
-9.55
-12.32
-13.86
-13.01
-9.81
-5.43
-1.48
1.02
2.18
2.95
4.29
6.24
7.83
7.77
5.42
1.45
-2.44
-4.51
-4.02
-1.65
0.92
2.01
0.90
-1.87
-4.85
-6.54
-6.13
-3.97
-1.26
0.51
0.42
-1.44
-3.98
-5.69
-5.48
-3.30
-0.21
2.22
2.73
1.09
-1.78
-4.38
-5.45
-4.67
-2.70
-0.77
0.05
-0.61
-2.29
-4.01
-4.79
-4.20
-2.56
-0.69
0.49
0.51
-0.36
-1.32
-1.46
-0.36
1.60
3.44
4.16
3.38
1.63
0.09
-0.17
1.18
3.42
5.27
5.59
4.15
1.78
-0.11
-0.40
1.08
3.44
5.25
5.36
3.61
0.87
-1.43
-2.17
-1.09
1.02
2.82
3.15
1.70
-0.83
-3.11
-3.90
-2.74
-0.28
2.11
3.02
1.84
-0.85
-3.58
-4.76
-3.65
-0.82
2.17
3.59
2.60
-0.25
-3.30
-4.77
-3.78
-0.94
2.07
3.42
2.29
-0.71
-3.85
-5.35
-4.36
-1.51
1.59
3.23
2.59
0.20
-2.42
-3.68
-2.83
-0.37
2.26
3.53
2.68
0.21
-2.41
-3.61
-2.64
-0.04
2.67
3.82
2.63
-0.31
-3.36
-4.78
-3.74
-0.80
2.39
4.03
3.24
0.49
-2.61
-4.30
-3.62
-1.00
2.03
3.71
3.01
0.28
-3.00
-5.11
-5.02
-3.05
-0.60
0.65
-0.20
-2.74
-5.52
-6.94
-6.23
-3.94
-1.59
-0.73
-2.01
-4.78
-7.49
-8.60
-7.52
-4.92
-2.32
-1.25
-2.29
-4.80
-7.26
-8.09
-6.54
-3.15
0.49
2.66
2.39
0.11
-2.57
-3.73
-2.23
1.58
6.05
9.11
9.51
7.43
4.40
2.32
2.34
4.31
6.92
8.62
8.57
7.14
5.58
5.25
6.82
9.79
12.83
14.49
14.05
11.91
9.39
8.00
8.56
10.74
13.26
14.60
13.93
11.64
9.10
7.90
8.93
11.76
14.92
16.71
16.17
13.57
10.21
7.63
6.70
7.18
7.91
7.62
5.71
2.67
-0.26
-1.87
-1.76
-0.61
0.17
-0.69
-3.53
-7.58
-11.31
-13.34
-13.19
-11.54
-9.77
-9.18
-10.27
-12.45
-14.50
-15.27
-14.41
-12.49
-10.71
-10.09
-10.88
-12.40
-13.41
-12.93
-10.79
-7.85
-5.47
-4.74
-5.81
-7.87
-9.65
-10.15
-9.20
-7.33
-5.37
-3.85
-2.75
-1.65
0.01
2.49
5.68
9.09
12.09
14.03
14.47
13.31
10.88
7.90
5.25
3.54
2.91
2.94
3.01
2.68
1.98
1.32
1.13
1.47
1.95
1.94
1.02
-0.68
-2.45
-3.35
-2.77
-0.77
1.85
3.95
4.68
3.93
2.34
0.91
0.39
0.79
1.48
1.59
0.66
-1.04
-2.63
-3.15
-2.24
-0.40
1.21
1.43
-0.21
-3.14
-6.09
-7.72
-7.42
-5.68
-3.74
-2.93
-3.82
-5.90
-7.85
-8.35
-6.86
-3.99
-1.15
0.21
-0.50
-2.73
-5.13
-6.32
-5.67
-3.67
-1.54
-0.60
-1.45
-3.72
-6.30
-7.97
-8.10
-6.92
-5.36
-4.45
-4.77
-6.09
-7.54
-8.16
-7.44
-5.63
-3.63
-2.46
-2.69
-4.08
-5.71
-6.51
-5.85
-4.00
-1.96
-0.91
-1.49
-3.43
-5.66
-6.99
-6.77
-5.31
-3.62
-2.83
-3.51
-5.37
-7.48
-8.86
-9.07
-8.46
-7.94
-8.45
-10.35
-13.16
-15.85
-17.45
-17.68
-17.20
-17.24
-18.87
-22.28
-26.61
-30.39
-32.41
-32.45
-31.44
-30.88
-31.91
-34.54
-37.48
-38.84
-37.01
-31.52
-23.14
-13.36
-3.50
5.95
15.31
25.12
35.33
44.96
52.32
55.92
55.30
51.46
46.42
42.34
40.56
41.04
42.63
43.64
42.84
39.91
35.64
31.37
28.27
26.69
26.02
25.09
22.93
19.42
15.44
12.37
11.28
12.22
14.08
15.18
14.11
10.56
5.50
0.68
-2.27
-2.67
-1.13
0.85
1.63
0.28
-2.98
-7.02
-10.44
-12.30
-12.54
-11.87
-11.31
-11.53
-12.60
-13.92
-14.66
-14.24
-12.64
-10.42
-8.35
-6.93
-6.08
-5.17
-3.52
-0.89
2.16
4.60
5.45
4.53
2.58
1.00
0.98
2.89
5.97
8.85
10.31
10.03
8.71
7.68
8.02
9.85
12.20
13.52
12.59
9.37
5.12
1.79
0.93
2.79
6.06
8.60
8.61
5.70
1.10
-3.06
-4.94
-4.05
-1.51
0.63
0.63
-1.93
-5.91
-9.27
-10.22
-8.29
-4.52
-0.84
0.98
0.33
-2.06
-4.64
-6.02
-5.74
-4.48
-3.53
-3.95
-5.91
-8.59
-10.65
-10.99
-9.34
-6.39
-3.40
-1.55
-1.37
-2.54
-4.07
-4.88
-4.39
-2.78
-0.91
0.25
0.14
-1.05
-2.52
-3.32
-2.93
-1.62
-0.22
0.30
-0.49
-2.26
-3.99
-4.58
-3.50
-1.18
1.23
2.45
1.75
-0.58
-3.49
-5.72
-6.49
-5.88
-4.65
-3.75
-3.71
-4.43
-5.25
-5.44
-4.65
-3.08
-1.38
-0.25
-0.04
-0.56
-1.12
-0.99
0.23
2.27
4.32
5.42
5.05
3.46
1.64
0.77
1.50
3.51
5.64
6.52
5.50
3.08
0.72
-0.07
1.37
4.32
7.09
7.99
6.38
3.09
-0.05
-1.25
0.13
3.21
6.12
7.05
5.37
2.01
-1.07
-2.01
-0.20
3.32
6.49
7.35
5.29
1.38
-2.23
-3.57
-2.01
1.37
4.48
5.45
3.66
0.11
-3.18
-4.44
-3.05
0.08
3.11
4.30
3.07
0.21
-2.56
-3.70
-2.69
-0.41
1.49
1.54
-0.67
-4.30
-7.76
-9.61
-9.33
-7.53
-5.50
-4.50
-5.10
-6.91
-8.86
-9.81
-9.17
-7.26
-5.07
-3.79
-4.02
-5.52
-7.28
-8.13
-7.43
-5.44
-3.11
-1.55
-1.30
-2.01
-2.66
-2.16
0.01
3.39
6.77
8.81
8.79
7.05
4.83
3.62
4.26
6.52
9.22
10.95
10.89
9.29
7.26
6.04
6.31
7.74
9.27
9.75
8.67
6.53
4.54
4.01
5.58
8.87
12.64
15.46
16.42
15.57
13.72
11.88
10.65
9.94
9.08
7.27
4.12
-0.10
-4.52
-8.11
-10.16
-10.70
-10.43
-10.36
-11.20
-12.92
-14.70
-15.41
-14.34
-11.83
-9.24
-8.32
-10.20
-14.59
-19.83
-23.58
-24.07
-20.90
-15.27
-9.27
-4.81
-2.68
-2.37
-2.56
-2.02
-0.36
1.82
3.37
3.43
1.99
-0.13
-1.78
-2.19
-1.56
-0.82
-1.03
-2.68
-5.15
-6.90
-6.36
-2.70
3.69
11.33
18.29
23.04
24.98
24.49
22.56
20.17
17.81
15.31
12.08
7.72
2.45
-2.68
-6.11
-6.72
-4.56
-1.02
1.74
2.07
-0.17
-3.49
-5.66
-5.22
-2.48
0.65
1.86
-0.11
-4.62
-9.40
-11.94
-10.93
-7.00
-2.35
0.52
0.21
-2.82
-6.51
-8.40
-7.01
-2.71
2.43
5.84
5.92
2.95
-1.08
-3.64
-3.16
0.04
4.00
6.30
5.49
1.95
-2.41
-5.28
-5.26
-2.58
1.05
3.54
3.59
1.39
-1.52
-3.20
-2.44
0.55
4.25
6.73
6.75
4.43
1.20
-1.14
-1.41
0.25
2.51
3.67
2.64
-0.44
-4.28
-7.14
-7.78
-6.12
-3.17
-0.55
0.46
-0.44
-2.43
-4.10
-4.25
-2.59
0.05
2.20
2.61
1.01
-1.74
-4.13
-4.86
-3.61
-1.22
0.82
1.24
-0.24
-2.74
-4.72
-4.90
-3.00
0.04
2.55
3.17
1.64
-0.98
-2.88
-2.59
0.08
3.89
6.85
7.35
5.18
1.71
-0.97
-1.24
1.00
4.27
6.38
5.78
2.46
-1.97
-5.24
-5.75
-3.45
0.13
2.81
3.04
0.72
-2.73
-5.30
-5.53
-3.35
-0.09
2.25
2.25
-0.14
-3.41
-5.34
-4.16
0.32
6.45
11.57
13.43
11.49
7.37
3.96
3.73
7.28
12.86
17.45
18.49
15.53
10.50
6.60
6.34
10.05
15.73
20.20
21.03
17.91
12.72
8.31
6.84
8.52
11.68
13.79
13.01
9.26
4.20
0.25
-0.86
0.93
3.88
5.46
3.84
-1.07
-7.38
-12.25
-13.40
-10.41
-4.97
-0.03
1.64
-1.14
-7.53
-15.17
-21.49
-24.92
-25.53
-24.69
-24.09
-24.77
-26.54
-28.25
-28.65
-27.26
-24.84
-23.06
-23.50
-26.62
-31.35
-35.55
-37.16
-35.36
-31.20
-27.03
-25.38
-27.59
-33.10
-39.74
-44.85
-46.53
-44.63
-40.66
-36.97
-35.49
-36.88
-40.31
-44.06
-46.37
-45.81
-41.45
-32.43
-17.65
3.80
31.51
62.92
93.28
116.94
129.56
130.15
121.73
110.23
101.82
100.41
106.21
116.01
124.86
128.13
123.08
109.34
88.53
63.37
36.77
11.24
-11.33
-29.70
-43.16
-51.42
-54.60
-53.40
-49.25
-44.00
-39.48
-37.05
-37.14
-39.17
-41.99
-44.37
-45.43
-44.85
-42.93
-40.37
-38.05
-36.65
-36.37
-36.80
-37.07
-36.23
-33.69
-29.56
-24.54
-19.60
-15.45
-12.17
-9.25
-5.93
-1.68
3.41
8.66
13.08
15.90
16.97
16.93
16.85
17.71
19.89
22.98
26.02
28.06
28.69
28.25
27.66
27.83
29.16
31.32
33.36
34.20
33.13
30.08
25.56
20.32
15.01
9.94
5.16
0.62
-3.65
-7.41
-10.31
-12.14
-12.95
-13.19
-13.59
-14.91
-17.64
-21.64
-26.23
-30.36
-33.09
-34.00
-33.41
-32.12
-30.97
-30.32
-29.81
-28.62
-26.00
-21.74
-16.45
-11.26
-7.22
-4.72
-3.27
-1.87
0.34
3.38
6.35
7.93
7.29
4.81
2.04
0.87
2.42
6.19
10.15
11.82
9.69
4.23
-2.25
-6.76
-7.19
-3.50
2.35
7.44
9.50
8.05
4.55
1.41
0.67
2.79
6.56
9.86
10.97
9.62
7.11
5.50
6.30
9.48
13.32
15.28
13.45
7.70
-0.04
-6.77
-9.98
-9.01
-5.42
-2.12
-1.73
-5.02
-10.46
-15.08
-16.17
-12.85
-6.58
-0.39
2.83
2.00
-1.54
-4.82
-4.98
-0.98
5.79
12.16
15.04
13.16
7.76
1.89
-1.42
-0.89
2.24
4.98
4.43
-0.32
-7.54
-13.75
-15.72
-12.32
-5.29
1.77
5.45
4.48
0.38
-3.56
-4.23
-0.61
5.66
11.31
13.44
11.29
6.71
3.00
2.85
6.69
12.32
16.10
15.15
9.09
0.35
-7.22
-10.51
-8.99
-5.01
-2.38
-4.05
-10.22
-18.11
-23.47
-23.03
-16.44
-6.57
2.04
5.75
3.83
-1.14
-4.92
-4.17
1.52
9.36
15.02
15.24
9.86
1.92
-4.17
-5.24
-1.32
4.40
7.47
4.85
-3.18
-13.11
-20.15
-20.85
-15.05
-5.87
2.10
5.31
3.20
-1.71
-5.43
-4.90
0.30
7.74
13.64
15.08
11.72
5.94
1.40
0.92
4.86
10.91
15.42
15.44
10.41
2.36
-5.30
-9.72
-10.18
-8.33
-7.10
-8.82
-13.67
-19.50
-23.03
-21.78
-15.55
-6.65
1.36
5.59
5.41
2.58
0.16
0.62
4.43
9.86
14.10
14.99
12.29
7.79
4.19
3.45
5.65
8.89
10.50
8.57
3.13
-3.81
-9.40
-11.47
-9.66
-5.49
-1.36
0.83
0.78
-0.28
-0.39
1.73
5.90
10.49
13.36
13.13
10.03
5.80
2.74
2.38
4.66
7.97
10.07
9.38
5.85
0.90
-3.44
-5.78
-6.12
-5.75
-6.36
-8.89
-12.86
-16.64
-18.34
-16.94
-12.91
-7.92
-3.82
-1.69
-1.29
-1.36
-0.56
1.68
4.84
7.69
9.13
8.85
7.56
6.44
6.38
7.43
8.71
9.04
7.58
4.35
0.24
-3.56
-6.17
-7.43
-7.78
-7.86
-7.93
-7.73
-6.58
-3.97
-0.01
4.47
8.22
10.22
10.16
8.61
6.67
5.45
5.47
6.53
7.91
8.82
8.83
7.99
6.69
5.26
3.68
1.59
-1.49
-5.69
-10.54
-15.07
-18.20
-19.30
-18.54
-16.90
-15.58
-15.31
-15.88
-16.26
-15.13
-11.79
-6.59
-0.86
3.77
6.28
6.76
6.30
6.27
7.47
9.69
11.83
12.68
11.63
9.06
6.08
3.84
2.83
2.62
2.14
0.36
-2.97
-7.09
-10.55
-11.95
-10.67
-7.17
-2.79
0.96
3.16
3.84
3.86
4.34
5.94
8.49
11.09
12.62
12.40
10.60
8.13
6.16
5.42
5.87
6.68
6.74
5.28
2.29
-1.49
-4.99
-7.41
-8.61
-9.12
-9.77
-11.02
-12.68
-13.92
-13.73
-11.59
-7.82
-3.53
0.01
2.04
2.68
2.72
3.11
4.30
5.92
7.09
7.03
5.63
3.58
2.01
1.76
2.87
4.50
5.35
4.49
1.84
-1.72
-4.89
-6.65
-6.76
-5.82
-4.76
-4.25
-4.22
-4.05
-3.01
-0.81
2.13
4.88
6.55
6.74
5.80
4.54
3.84
4.15
5.38
6.99
8.30
8.76
8.19
6.63
4.31
1.46
-1.68
-4.86
-7.86
-10.49
-12.65
-14.32
-15.56
-16.32
-16.42
-15.53
-13.42
-10.12
-6.04
-1.91
1.55
3.91
5.22
5.95
6.64
7.61
8.77
9.76
10.15
9.81
8.92
7.88
6.94
6.00
4.66
2.47
-0.69
-4.43
-7.83
-9.94
-10.15
-8.52
-5.69
-2.51
0.35
2.66
4.55
6.22
7.72
8.84
9.36
9.26
8.87
8.73
9.25
10.39
11.60
12.03
11.06
8.54
4.88
0.80
-3.10
-6.60
-9.81
-12.95
-15.95
-18.44
-19.95
-20.22
-19.50
-18.37
-17.37
-16.57
-15.40
-12.92
-8.47
-2.17
4.86
10.92
14.44
14.75
12.46
9.15
6.59
5.89
6.99
8.70
9.39
7.80
3.81
-1.52
-6.51
-9.68
-10.47
-9.45
-7.86
-6.77
-6.45
-6.19
-4.88
-1.75
2.91
7.77
11.12
11.82
10.04
7.22
5.36
5.86
8.76
12.67
15.54
15.80
13.18
8.81
4.45
1.42
-0.11
-1.18
-3.22
-7.09
-12.40
-17.65
-21.06
-21.52
-19.25
-15.59
-12.27
-10.43
-10.02
-9.94
-8.80
-5.73
-1.02
4.07
7.94
9.52
8.95
7.39
6.41
7.09
9.41
12.26
14.01
13.46
10.46
5.96
1.47
-1.82
-3.56
-4.36
-5.17
-6.58
-8.24
-9.02
-7.71
-3.82
1.92
7.79
11.92
13.21
11.92
9.46
7.55
7.31
8.75
10.82
12.15
11.77
9.70
6.74
4.00
2.16
1.09
-0.08
-2.39
-6.37
-11.58
-16.73
-20.31
-21.39
-20.16
-17.82
-15.86
-15.16
-15.49
-15.63
-14.22
-10.58
-5.26
0.25
4.32
6.13
6.04
5.41
5.66
7.50
10.51
13.41
14.78
13.92
11.19
7.73
4.84
3.20
2.56
1.97
0.40
-2.51
-6.13
-9.11
-10.04
-8.28
-4.32
0.40
4.16
5.81
5.34
3.76
2.45
2.42
3.69
5.40
6.35
5.83
4.06
2.12
1.20
1.90
3.72
5.29
5.10
2.42
-2.28
-7.50
-11.51
-13.29
-12.98
-11.73
-10.90
-11.23
-12.40
-13.23
-12.54
-9.77
-5.49
-1.05
2.09
3.16
2.48
1.22
0.77
2.01
4.78
8.09
10.50
10.94
9.25
6.14
2.79
0.17
-1.49
-2.69
-4.23
-6.46
-8.94
-10.47
-9.83
-6.48
-1.03
4.95
9.61
11.76
11.34
9.43
7.64
7.25
8.62
11.08
13.31
14.14
13.13
10.69
7.71
5.00
2.73
0.43
-2.64
-6.78
-11.44
-15.27
-16.86
-15.61
-12.37
-9.19
-8.30
-10.72
-15.43
-19.75
-20.70
-16.69
-8.51
0.99
8.40
11.60
10.73
7.98
6.09
6.79
9.88
13.52
15.45
14.33
10.41
5.32
0.93
-1.66
-2.64
-3.25
-4.82
-7.71
-10.96
-12.68
-11.14
-5.86
1.96
9.93
15.57
17.56
16.30
13.64
11.77
12.14
14.69
17.99
20.13
19.72
16.63
11.90
7.00
2.99
-0.05
-2.97
-6.77
-11.82
-17.47
-22.28
-24.84
-24.61
-22.26
-19.36
-17.51
-17.45
-18.58
-19.38
-18.18
-14.17
-7.86
-0.82
5.10
8.69
9.94
9.85
9.80
10.69
12.46
14.11
14.25
11.87
6.91
0.31
-6.40
-11.73
-14.77
-15.40
-14.08
-11.48
-8.13
-4.27
-0.04
4.34
8.49
11.87
14.07
14.96
14.78
13.99
13.12
12.60
12.66
13.36
14.51
15.64
16.05
15.00
12.00
7.14
1.16
-4.74
-9.40
-12.23
-13.38
-13.63
-13.92
-14.79
-16.23
-17.71
-18.61
-18.48
-17.22
-14.90
-11.73
-7.91
-3.66
0.64
4.48
7.34
8.89
9.17
8.52
7.49
6.57
5.97
5.53
4.78
3.14
0.24
-3.89
-8.66
-13.07
-16.02
-16.70
-14.93
-11.12
-6.13
-0.98
3.54
6.98
9.23
10.47
11.05
11.37
11.84
12.70
14.04
15.63
17.06
17.79
17.45
15.93
13.51
10.70
8.03
5.79
3.92
2.07
-0.34
-3.87
-8.81
-15.08
-22.03
-28.35
-32.37
-32.62
-28.77
-22.14
-15.38
-11.25
-11.08
-13.91
-16.92
-17.03
-12.85
-5.57
1.81
6.33
7.04
5.55
4.86
7.27
12.72
18.64
21.55
19.22
12.22
3.62
-2.68
-4.08
-0.78
4.48
8.11
7.73
3.63
-1.59
-4.56
-3.14
2.32
9.18
14.12
14.93
11.81
7.15
4.03
4.56
8.54
13.66
16.70
15.35
9.51
1.30
-6.10
-10.07
-9.98
-7.35
-4.85
-4.68
-7.34
-11.48
-14.96
-16.20
-15.20
-13.32
-12.22
-12.60
-13.61
-13.40
-10.36
-4.23
3.44
10.03
13.16
12.04
7.87
3.28
0.99
2.40
6.87
12.04
15.02
13.85
8.62
1.34
-5.11
-8.50
-8.39
-6.22
-4.29
-4.24
-6.00
-7.82
-7.37
-3.30
3.70
11.08
15.74
15.74
11.54
5.77
1.84
2.08
6.40
12.40
16.69
16.80
12.56
6.03
0.23
-2.56
-2.16
-0.46
-0.18
-3.17
-9.19
-16.04
-20.81
-21.59
-18.55
-13.86
-10.35
-9.84
-12.09
-15.01
-15.92
-13.17
-7.12
0.06
5.59
7.67
6.42
3.73
2.14
3.40
7.47
12.53
16.02
16.07
12.51
6.99
2.05
-0.30
0.28
2.35
3.59
2.26
-1.64
-6.31
-9.09
-8.04
-3.10
3.74
9.50
11.82
10.29
6.56
3.35
2.87
5.54
9.83
13.21
13.71
11.06
6.76
3.06
1.57
2.25
3.42
2.79
-1.08
-7.85
-15.50
-21.40
-23.70
-22.36
-19.07
-16.27
-15.69
-17.39
-19.79
-20.61
-18.24
-12.70
-5.60
0.75
4.64
5.80
5.45
5.35
6.80
9.81
13.24
15.53
15.61
13.53
10.34
7.40
5.63
5.01
4.73
3.72
1.37
-2.04
-5.41
-7.41
-7.10
-4.46
-0.40
3.75
6.84
8.43
8.90
9.10
9.85
11.38
13.27
14.74
15.10
14.20
12.42
10.41
8.63
7.06
5.14
2.20
-2.09
-7.41
-12.80
-17.13
-19.59
-20.13
-19.48
-18.78
-18.97
-20.24
-21.88
-22.62
-21.34
-17.63
-12.13
-6.17
-1.12
2.26
4.12
5.25
6.57
8.53
10.87
12.84
13.67
13.05
11.28
9.09
7.18
5.83
4.76
3.32
0.95
-2.46
-6.29
-9.42
-10.68
-9.49
-6.10
-1.57
2.73
5.78
7.30
7.78
8.12
8.98
10.47
12.04
12.94
12.72
11.52
10.02
8.97
8.62
8.45
7.36
4.30
-1.02
-7.84
-14.53
-19.36
-21.31
-20.66
-18.84
-17.61
-18.10
-20.06
-21.99
-21.94
-18.64
-12.32
-4.66
2.06
6.21
7.59
7.47
7.64
9.34
12.44
15.57
17.04
15.96
12.79
9.16
6.85
6.69
8.01
8.99
7.64
3.11
-3.77
-10.68
-14.99
-15.09
-11.17
-5.17
0.31
3.33
3.51
2.07
0.98
1.73
4.52
8.26
11.26
12.37
11.55
9.88
8.83
9.35
11.23
13.24
13.76
11.72
7.14
1.16
-4.55
-8.68
-10.88
-11.89
-12.94
-14.97
-17.96
-20.91
-22.38
-21.35
-17.85
-13.05
-8.58
-5.70
-4.62
-4.45
-3.81
-1.65
2.09
6.44
9.93
11.47
10.91
9.07
7.28
6.56
7.04
7.94
8.02
6.44
3.24
-0.62
-3.81
-5.30
-4.96
-3.50
-2.04
-1.38
-1.58
-1.96
-1.58
0.11
2.88
5.82
7.87
8.40
7.68
6.65
6.46
7.74
10.18
12.66
13.78
12.60
9.10
4.18
-0.78
-4.65
-7.07
-8.55
-10.08
-12.46
-15.80
-19.41
-22.16
-23.08
-21.89
-19.11
-15.73
-12.64
-10.13
-7.80
-4.91
-0.97
3.81
8.44
11.62
12.46
11.08
8.62
6.77
6.80
8.87
11.84
13.86
13.38
10.06
4.99
0.06
-3.03
-3.73
-2.88
-2.07
-2.62
-4.70
-7.21
-8.37
-6.84
-2.52
3.26
8.50
11.62
12.29
11.56
11.13
12.22
14.90
17.97
19.84
19.49
17.07
13.78
11.01
9.33
8.19
6.24
2.28
-3.84
-10.95
-17.17
-20.85
-21.55
-20.18
-18.52
-18.16
-19.56
-21.82
-23.16
-21.87
-17.38
-10.55
-3.33
2.29
5.19
5.64
5.00
4.81
5.93
8.04
10.00
10.63
9.42
6.91
4.27
2.59
2.12
2.15
1.40
-1.14
-5.37
-9.95
-12.81
-12.10
-7.25
0.62
9.07
15.38
17.74
16.13
12.28
8.83
8.00
10.41
14.78
18.58
19.42
16.44
10.81
5.17
2.07
2.54
5.57
8.67
9.54
7.42
3.26
-1.20
-5.15
-9.46
-16.01
-25.55
-35.90
-42.17
-39.50
-26.65
-8.04
7.75
