1541859525.00
64.000000
-0.00
-0.00
-0.00
-0.00
-0.00
-0.00
-0.00
-0.00
-0.00
-0.01
-0.00
0.00
0.01
0.01
-0.00
-0.03
-0.05
-0.05
-0.00
0.13
0.36
0.66
1.01
1.37
1.72
2.06
2.40
2.77
3.24
3.80
4.43
5.08
5.70
6.27
6.80
7.35
7.97
8.81
9.86
11.08
12.36
13.57
14.69
15.77
16.97
18.43
20.47
23.04
25.97
29.01
31.88
34.52
37.08
39.93
43.36
47.98
53.71
60.25
67.06
73.68
79.89
85.90
92.27
99.46
108.35
118.80
130.36
142.28
153.86
164.85
175.55
187.67
199.26
212.11
226.55
243.05
261.77
281.95
301.36
316.30
322.33
315.56
294.68
260.61
216.71
167.42
116.90
68.07
22.34
-20.11
-59.95
-97.76
-134.39
-170.12
-204.67
-236.91
-265.19
-288.11
-305.30
-317.73
-327.05
-335.35
-344.24
-354.78
-367.68
-383.47
-401.38
-418.55
-429.73
-428.58
-410.55
-375.47
-328.60
-279.29
-237.04
-207.30
-189.41
-177.59
-164.83
-147.20
-125.65
-104.42
-87.64
-76.21
-67.18
-55.92
-39.34
-18.37
1.98
15.34
18.07
11.92
3.72
1.61
10.30
28.21
48.32
61.91
62.92
51.44
33.96
19.98
17.16
27.45
46.41
65.72
77.97
80.20
74.79
67.25
62.76
63.29
66.16
65.95
57.95
41.46
20.78
3.30
-4.59
-0.88
10.72
22.84
28.31
23.90
12.25
0.53
-3.68
3.16
18.04
33.23
40.84
37.83
27.81
18.56
16.85
24.10
35.58
43.60
42.79
33.38
21.10
13.28
14.05
21.90
30.59
33.09
25.75
10.64
-5.46
-14.58
-11.78
2.39
21.87
38.34
45.55
42.40
33.10
24.49
21.82
25.79
32.06
33.99
26.87
10.97
-8.10
-22.21
-25.14
-16.13
-0.53
12.82
16.35
7.89
-8.09
-23.06
-29.25
-24.28
-12.59
-2.84
-2.84
-14.53
-32.57
-47.54
-51.47
-42.47
-25.82
-10.73
-4.72
-9.34
-19.71
-27.72
-27.07
-17.11
-3.33
6.11
5.13
-6.53
-22.86
-34.83
-35.54
-23.88
-5.22
11.52
18.94
15.12
4.33
-5.72
-8.66
-3.15
6.46
12.99
10.89
-0.32
-15.61
-27.21
-28.88
-19.37
-3.14
11.85
18.53
14.90
5.52
-1.05
2.77
18.67
40.78
58.95
64.80
56.68
40.73
26.94
23.05
30.25
42.78
51.58
49.71
36.29
17.00
1.01
-4.11
3.54
19.06
33.39
38.46
31.79
17.92
5.45
1.99
9.56
23.52
35.60
38.64
30.88
16.90
4.78
1.55
9.23
23.67
36.68
40.86
33.90
20.22
8.49
6.23
15.14
29.83
41.02
41.42
30.16
13.48
0.64
-1.73
6.71
20.06
29.88
29.88
19.34
3.55
-9.09
-11.80
-3.26
11.20
22.32
22.25
9.78
-8.50
-22.00
-22.53
-9.70
8.79
22.08
22.92
11.74
-4.09
-15.20
-15.81
-6.58
6.58
16.02
16.51
7.48
-6.50
-18.14
-20.79
-12.08
4.28
19.72
25.35
17.39
0.10
-16.08
-20.79
-10.60
8.67
25.55
30.06
20.24
3.01
-11.11
-14.80
-8.25
1.76
6.85
2.67
-8.93
-21.79
-29.25
-27.81
-18.34
-5.42
5.05
8.04
1.58
-11.69
-25.15
-30.95
-24.27
-6.71
13.50
25.90
24.30
11.18
-3.21
-7.19
4.33
25.93
44.82
48.74
34.29
9.52
-11.38
-17.30
-6.96
10.54
22.04
19.29
3.96
-14.30
-24.45
-21.48
-9.01
3.77
8.63
3.05
-8.69
-19.07
-22.42
-17.73
-8.41
0.36
4.73
3.70
-1.55
-8.47
-14.23
-16.33
-13.22
-5.01
5.69
14.32
16.48
10.64
-0.05
-9.10
-10.11
-1.19
13.10
23.77
22.87
8.89
-11.56
-27.03
-28.19
-13.87
7.86
24.15
25.35
11.32
-8.56
-21.12
-17.85
-0.66
19.02
27.62
17.97
-5.54
-29.26
-38.62
-27.13
-0.52
26.31
38.30
29.14
4.93
-19.66
-30.49
-22.47
-2.48
15.32
18.37
3.72
-19.91
-37.55
-37.17
-17.23
11.88
33.70
35.37
15.19
-16.25
-41.70
-47.14
-29.44
1.92
30.42
41.54
30.76
5.78
-18.26
-27.29
-16.28
8.01
31.28
39.97
28.86
4.45
-19.11
-28.18
-17.68
5.80
27.75
34.34
20.72
-5.86
-29.95
-37.00
-21.94
7.62
35.63
46.91
35.96
10.05
-15.15
-24.96
-14.45
8.82
29.54
34.01
18.42
-8.71
-31.70
-36.99
-21.20
6.61
30.51
36.72
21.56
-6.38
-31.60
-40.47
-28.98
-4.77
17.67
25.55
14.96
-6.94
-26.48
-31.74
-19.63
2.15
19.61
20.96
3.80
-23.00
-43.96
-45.93
-25.93
6.78
35.45
45.12
31.15
1.88
-25.92
-36.37
-23.50
5.28
33.63
45.25
33.17
3.84
-26.63
-41.35
-31.81
-2.70
30.85
51.62
49.35
25.89
-6.23
-31.01
-37.35
-24.10
0.17
22.55
33.01
28.70
14.13
-2.50
-14.41
-19.38
-19.39
-18.23
-18.08
-17.84
-14.80
-7.24
3.23
11.26
10.74
-1.17
-21.39
-40.97
-49.20
-39.66
-14.20
16.91
39.48
42.84
25.78
-2.61
-27.32
-35.23
-22.21
5.10
33.12
48.24
44.10
24.10
-1.42
-20.85
-27.24
-21.19
-8.74
2.64
8.15
8.06
5.71
4.48
5.26
5.69
2.26
-6.32
-17.48
-25.22
-23.24
-9.32
12.60
33.50
43.15
35.67
13.23
-14.42
-34.13
-35.72
-17.48
12.67
40.91
53.91
45.71
20.60
-9.54
-31.32
-36.32
-25.12
-5.57
12.17
20.94
20.23
14.56
9.42
7.33
6.28
1.80
-8.75
-23.26
-34.79
-35.06
-19.83
7.70
37.23
55.60
53.39
30.01
-5.64
-39.13
-57.23
-54.09
-33.32
-5.35
18.02
29.54
29.11
21.90
14.02
8.52
3.73
-4.18
-17.53
-34.14
-47.01
-48.08
-32.79
-3.41
30.58
56.47
64.04
50.14
20.51
-13.06
-38.36
-47.84
-41.53
-25.84
-9.30
2.17
7.81
11.23
16.47
24.16
30.31
28.57
14.73
-9.09
-34.16
-48.90
-44.84
-21.82
11.34
40.90
54.61
47.90
25.59
-1.46
-22.21
-30.83
-28.83
-22.44
-18.09
-18.19
-19.69
-16.57
-4.20
16.99
40.57
56.81
57.45
40.18
10.22
-21.93
-45.49
-54.36
-49.51
-37.50
-26.33
-20.41
-18.36
-14.57
-3.50
15.60
36.95
50.93
49.21
29.90
-0.58
-30.59
-49.09
-51.01
-39.49
-23.06
-10.38
-5.28
-4.87
-2.38
7.82
25.80
45.16
56.24
51.51
30.12
-1.06
-30.80
-48.95
-51.27
-40.84
-25.57
-13.27
-7.26
-4.93
-0.13
11.96
31.01
50.50
60.70
54.29
30.79
-2.33
-32.97
-50.57
-51.04
-38.35
-21.67
-9.64
-5.64
-6.16
-3.63
8.18
29.75
54.52
71.85
72.58
54.17
22.36
-11.57
-36.32
-46.05
-42.56
-33.14
-25.80
-24.10
-25.28
-22.56
-10.09
12.42
38.41
57.34
60.22
44.65
16.40
-13.49
-34.22
-40.55
-34.82
-24.79
-18.51
-19.28
-23.76
-24.22
-14.03
7.57
33.95
53.96
57.94
43.09
15.22
-14.37
-34.95
-41.62
-37.21
-29.46
-25.63
-28.00
-32.23
-30.82
-18.01
6.09
34.43
56.56
63.96
54.46
33.79
12.22
-0.88
-1.89
5.20
11.54
8.98
-4.97
-25.23
-42.03
-46.84
-37.08
-17.59
2.22
14.28
16.13
12.17
10.38
16.88
32.13
50.21
61.98
60.60
45.16
21.94
0.92
-9.63
-7.50
1.97
8.95
4.90
-12.57
-37.83
-60.41
-70.93
-66.04
-50.07
-32.15
-20.33
-17.18
-18.48
-16.55
-5.70
13.93
35.89
50.84
52.29
40.02
21.04
5.52
1.20
9.29
23.26
32.52
28.33
8.63
-20.22
-47.07
-61.95
-61.09
-48.82
-34.29
-25.71
-25.74
-29.97
-30.50
-21.30
-2.10
21.04
39.42
46.99
43.54
35.11
29.88
33.33
45.12
58.91
66.14
60.90
43.33
20.22
1.22
-6.32
-1.40
9.63
16.68
11.42
-7.78
-34.31
-57.12
-66.76
-60.63
-44.72
-29.74
-24.84
-32.37
-46.35
-56.68
-55.29
-40.65
-18.88
0.61
10.70
10.56
6.14
5.84
15.35
34.15
55.29
69.69
70.98
59.27
41.36
26.75
22.60
29.66
41.64
49.12
44.67
27.51
4.28
-14.81
-21.70
-15.26
-2.14
7.26
4.80
-10.50
-31.62
-47.61
-50.01
-37.66
-17.60
-0.95
3.21
-6.85
-24.66
-39.53
-42.78
-33.01
-16.92
-5.28
-6.71
-22.11
-44.03
-60.77
-63.20
-50.12
-28.96
-11.45
-7.04
-17.41
-35.77
-51.15
-54.66
-44.56
-26.77
-10.85
-4.40
-8.28
-16.81
-21.23
-15.32
0.58
20.17
34.66
38.05
30.65
18.61
10.23
11.01
20.50
32.93
40.82
39.45
29.85
17.81
10.65
12.67
22.46
33.91
39.51
34.82
21.23
5.07
-5.70
-6.25
2.45
14.43
22.08
20.73
11.42
0.20
-5.52
-1.36
11.27
25.93
34.58
32.28
20.01
4.10
-7.25
-8.80
-0.93
10.62
18.25
17.25
8.43
-2.21
-7.28
-2.58
10.27
24.52
32.19
28.66
15.56
-0.18
-10.21
-9.47
0.98
14.76
23.83
23.25
13.82
1.79
-5.13
-2.29
9.29
23.32
32.17
31.21
21.67
9.77
2.89
5.13
14.86
25.80
30.68
25.69
12.56
-2.42
-12.19
-13.15
-7.04
-0.14
0.56
-8.80
-26.32
-45.30
-57.89
-59.45
-51.36
-40.44
-35.29
-41.26
-57.18
-75.21
-85.33
-80.74
-61.81
-36.63
-16.35
-9.44
-16.63
-30.55
-40.19
-37.15
-20.73
1.76
19.44
24.32
16.23
2.77
-5.37
-0.68
16.42
38.27
54.62
58.69
51.34
39.85
33.72
38.46
52.58
68.69
77.78
74.57
60.23
41.56
26.73
20.43
21.52
23.77
19.85
5.93
-15.81
-37.83
-51.53
-52.11
-41.17
-26.64
-18.17
-22.16
-37.75
-57.05
-69.73
-68.54
-53.81
-33.37
-17.94
-15.00
-24.00
-36.89
-42.84
-34.81
-14.06
10.66
28.25
31.72
22.61
9.56
3.36
10.30
28.60
49.84
63.77
64.37
52.95
37.05
25.59
23.30
28.28
33.05
29.29
13.08
-12.44
-38.13
-53.96
-54.44
-41.53
-24.05
-12.69
-14.29
-28.02
-45.64
-56.45
-53.02
-35.52
-11.70
7.91
15.75
11.81
2.93
-1.50
4.56
19.97
37.53
48.46
47.93
38.26
27.10
22.81
29.01
42.13
53.53
54.28
40.47
15.65
-10.96
-29.39
-34.44
-28.18
-18.59
-14.83
-21.67
-36.78
-51.66
-56.73
-46.79
-23.84
3.58
25.46
35.45
34.22
28.31
25.48
29.96
39.41
46.56
43.66
27.38
1.64
-24.38
-40.82
-42.65
-32.49
-18.79
-11.04
-14.03
-24.97
-35.25
-35.47
-21.37
3.78
30.50
48.43
51.97
42.92
28.86
18.14
14.81
16.24
15.18
4.51
-17.75
-46.19
-70.28
-79.67
-69.61
-43.61
-11.64
15.04
29.36
31.54
27.56
24.66
26.53
30.87
31.18
21.24
-0.17
-27.31
-49.70
-57.26
-45.85
-19.43
11.72
36.22
47.20
45.16
36.65
29.25
26.84
27.06
23.16
8.70
-17.58
-49.52
-75.91
-85.84
-74.40
-45.54
-10.15
19.11
33.91
33.66
24.65
15.31
10.94
10.75
9.04
-0.21
-18.33
-39.70
-54.10
-52.41
-31.92
1.21
34.85
56.65
59.90
46.43
24.74
5.00
-6.42
-9.32
-8.49
-9.35
-13.72
-18.32
-16.88
-5.05
16.04
38.78
52.31
48.21
25.20
-9.09
-41.46
-58.96
-55.24
-33.04
-2.42
24.43
39.21
40.54
33.20
23.78
16.29
10.16
1.49
-12.64
-30.90
-46.59
-51.13
-38.93
-11.76
20.69
44.95
49.71
31.92
-1.67
-36.98
-59.44
-60.47
-40.80
-9.80
20.10
38.92
43.55
37.28
26.61
16.87
9.49
3.00
-4.55
-12.28
-16.31
-11.88
2.53
22.50
38.85
41.35
24.89
-7.32
-43.55
-68.88
-71.97
-50.78
-14.16
22.44
43.59
41.69
19.65
-10.37
-33.71
-40.12
-28.04
-4.62
19.20
34.04
36.66
29.68
18.89
9.12
1.75
-4.43
-11.06
-17.45
-20.55
-16.65
-5.13
9.89
20.59
19.27
3.14
-23.36
-49.26
-62.45
-55.38
-29.62
4.39
32.12
41.80
30.79
6.53
-16.76
-26.02
-15.61
9.36
36.08
50.76
46.02
24.70
-2.07
-20.83
-23.24
-9.77
11.11
28.17
33.63
26.66
12.94
0.33
-5.49
-4.21
0.49
3.91
3.98
2.41
2.84
7.65
15.07
19.96
16.55
2.83
-17.25
-34.81
-40.69
-30.77
-8.83
14.36
26.76
21.01
-0.82
-28.11
-46.83
-46.94
-27.71
1.99
28.08
38.91
30.84
9.92
-12.18
-24.65
-23.20
-11.51
1.80
8.75
6.67
-0.96
-7.41
-7.53
-1.11
7.09
10.72
6.03
-5.31
-17.07
-22.20
-17.09
-3.62
11.82
22.22
23.67
17.25
7.97
1.60
1.32
6.24
12.45
15.54
13.36
6.94
-0.23
-4.67
-4.86
-2.08
0.68
0.79
-2.29
-6.48
-8.55
-6.30
-0.32
6.18
9.10
6.15
-1.53
-9.76
-13.77
-11.16
-3.59
3.99
6.41
1.27
-9.18
-19.39
-23.56
-19.31
-9.07
1.02
4.72
-0.61
-12.51
-24.48
-29.86
-25.36
-13.17
0.83
10.09
11.53
6.64
0.51
-1.72
2.15
10.22
17.85
20.86
17.69
10.44
3.03
-0.85
-0.06
4.02
8.32
10.13
8.31
3.52
-2.25
-6.83
-8.74
-7.74
-4.44
-0.31
3.26
4.95
4.47
2.42
0.36
-0.05
2.20
6.67
11.26
13.21
10.63
3.89
-4.24
-9.68
-9.55
-3.68
4.70
10.68
10.43
3.65
-6.09
-13.17
-13.00
-5.03
7.06
17.02
19.96
15.26
7.20
2.25
5.36
16.45
30.07
37.94
33.81
17.47
-4.61
-22.32
-27.66
-19.13
-3.21
9.59
10.85
-0.30
-16.71
-27.15
-23.71
-7.02
13.53
25.19
20.09
0.61
-21.49
-32.28
-24.26
-1.77
21.61
31.10
20.17
-5.26
-30.22
-40.11
-29.86
-7.00
13.01
16.70
1.27
-23.61
-41.94
-41.59
-22.18
4.94
23.68
23.67
6.71
-14.42
-24.61
-16.11
6.32
28.68
36.69
25.03
0.55
-22.26
-30.58
-21.08
-1.25
15.69
19.52
8.77
-8.93
-22.65
-24.84
-15.62
-1.65
8.62
10.19
3.81
-5.25
-10.99
-10.15
-3.40
5.61
12.91
15.81
14.08
9.31
4.31
1.73
3.56
9.88
18.65
25.85
27.29
20.98
9.07
-2.66
-7.59
-2.10
11.20
24.45
28.58
19.26
-0.06
-19.24
-27.69
-20.87
-3.72
12.16
15.54
3.04
-18.43
-35.64
-37.29
-21.51
2.99
21.94
24.98
12.03
-6.52
-17.17
-12.01
5.82
24.66
31.95
22.63
2.01
-17.81
-26.08
-19.78
-4.71
8.77
12.34
4.29
-10.27
-23.02
-27.15
-20.50
-6.22
8.86
17.21
13.99
-0.16
-18.80
-32.25
-32.80
-19.52
0.44
15.80
18.14
7.60
-7.25
-15.16
-10.08
4.65
18.64
21.64
10.59
-8.35
-23.94
-27.30
-16.87
1.13
17.26
24.26
20.50
9.98
-0.41
-4.41
0.79
13.24
27.00
34.66
31.31
17.54
-0.01
-12.28
-13.26
-4.13
7.23
11.25
3.21
-13.31
-28.77
-33.87
-25.74
-9.42
5.30
10.35
3.89
-8.75
-18.78
-19.06
-8.13
9.00
23.57
27.67
18.69
1.04
-16.05
-23.57
-18.19
-4.23
8.80
12.22
3.73
-11.13
-22.46
-22.43
-9.75
9.52
26.14
32.78
28.01
16.28
5.16
1.09
6.05
16.86
26.65
28.92
20.92
5.69
-9.66
-17.93
-16.08
-6.96
2.51
5.55
-0.29
-11.72
-21.78
-24.02
-16.45
-2.66
9.92
14.35
8.05
-5.52
-18.72
-24.25
-19.37
-7.82
2.58
4.60
-3.62
-17.15
-27.21
-26.39
-13.25
6.72
24.07
30.72
24.26
9.16
-5.78
-12.60
-8.40
3.01
13.78
16.57
9.02
-4.67
-16.37
-18.71
-9.44
7.11
22.49
28.79
23.12
8.94
-5.68
-13.11
-10.05
0.26
10.55
13.57
6.56
-6.93
-19.22
-22.75
-14.67
1.26
16.67
23.19
17.65
3.49
-10.86
-17.65
-13.85
-3.05
7.35
10.53
4.38
-7.41
-17.56
-19.63
-11.80
1.64
12.98
15.55
8.07
-4.93
-15.87
-19.11
-13.89
-4.78
1.69
0.86
-6.98
-16.53
-20.49
-14.11
1.62
19.72
31.01
29.23
14.95
-4.67
-19.42
-21.81
-10.72
7.80
24.20
30.67
25.69
14.27
4.37
1.59
6.03
12.45
14.27
7.69
-5.49
-18.67
-24.06
-17.55
-1.49
15.76
24.36
18.42
-0.25
-23.02
-38.78
-40.15
-27.05
-6.81
10.23
16.45
11.25
0.86
-6.15
-4.29
5.64
17.24
22.91
18.27
5.13
-9.49
-17.56
-14.95
-3.93
7.94
12.40
5.43
-10.10
-25.95
-33.03
-26.70
-9.40
10.55
23.49
23.90
13.18
-1.54
-11.60
-11.79
-2.91
9.07
16.72
15.36
5.99
-5.27
-10.92
-6.53
6.24
20.42
27.45
22.45
7.28
-9.82
-18.97
-14.65
0.73
17.83
25.88
19.18
0.73
-19.35
-29.87
-24.94
-7.65
12.03
22.88
19.03
2.94
-16.41
-28.95
-29.04
-18.38
-4.33
4.54
3.53
-5.73
-16.56
-21.51
-16.68
-4.01
10.17
18.78
18.32
10.67
1.80
-2.06
1.67
10.38
17.90
18.52
10.62
-2.05
-12.40
-14.06
-5.28
9.88
23.37
27.59
19.59
2.90
-14.39
-23.93
-21.71
-10.14
3.25
10.18
6.21
-6.62
-21.07
-28.93
-25.81
-13.68
0.39
8.67
7.37
-0.95
-9.31
-10.64
-2.37
11.77
23.78
26.20
16.88
0.44
-14.52
-20.27
-14.43
-1.15
11.35
15.52
9.03
-3.97
-15.61
-18.80
-11.31
3.22
17.28
23.59
19.29
7.58
-4.32
-9.32
-4.36
7.90
20.66
26.61
22.34
10.55
-1.61
-6.96
-2.70
8.02
17.97
20.10
12.04
-2.18
-14.69
-18.71
-12.90
-2.01
6.21
5.70
-4.09
-17.65
-26.90
-26.16
-15.62
-1.16
9.35
10.60
2.77
-8.43
-15.46
-13.41
-2.98
9.87
17.83
16.39
6.41
-6.23
-14.04
-12.17
-1.45
12.16
21.12
20.46
10.63
-2.82
-12.30
-12.56
-3.92
7.98
15.53
13.60
2.65
-11.37
-20.14
-17.87
-5.10
11.35
22.13
20.79
7.34
-11.32
-25.20
-26.78
-15.46
1.98
15.26
16.52
4.82
-13.12
-26.87
-28.37
-16.75
1.20
15.31
18.09
9.21
-4.47
-13.34
-11.25
0.54
14.14
19.97
12.83
-4.53
-22.95
-32.21
-27.19
-10.89
7.25
17.00
13.19
-1.17
-16.77
-23.52
-16.50
1.33
20.97
32.74
31.65
20.04
5.96
-2.05
0.19
10.38
21.50
26.21
21.15
8.71
-4.53
-11.98
-10.75
-3.14
5.02
7.87
3.04
-6.94
-16.31
-19.51
-14.29
-3.23
7.84
13.16
10.20
1.11
-8.60
-13.28
-10.30
-1.62
7.24
10.48
5.14
-7.23
-21.19
-30.20
-30.30
-22.11
-10.40
-1.25
1.24
-2.49
-7.94
-9.42
-3.97
6.56
16.41
19.42
12.80
-0.34
-12.68
-16.87
-9.90
4.78
19.19
25.36
19.81
5.82
-8.61
-15.58
-11.73
0.02
12.30
17.66
13.33
2.67
-7.02
-9.01
-1.21
12.34
23.96
26.91
19.50
6.32
-4.80
-7.16
1.04
15.40
27.88
31.47
23.76
8.15
-8.30
-18.58
-19.54
-13.26
-5.58
-2.19
-5.65
-13.69
-20.69
-21.12
-13.46
-1.07
9.36
11.56
3.58
-10.73
-23.80
-28.83
-23.71
-12.17
-1.30
2.60
-1.92
-10.47
-15.82
-12.47
0.26
17.50
31.48
35.99
29.81
16.83
3.60
-4.09
-4.52
-0.49
2.66
0.66
-7.32
-17.79
-25.00
-24.11
-14.53
-0.39
11.40
15.02
9.01
-2.56
-12.29
-13.84
-5.76
7.79
19.44
22.89
16.91
6.13
-1.96
-1.87
6.74
18.64
26.06
23.59
11.86
-3.20
-13.74
-14.65
-6.47
4.82
11.67
9.60
-0.49
-12.72
-19.88
-17.61
-7.25
5.19
12.30
9.67
-1.53
-14.93
-22.68
-20.12
-8.72
4.72
11.76
7.47
-6.26
-21.71
-29.55
-24.42
-7.92
12.12
26.11
28.12
19.20
6.34
-1.69
0.31
10.91
22.70
26.78
18.00
-1.69
-23.86
-38.24
-38.57
-26.13
-8.80
3.29
3.86
-5.77
-17.79
-22.68
-15.00
3.21
23.57
36.11
34.96
21.48
3.09
-10.91
-14.67
-8.74
0.58
5.52
1.25
-10.90
-24.20
-30.47
-25.06
-9.59
8.70
21.09
22.25
13.24
0.54
-7.97
-7.74
-0.10
9.01
12.71
7.51
-4.64
-17.49
-24.24
-21.23
-9.92
4.20
14.67
17.80
14.59
9.65
8.18
12.59
20.88
27.53
27.36
18.70
4.70
-8.29
-14.42
-11.93
-4.01
3.34
5.05
0.02
-8.16
-13.59
-11.95
-3.24
7.90
14.97
13.11
2.34
-12.23
-22.84
-23.44
-12.86
4.19
19.66
26.43
22.22
10.48
-1.66
-7.63
-5.30
2.20
8.50
8.09
-0.23
-12.36
-21.45
-21.93
-12.82
1.48
13.47
17.19
11.78
1.66
-5.64
-4.15
6.68
21.43
32.18
32.47
21.58
5.14
-8.23
-12.16
-5.80
5.33
12.57
9.45
-4.32
-22.60
-36.09
-37.55
-26.14
-7.75
8.07
13.42
6.56
-7.21
-18.80
-20.76
-11.73
2.91
14.27
15.37
5.34
-10.20
-22.40
-24.53
-15.96
-2.49
7.12
6.42
-4.72
-19.95
-30.06
-28.42
-14.88
4.09
19.01
22.67
14.21
-0.71
-13.19
-16.35
-9.12
3.51
13.97
16.83
12.14
4.98
1.77
5.91
15.39
23.91
24.78
15.53
-0.25
-14.57
-19.53
-12.21
3.22
17.86
22.94
14.90
-2.13
-18.99
-26.66
-21.20
-6.17
9.70
17.79
14.36
2.40
-10.32
-16.41
-13.44
-4.61
2.96
3.23
-4.85
-16.78
-25.00
-23.33
-11.01
6.72
21.76
27.04
20.92
7.91
-4.18
-8.53
-2.82
9.27
20.68
25.07
19.74
7.63
-5.03
-12.20
-11.35
-4.65
2.30
4.06
-1.32
-11.33
-19.90
-21.49
-14.29
-1.66
9.58
13.18
7.19
-4.58
-14.97
-17.32
-9.87
3.49
15.30
19.02
13.09
1.62
-8.03
-9.96
-2.95
8.52
17.23
17.68
9.16
-3.43
-12.57
-12.33
-1.91
13.96
27.34
31.78
25.83
13.58
2.58
-1.20
3.30
11.55
15.93
10.85
-3.71
-21.60
-33.87
-34.08
-22.52
-5.69
7.00
8.94
0.46
-12.08
-19.78
-16.99
-4.70
10.51
20.04
18.65
7.45
-7.23
-17.18
-17.20
-8.10
4.42
12.91
12.57
4.31
-6.39
-12.42
-9.39
1.35
13.87
20.76
17.69
6.29
-7.24
-15.27
-13.49
-3.71
7.75
13.50
9.60
-1.82
-14.44
-20.91
-17.45
-6.23
6.41
13.14
10.19
-0.33
-11.93
-17.06
-11.76
1.85
16.86
25.27
22.66
10.97
-2.80
-10.57
-8.11
2.34
13.74
18.25
12.32
-0.90
-13.79
-18.54
-12.06
1.99
15.56
20.50
13.49
-2.27
-18.86
-27.86
-24.95
-11.73
5.21
17.82
20.92
14.29
2.53
-7.90
-12.61
-11.55
-8.58
-8.90
-15.02
-24.87
-32.60
-32.08
-21.25
-3.69
12.92
21.03
17.89
6.99
-3.92
-7.64
-2.04
8.89
17.21
16.13
4.29
-13.38
-27.94
-31.67
-22.38
-4.42
13.21
22.03
18.51
5.84
-7.81
-13.96
-8.51
5.91
21.49
29.82
26.86
15.36
3.14
-1.81
3.72
16.23
27.50
29.98
21.48
6.54
-6.41
-10.53
-4.76
5.56
12.17
9.15
-3.35
-19.17
-29.95
-29.96
-19.45
-4.28
7.74
11.15
5.84
-2.98
-8.21
-4.93
6.65
21.36
31.61
31.56
20.22
1.86
-15.82
-25.94
-25.47
-16.44
-4.77
3.33
4.41
-0.44
-6.76
-9.89
-7.71
-2.40
1.16
-1.57
-11.67
-25.04
-34.63
-33.98
-21.07
-0.38
19.71
30.70
28.85
16.95
2.20
-7.66
-9.14
-4.14
1.57
2.32
-3.39
-12.45
-18.74
-17.43
-8.38
3.89
12.33
11.86
2.45
-10.74
-20.34
-21.25
-13.41
-2.14
5.33
4.27
-4.68
-15.57
-21.20
-17.51
-6.20
5.96
11.55
6.73
-5.75
-18.30
-22.81
-15.47
0.59
17.29
25.91
22.23
8.79
-6.87
-16.57
-16.30
-8.16
1.76
7.79
8.85
9.28
16.26
34.89
64.46
98.29
126.99
143.19
145.12
137.09
126.67
120.29
120.48
125.27
130.20
131.40
127.06
118.10
106.38
93.46
79.55
63.50
44.48
21.68
-4.39
-32.12
-59.17
-83.23
-102.76
-117.21
-126.84
-132.12
-133.31
-129.27
-118.94
-101.68
-77.78
-48.70
-16.82
15.03
44.36
69.46
89.70
105.25
116.82
125.25
131.25
135.19
137.11
137.02
135.09
131.87
128.08
124.54
121.88
120.36
119.76
119.26
117.93
114.95
109.77
102.13
92.05
79.43
63.75
45.26
23.66
-1.29
-29.25
-59.19
-89.48
-118.42
-144.75
-168.15
-189.32
-209.84
-231.68
-257.05
-288.50
-328.10
-376.24
-430.35
-484.17
-528.59
-554.10
-553.34
-523.02
-464.40
-382.00
-282.05
-172.05
-60.80
41.68
125.23
181.64
206.86
201.62
171.65
126.15
75.63
29.82
-3.97
-22.12
-25.41
-15.81
1.14
18.91
32.63
40.67
44.28
45.75
46.60
47.08
46.70
44.83
41.79
38.52
35.78
33.53
30.93
26.63
19.73
10.08
-1.89
-15.22
-28.80
-41.91
-54.47
-66.98
-80.12
-94.16
-108.83
-123.45
-136.84
-147.65
-154.74
-157.41
-155.44
-149.50
-139.92
-126.93
-110.85
-91.99
-70.88
-48.27
-25.20
-2.84
17.57
35.10
49.17
59.60
66.71
71.20
73.91
75.63
76.91
77.94
78.66
78.83
78.30
77.20
76.01
75.48
76.33
79.09
83.73
89.77
96.41
103.01
109.58
117.03
127.17
141.43
160.69
184.35
210.07
234.15
252.66
262.54
262.36
252.38
234.02
209.53
181.53
152.97
126.77
105.20
89.16
77.63
68.06
57.53
44.46
29.49
15.10
4.10
-2.01
-4.05
-4.70
-6.88
-11.98
-18.95
-25.07
-27.85
-26.64
-23.28
-21.16
-23.21
-30.04
-39.25
-46.64
-48.65
-44.37
-36.08
-28.07
-24.26
-26.02
-31.32
-36.10
-36.71
-32.11
-24.55
-18.18
-16.74
-21.25
-29.32
-36.34
-38.25
-33.64
-24.61
-15.42
-10.12
-10.38
-14.57
-18.95
-20.01
-16.63
-10.69
-5.83
-5.23
-9.67
-16.89
-22.89
-24.21
-19.89
-12.04
-4.48
-0.55
-1.34
-5.21
-8.92
-9.77
-7.20
-3.21
-0.96
-2.71
-8.39
-15.36
-19.85
-19.15
-13.07
-4.25
3.31
6.46
4.52
-0.46
-5.09
-6.59
-4.38
-0.38
2.26
1.17
-3.63
-9.65
-13.35
-12.30
-6.61
0.83
5.86
5.39
-0.76
-9.63
-16.68
-18.31
-13.73
-5.41
2.37
5.96
4.36
-0.42
-4.64
-5.34
-2.06
2.83
5.66
3.68
-3.06
-11.57
-17.47
-17.54
-11.57
-2.46
5.42
8.59
6.33
0.94
-3.80
-4.97
-2.33
1.72
3.65
1.10
-5.51
-13.06
-17.41
-15.77
-8.44
1.27
8.93
11.37
8.43
2.86
-1.46
-1.86
1.51
5.73
7.04
3.28
-4.56
-12.69
-16.63
-13.79
-4.98
5.73
13.21
14.02
8.23
-0.67
-7.91
-10.05
-6.80
-0.96
3.33
3.17
-1.37
-7.26
-10.53
-8.68
-2.28
5.32
9.81
8.45
1.69
-6.97
-12.99
-13.31
-8.04
-0.23
5.95
7.68
4.96
0.49
-2.21
-1.08
3.13
7.28
7.82
3.13
-5.25
-13.21
-16.32
-12.44
-2.96
7.76
14.69
14.82
8.74
0.15
-6.27
-7.57
-4.04
1.15
4.04
2.28
-3.35
-9.43
-12.01
-8.96
-1.41
6.92
11.69
10.45
4.00
-4.10
-9.57
-9.80
-5.18
1.26
5.74
6.02
2.62
-1.53
-3.15
-0.67
4.70
9.52
10.21
5.26
-3.57
-12.12
-15.96
-13.00
-4.55
5.28
11.88
12.58
8.09
1.82
-2.20
-1.72
2.48
7.20
8.88
5.80
-0.71
-7.07
-9.49
-6.26
1.23
9.20
13.69
12.72
7.38
1.05
-2.70
-2.25
1.18
4.31
3.94
-0.97
-8.43
-14.37
-15.08
-9.39
0.51
10.10
14.91
12.87
5.42
-3.34
-8.98
-9.17
-4.88
0.46
3.06
1.12
-4.13
-9.20
-10.44
-6.33
1.53
9.27
12.93
10.67
3.78
-4.12
-9.28
-9.87
-6.93
-3.50
-2.66
-5.54
-10.60
-14.58
-14.53
-9.61
-1.74
5.58
9.29
8.61
5.38
2.86
3.60
7.84
13.25
16.42
15.06
9.59
3.23
0.19
3.23
12.01
23.18
32.25
36.26
35.56
33.82
36.06
45.86
63.29
84.68
104.33
117.21
121.37
118.67
113.23
109.40
109.59
113.49
118.81
123.15
125.65
127.92
132.88
142.75
157.09
172.24
182.36
181.98
168.45
143.61
112.74
81.88
55.16
32.70
10.39
-18.10
-58.48
-112.37
-177.45
-247.82
-316.15
-374.85
-416.60
-435.09
-426.64
-392.09
-338.12
-278.80
-227.98
-195.64
-184.17
-187.66
-195.21
-196.84
-188.87
-175.23
-164.30
-162.14
-168.14
-174.16
-168.71
-143.45
-98.24
-42.11
11.37
49.47
66.21
63.79
50.14
33.96
20.32
9.12
-3.40
-21.01
-43.88
-66.68
-80.94
-79.52
-61.34
-33.77
-10.31
-4.93
-25.28
-68.64
-122.24
-168.61
-192.42
-185.73
-149.61
-92.38
-25.99
37.69
89.79
125.72
145.00
150.89
149.54
147.45
150.37
162.99
186.87
220.95
263.40
311.69
362.14
409.65
448.41
473.85
482.43
474.53
454.35
428.00
400.26
372.32
341.23
301.30
247.52
181.41
107.62
34.40
-28.47
-73.13
-96.48
-101.37
-95.91
-89.39
-89.40
-99.71
-119.40
-144.77
-172.01
-198.94
-225.11
-250.56
-274.53
-295.34
-311.30
-321.50
-326.41
-327.71
-327.35
-326.38
-324.27
-319.10
-309.00
-292.78
-270.56
-244.02
-215.70
-187.85
-161.45
-135.96
-109.82
-81.67
-51.30
-19.94
10.19
37.09
60.16
80.40
99.85
120.46
142.96
166.71
190.64
214.27
237.45
260.06
280.63
295.74
301.30
294.74
276.78
251.25
222.90
194.76
166.68
136.25
101.36
63.00
26.37
-0.83
-12.06
-5.62
13.80
36.68
52.86
56.20
47.18
31.79
17.54
8.61
3.36
-4.13
-19.49
-43.48
-70.03
-88.85
-90.92
-73.76
-43.18
-10.67
12.28
19.78
14.01
3.02
-4.58
-4.81
-0.80
-0.47
-11.05
-33.71
-61.60
-82.99
-87.44
-71.66
-41.35
-8.11
16.46
26.37
23.61
15.77
10.93
12.59
17.58
18.07
6.83
-17.39
-47.54
-71.24
-77.11
-61.24
-29.58
5.23
30.65
40.45
36.81
27.50
20.00
17.10
15.77
9.91
-5.28
-29.65
-57.03
-77.54
-82.07
-67.06
-36.87
-2.40
23.96
34.38
29.53
17.19
6.83
3.22
3.77
0.99
-11.19
-32.15
-53.63
-64.35
-56.59
-30.75
4.69
37.47
57.40
60.47
49.64
32.59
17.42
8.62
5.23
1.88
-7.44
-24.74
-45.44
-59.94
-58.92
-39.37
-7.20
25.31
46.15
50.01
40.47
26.45
15.89
10.91
7.38
-1.28
-18.80
-42.93
-66.11
-79.22
-76.06
-56.48
-26.66
3.49
24.65
32.24
28.56
21.30
18.86
24.95
35.83
42.37
35.91
14.72
-13.77
-36.81
-43.95
-33.39
-13.00
5.01
11.73
6.84
-2.08
-5.27
2.73
19.82
38.01
48.20
45.07
29.35
6.99
-14.04
-27.22
-30.10
-25.17
-18.30
-15.79
-20.44
-29.16
-34.19
-27.77
-7.46
20.97
45.86
56.10
47.89
26.99
4.81
-8.99
-12.25
-10.97
-14.12
-26.88
-46.55
-64.13
-69.82
-58.91
-34.27
-4.59
20.34
34.18
36.25
31.14
25.64
25.26
31.29
40.03
44.63
38.85
21.28
-2.68
-22.97
-30.46
-22.73
-6.20
7.20
7.45
-6.66
-26.15
-37.34
-30.54
-6.50
23.87
46.14
51.15
40.04
22.35
9.04
5.28
7.83
8.10
-1.28
-21.38
-46.15
-65.93
-72.82
-64.55
-45.15
-22.42
-4.21
4.76
4.55
-0.32
-3.17
1.60
15.38
34.12
49.97
55.23
46.97
29.46
11.96
3.25
5.90
14.20
17.50
7.26
-16.49
-44.17
-62.00
-60.46
-40.37
-12.54
8.92
15.18
7.58
-4.20
-9.00
-1.30
16.07
34.32
44.68
43.23
32.15
17.51
5.36
-1.19
-2.94
-3.58
-7.53
-17.62
-33.14
-49.11
-57.86
-52.62
-31.79
-0.97
28.81
46.56
47.55
36.06
22.43
16.20
19.58
25.82
23.77
5.93
-25.15
-57.17
-74.90
-69.35
-43.36
-10.00
15.31
23.95
18.47
9.63
8.49
18.80
34.79
45.12
40.62
20.11
-8.65
-33.68
-45.45
-41.43
-26.39
-8.54
5.39
13.12
16.65
19.87
25.38
32.75
38.70
38.81
29.75
11.09
-13.80
-38.33
-54.82
-57.43
-44.95
-21.79
3.54
22.26
29.74
27.80
22.98
21.96
26.59
31.88
29.01
11.33
-19.69
-53.34
-74.50
-71.93
-45.08
-5.05
31.07
49.46
46.68
30.41
13.44
5.12
5.41
5.92
-3.43
-26.14
-54.94
-74.93
-72.38
-43.49
1.99
44.93
66.85
59.54
29.34
-6.71
-30.45
-32.30
-15.46
7.50
23.15
25.37
18.30
12.40
16.48
30.85
46.30
49.52
31.61
-5.41
-48.10
-78.15
-81.87
-57.36
-15.46
26.15
51.84
55.23
40.93
20.25
3.78
-4.42
-7.78
-13.20
-24.66
-39.44
-48.75
-43.26
-19.68
15.62
48.46
63.71
53.02
19.76
-22.00
-53.99
-62.63
-45.47
-11.83
22.46
43.38
45.23
32.71
16.68
6.99
6.47
9.72
7.48
-6.30
-29.15
-50.10
-55.53
-37.65
-0.17
41.88
68.91
66.55
33.16
-18.63
-67.54
-93.51
-86.77
-51.82
-4.38
36.58
57.56
55.68
38.13
16.70
1.04
-5.92
-7.75
-10.41
-17.24
-25.98
-30.20
-23.71
-5.17
19.97
41.59
50.03
41.31
19.37
-5.75
-23.21
-26.53
-16.24
1.27
17.75
27.58
29.96
27.76
24.36
20.53
13.82
0.86
-18.87
-40.58
-55.01
-52.94
-30.88
5.69
43.16
65.54
61.70
31.19
-15.06
-59.27
-84.78
-83.12
-57.19
-18.76
17.61
41.20
49.06
45.22
36.72
28.73
21.97
13.55
0.39
-17.23
-34.49
-44.43
-42.16
-28.26
-8.88
7.62
15.61
15.40
12.84
15.17
25.62
40.50
50.41
45.42
21.18
-17.26
-56.65
-81.36
-80.82
-54.71
-13.30
27.49
53.53
58.68
46.76
28.02
12.91
6.34
5.86
4.37
-4.30
-20.74
-39.00
-49.99
-46.99
-29.75
-4.81
18.11
31.26
32.68
26.49
19.39
16.04
15.93
14.03
4.69
-13.51
-35.17
-49.72
-46.86
-22.86
16.05
55.14
77.47
71.76
38.10
-11.53
-58.60
-86.06
-85.49
-59.67
-20.06
19.23
47.55
60.79
60.55
50.71
34.15
11.70
-16.04
-46.04
-71.20
-82.07
-71.44
-39.12
6.01
48.53
72.69
69.50
40.97
-0.56
-38.04
-57.31
-52.89
-29.40
1.88
29.05
44.96
49.03
45.18
37.73
28.16
14.82
-4.46
-28.79
-52.08
-64.69
-58.32
-31.23
9.11
48.13
70.33
66.38
37.70
-3.98
-42.08
-62.69
-60.32
-39.22
-10.02
16.32
33.48
41.24
42.96
41.53
36.51
24.53
2.66
-27.67
-58.72
-78.70
-77.31
-51.63
-8.93
35.53
65.15
69.45
48.76
13.66
-20.58
-41.37
-44.20
-33.31
-17.92
-6.37
-1.66
-0.96
1.14
8.25
19.36
29.27
31.93
24.42
9.36
-6.24
-14.77
-12.46
-1.70
10.19
15.41
10.49
-1.21
-11.24
-11.15
1.97
22.86
40.20
42.49
24.68
-8.34
-43.64
-66.79
-68.92
-50.90
-22.23
4.35
19.34
20.85
14.32
8.36
9.22
17.15
26.58
30.04
23.16
7.98
-8.01
-16.07
-11.47
3.48
20.43
29.47
24.60
7.19
-14.92
-31.97
-37.60
-32.05
-20.94
-11.13
-6.03
-3.55
2.19
16.07
37.39
58.58
67.99
56.14
21.44
-27.17
-73.23
-99.65
-96.46
-65.28
-18.37
27.23
57.35
66.39
58.17
41.88
26.28
15.05
6.22
-4.72
-20.23
-37.61
-49.93
-50.12
-35.71
-11.16
13.97
30.01
32.18
22.89
9.82
1.05
0.25
4.85
8.20
4.43
-7.24
-21.52
-30.14
-27.28
-13.72
2.91
12.17
6.88
-12.17
-35.60
-49.75
-43.83
-16.03
24.80
62.67
81.88
74.14
42.51
-0.42
-38.56
-59.63
-59.81
-43.95
-21.56
-1.19
13.51
23.99
33.42
42.75
48.42
44.15
25.18
-7.22
-44.41
-73.33
-82.56
-67.95
-35.00
3.65
34.17
47.70
44.02
30.29
16.34
9.05
9.20
12.11
11.75
5.24
-4.68
-11.20
-7.68
7.78
30.38
50.55
58.70
50.38
28.61
2.10
-19.66
-31.27
-33.75
-32.69
-33.81
-38.54
-42.54
-38.31
-20.31
10.46
45.44
71.59
77.61
59.54
23.30
-18.18
-50.91
-66.24
-63.88
-50.46
-34.67
-22.01
-12.16
-0.59
16.84
39.55
60.70
70.10
59.64
28.70
-14.09
-54.20
-77.82
-78.19
-58.46
-29.16
-2.36
14.29
20.55
21.92
24.80
31.52
38.51
38.51
25.70
0.27
-30.07
-53.54
-60.31
-47.73
-21.86
5.73
23.81
27.04
18.02
5.09
-3.01
-1.97
6.06
14.64
17.48
12.80
4.51
-0.41
3.34
15.42
29.20
34.90
25.12
-0.51
-33.89
-61.80
-71.97
-59.09
-27.19
12.43
46.63
66.33
69.71
61.25
47.54
32.82
16.83
-3.61
-30.50
-60.97
-86.49
-96.36
-83.49
-49.09
-3.39
38.30
62.40
63.12
44.81
19.13
-1.21
-8.73
-4.19
5.14
10.63
7.71
-1.42
-9.73
-10.25
-1.05
12.94
22.53
19.71
3.01
-20.69
-39.35
-42.19
-25.71
4.09
34.68
53.39
53.54
37.40
13.88
-6.84
-18.83
-22.69
-23.65
-26.68
-32.21
-35.06
-27.72
-5.91
27.25
60.93
80.91
76.37
45.70
-1.84
-49.81
-81.90
-88.97
-72.44
-42.30
-11.28
11.38
23.43
28.40
31.39
34.56
35.57
29.63
14.01
-8.44
-28.96
-37.09
-26.60
0.04
31.55
52.55
50.99
24.46
-18.07
-60.09
-85.38
-85.24
-61.87
-26.12
8.50
32.29
42.73
43.51
40.34
36.76
32.27
23.89
9.79
-7.69
-21.73
-24.38
-11.39
14.16
41.77
57.71
51.49
21.55
-23.07
-66.29
-92.30
-92.59
-69.35
-33.42
1.61
25.88
36.68
37.48
33.91
29.41
23.75
14.63
1.23
-13.19
-21.62
-17.04
2.89
32.95
61.42
74.93
64.83
31.96
-12.75
-52.68
-73.03
-67.47
-40.83
-6.40
20.66
30.42
22.05
2.67
-17.79
-32.13
-39.00
-41.74
-44.29
-47.19
-46.45
-36.45
-14.64
15.04
42.57
56.35
49.40
23.75
-9.51
-35.05
-40.56
-22.52
12.24
49.96
76.44
83.26
70.89
47.25
22.95
5.91
-1.68
-2.92
-2.73
-4.06
-5.77
-4.17
3.30
14.72
23.07
19.49
-1.35
-36.72
-75.32
-101.98
-104.95
-82.01
-41.80
0.39
30.02
39.88
32.59
17.62
5.30
1.09
3.53
6.43
3.83
-5.45
-16.46
-20.93
-12.41
9.22
36.77
58.96
66.27
55.91
33.41
9.34
-6.66
-10.76
-6.52
-1.78
-3.49
-13.23
-26.18
-34.08
-30.51
-15.07
5.76
21.69
24.02
10.61
-12.51
-34.10
-43.69
-37.42
-20.27
-3.27
2.87
-5.90
-24.42
-41.28
-45.50
-32.76
-7.67
19.32
38.17
44.84
42.97
40.69
44.87
56.45
69.66
75.30
66.31
42.14
9.64
-20.39
-38.87
-43.24
-38.54
-34.26
-38.39
-52.37
-69.74
-79.70
-73.44
-49.51
-15.08
17.75
38.28
42.52
34.48
22.78
14.95
13.14
13.43
9.32
-3.31
-22.56
-40.72
-48.19
-38.85
-13.76
19.05
48.35
65.15
66.59
56.67
43.02
32.24
26.27
22.01
14.07
-0.83
-20.88
-39.08
-46.77
-38.34
-14.78
16.36
44.23
59.80
59.91
48.23
32.53
20.00
13.35
9.72
3.24
-10.58
-31.08
-51.66
-62.87
-57.58
-35.33
-3.28
26.96
45.03
46.80
36.14
21.83
12.15
9.79
10.61
6.59
-8.46
-34.21
-62.54
-81.38
-80.92
-59.18
-23.46
12.94
37.27
43.24
33.57
17.38
4.27
-1.24
-1.91
-5.07
-17.01
-37.71
-59.46
-70.68
-62.52
-34.54
4.08
38.68
56.33
52.22
31.70
6.62
-11.55
-17.91
-15.98
-14.41
-20.59
-35.23
-51.23
-57.78
-47.08
-19.65
15.12
43.42
54.13
44.42
20.83
-4.82
-22.08
-27.12
-23.87
-20.27
-22.73
-31.53
-40.50
-40.83
-26.93
-0.33
30.26
53.13
59.46
47.82
24.81
1.32
-13.18
-15.20
-8.09
1.00
5.96
5.51
3.66
6.62
18.06
36.09
53.27
60.32
51.11
26.67
-4.77
-31.31
-43.26
-37.55
-18.92
3.37
20.51
28.65
30.03
30.40
34.31
41.67
47.31
44.13
27.84
0.57
-29.15
-50.31
-54.94
-42.22
-18.86
4.62
19.25
22.16
17.31
12.59
14.68
25.13
39.60
50.63
52.18
43.29
28.55
15.22
8.72
9.36
11.93
8.92
-4.93
-28.78
-55.07
-72.90
-73.55
-55.23
-24.43
7.16
28.54
34.72
28.69
18.65
12.43
12.50
14.58
10.68
-5.17
-32.09
-61.42
-80.60
-79.78
-57.27
-20.85
15.99
40.67
47.47
39.56
26.04
15.78
12.14
11.24
5.39
-11.09
-36.76
-62.39
-75.42
-67.02
-37.50
2.92
38.97
57.99
55.94
38.98
18.95
6.25
3.96
6.65
4.51
-9.87
-36.04
-64.89
-83.30
-81.35
-58.03
-22.04
12.72
34.43
39.25
32.49
24.44
23.59
31.45
41.75
44.63
33.00
7.47
-23.26
-46.83
-53.97
-43.52
-22.91
-3.92
3.96
-1.15
-12.70
-19.92
-14.38
4.90
30.74
51.86
59.30
51.24
33.69
16.29
6.39
4.68
5.24
-0.30
-16.95
-42.25
-66.59
-77.98
-68.72
-39.98
-1.87
31.29
47.92
44.73
27.65
7.78
-5.21
-8.19
-5.61
-5.67
-14.41
-31.04
-47.69
-53.67
-41.99
-13.87
21.07
49.20
59.68
49.68
25.60
-0.84
-18.71
-23.12
-16.49
-5.66
3.14
8.20
12.67
21.35
36.10
53.21
64.44
61.53
41.36
8.95
-23.91
-43.98
-43.11
-22.17
9.44
38.57
54.69
54.60
42.89
28.26
18.05
14.24
13.16
9.20
-0.20
-11.36
-15.37
-3.11
28.89
75.43
124.27
161.70
178.94
175.83
159.68
141.11
128.54
124.89
127.72
132.05
133.68
131.16
125.63
119.02
112.43
104.83
93.65
76.49
52.32
21.94
-12.41
-48.21
-83.66
-118.14
-151.61
-184.24
-215.44
-243.87
-267.82
-285.82
-297.29
-302.69
-303.11
-298.59
-288.72
-272.34
-248.18
-215.62
-175.49
-130.07
-83.04
-39.03
-3.26
18.72
24.84
16.87
0.40
-16.65
-26.70
-25.40
-12.05
8.69
29.21
42.78
45.84
38.78
24.53
6.41
-13.45
-34.32
-56.09
-78.17
-98.77
-116.00
-128.78
-137.25
-142.59
-146.31
-149.29
-151.33
-151.55
-148.12
-139.54
-125.35
-106.43
-84.60
-61.75
-39.14
-17.10
4.99
28.09
52.55
77.69
101.97
123.82
142.82
160.20
178.46
199.72
224.12
248.77
268.94
280.32
280.85
272.22
258.58
243.92
230.14
216.71
201.96
184.86
165.61
144.91
122.38
95.98
63.26
24.01
-17.53
-52.86
-72.50
-70.60
-48.42
-14.59
18.26
38.76
41.66
29.41
10.14
-7.24
-17.44
-20.91
-22.27
-26.59
-35.47
-45.91
-52.20
-49.86
-38.80
-23.85
-11.94
-7.90
-11.51
-17.49
-19.05
-12.46
-0.06
10.42
9.91
-6.60
-36.57
-70.03
-93.88
-97.97
-79.79
-45.54
-6.96
24.27
41.62
45.64
41.96
36.77
32.61
27.05
14.91
-7.39
-38.00
-68.93
-89.23
-90.41
-70.92
-37.27
-1.04
26.72
40.38
41.48
36.49
31.96
30.30
28.51
20.51
1.89
-26.20
-56.03
-76.52
-78.58
-59.94
-26.55
10.04
38.05
50.58
48.19
37.17
25.12
16.42
10.14
1.69
-13.01
-33.43
-53.24
-63.02
-55.57
-30.41
4.92
37.92
56.82
55.98
38.26
12.92
-9.50
-22.29
-25.09
-22.50
-19.97
-19.82
-19.61
-14.21
0.04
21.74
43.69
55.76
50.04
25.36
-11.13
-46.68
-68.60
-69.87
-51.99
-23.44
4.98
25.51
36.40
41.16
44.59
48.62
50.34
43.64
23.53
-9.56
-48.07
-79.89
-93.78
-84.82
-56.83
-20.35
12.60
34.13
43.26
44.77
44.65
45.64
45.19
37.31
17.04
-15.16
-51.77
-80.84
-91.41
-78.95
-47.70
-8.86
24.71
44.16
48.01
41.36
31.79
24.46
19.48
12.75
-0.14
-19.75
-40.82
-54.46
-53.04
-34.89
-6.06
22.21
38.87
38.48
23.65
3.36
-12.16
-16.58
-10.30
0.77
9.27
10.90
6.82
2.36
3.12
10.88
21.91
28.62
24.01
5.98
-20.36
-44.63
-55.97
-48.56
-24.56
6.95
34.46
49.52
50.24
41.02
28.73
18.28
9.83
-0.24
-15.69
-36.29
-56.12
-65.84
-57.81
-30.97
7.36
44.02
65.67
64.71
42.71
9.25
-22.64
-42.44
-45.99
-36.03
-19.12
-1.55
13.72
27.11
39.93
51.36
57.13
51.08
29.06
-7.22
-48.83
-82.22
-95.03
-81.90
-47.42
-4.26
32.43
51.53
50.43
35.02
15.75
1.87
-2.60
0.24
4.94
6.90
5.51
4.10
6.98
15.55
26.13
31.09
22.85
-1.16
-35.77
-69.12
-87.79
-83.09
-55.41
-14.13
26.75
55.01
65.17
59.59
45.51
30.11
16.78
4.52
-9.41
-25.77
-41.14
-48.96
-43.46
-23.80
4.02
29.21
41.20
35.07
14.42
-10.17
-26.34
-26.32
-10.69
12.10
30.34
34.98
24.10
3.29
-17.66
-30.00
-29.98
-19.74
-4.94
8.91
19.29
26.93
33.49
38.71
39.05
29.24
5.86
-29.02
-66.52
-93.53
-98.39
-76.68
-34.19
14.79
53.18
68.26
56.97
26.73
-8.31
-34.00
-42.04
-32.73
-13.14
7.42
22.27
29.73
32.07
32.39
31.59
27.67
17.70
1.07
-18.41
-33.25
-36.06
-24.15
-2.03
20.01
30.84
24.46
3.70
-20.72
-35.44
-31.62
-9.63
20.76
45.14
51.53
36.38
6.16
-25.96
-46.58
-48.04
-31.17
-3.73
24.05
44.22
53.57
52.95
44.70
30.25
9.73
-16.31
-44.56
-67.95
-77.65
-67.43
-37.88
2.16
38.31
56.62
49.91
21.38
-16.52
-47.71
-59.74
-49.07
-22.07
8.73
30.95
37.96
31.11
17.67
6.11
1.48
3.33
7.23
8.30
4.81
-0.76
-3.80
-1.15
5.94
11.94
10.22
-2.44
-22.77
-41.42
-47.48
-34.45
-4.28
32.62
61.74
71.06
56.54
23.88
-14.32
-44.49
-57.78
-53.03
-35.80
-14.41
4.36
17.91
27.09
33.60
37.28
35.40
24.53
3.81
-22.66
-46.12
-56.96
-49.56
-25.92
4.52
28.88
36.87
25.77
1.84
-22.70
-35.73
-30.87
-10.19
17.35
40.64
51.62
48.42
34.92
17.52
1.31
-11.99
-23.48
-34.44
-43.78
-47.35
-40.27
-20.54
8.09
36.28
52.79
49.93
28.00
-3.83
-31.48
-42.68
-32.93
-7.75
20.18
37.36
35.98
17.50
-8.79
-30.76
-39.59
-33.34
-16.69
2.72
18.75
29.41
36.16
40.86
42.99
39.08
25.04
-0.08
-31.44
-59.02
-71.82
-63.54
-36.48
-1.44
26.90
36.66
24.50
-2.72
-31.30
-47.34
-43.25
-20.74
10.80
39.49
56.56
59.65
52.17
39.84
26.98
14.54
1.15
-14.23
-29.81
-40.66
-40.96
-27.83
-4.16
21.36
37.33
34.94
12.48
-22.73
-57.05
-76.28
-72.08
-45.62
-6.80
30.48
54.60
60.82
52.01
35.70
19.55
7.82
0.72
-3.68
-6.75
-7.58
-3.97
4.92
16.33
23.82
20.20
1.89
-27.56
-57.61
-74.89
-69.80
-41.81
-0.58
38.02
59.24
56.26
33.35
3.19
-19.60
-25.68
-15.01
3.95
19.27
21.90
10.21
-9.75
-27.90
-35.55
-29.66
-13.70
4.92
19.20
25.93
26.37
24.10
22.03
20.50
17.81
12.27
4.31
-3.00
-5.73
-2.08
5.67
11.69
9.52
-3.97
-26.02
-48.46
-61.42
-58.57
-40.71
-16.02
3.88
9.90
0.33
-17.83
-32.73
-33.97
-18.47
7.83
33.05
45.85
41.52
24.50
5.74
-3.57
1.96
19.06
37.85
47.39
41.64
22.83
0.04
-15.75
-17.67
-6.52
9.74
20.52
18.34
3.09
-17.97
-34.38
-38.11
-28.00
-9.95
6.54
13.84
10.23
0.25
-8.55
-10.33
-4.00
6.71
16.24
20.56
19.35
15.31
11.84
10.55
10.36
8.64
3.20
-5.93
-16.30
-24.31
-27.31
-25.08
-19.85
-14.88
-12.36
-12.20
-12.10
-9.44
-3.19
5.09
12.06
14.83
12.98
8.99
6.67
8.44
13.49
17.93
17.22
8.95
-5.33
-20.91
-32.20
-35.68
-31.38
-22.33
-12.59
-4.98
-0.10
3.27
6.76
11.11
15.63
18.91
19.75
17.89
13.84
8.24
1.62
-5.47
-11.95
-16.03
-15.96
-11.27
-3.85
2.65
4.89
2.19
-2.43
-3.74
2.48
16.09
31.87
42.00
40.76
28.42
11.47
-1.11
-3.42
3.41
11.67
12.04
0.16
-19.76
-36.83
-40.02
-25.44
0.51
24.58
34.56
26.95
9.05
-6.03
-8.12
3.00
17.39
21.44
7.25
-21.44
-50.90
-65.63
-58.05
-33.09
-4.98
11.72
11.14
-0.96
-11.66
-9.97
5.80
27.19
41.20
38.73
20.00
-5.84
-26.72
-34.60
-29.24
-16.77
-4.97
1.50
2.77
2.37
4.11
9.61
17.78
25.67
29.87
27.52
17.24
0.18
-19.35
-34.61
-38.86
-29.08
-8.49
14.22
29.22
31.33
23.15
13.25
9.99
15.32
22.94
22.60
7.74
-18.80
-45.41
-58.57
-51.27
-27.39
1.02
21.24
27.05
21.08
11.41
5.40
5.19
7.54
7.19
0.74
-11.11
-24.11
-32.72
-32.55
-21.90
-2.56
20.31
39.50
48.34
44.12
30.01
14.03
4.70
5.79
13.42
18.16
11.13
-9.47
-36.21
-56.37
-59.82
-45.58
-22.65
-4.14
1.17
-5.74
-15.35
-16.68
-5.02
14.90
32.23
37.10
26.65
6.43
-13.35
-23.88
-22.02
-10.92
2.55
11.67
13.01
7.66
0.58
-2.08
3.67
16.79
30.87
37.07
29.21
8.20
-17.68
-37.11
-42.33
-33.38
-17.53
-4.10
1.39
0.04
-2.21
0.61
10.29
23.46
33.68
35.14
25.50
7.15
-13.70
-29.43
-34.21
-26.84
-11.74
2.99
10.01
7.28
-0.53
-5.04
-0.07
13.71
28.64
34.92
26.86
6.81
-16.19
-31.81
-34.17
-24.45
-9.46
2.69
6.76
2.74
-4.70
-8.82
-4.46
8.91
26.29
39.20
40.23
27.67
7.20
-11.21
-19.31
-15.93
-7.50
-3.49
-9.58
-23.60
-36.76
-39.70
-28.66
-7.69
14.14
28.25
31.03
24.81
15.58
9.13
8.41
12.62
17.89
19.17
12.47
-2.58
-21.70
-37.14
-41.51
-32.26
-13.72
5.02
15.61
15.56
9.50
5.28
8.05
16.37
23.21
20.92
6.67
-15.35
-36.06
-46.50
-42.27
-25.38
-2.75
17.14
28.02
28.31
21.60
14.50
12.80
17.73
24.65
25.75
15.15
-6.42
-30.96
-47.52
-48.66
-34.81
-13.85
3.96
11.93
10.17
4.63
2.54
7.89
19.08
29.95
33.10
24.04
3.98
-20.11
-38.52
-43.67
-34.17
-15.70
2.28
11.95
11.52
5.66
1.74
4.59
13.24
21.62
22.69
12.83
-5.52
-24.91
-36.62
-35.07
-20.58
0.72
19.95
29.99
28.98
21.01
13.05
10.34
12.96
15.83
12.27
-1.11
-21.43
-40.48
-48.94
-41.53
-20.10
7.21
29.95
40.38
37.06
24.99
12.29
5.24
4.79
6.31
3.02
-9.11
-27.80
-44.98
-50.93
-40.07
-14.51
16.45
40.92
50.39
43.67
26.96
9.60
-1.37
-4.65
-4.52
-7.21
-16.17
-29.25
-39.54
-39.30
-24.88
0.44
27.35
45.04
46.53
32.22
9.51
-11.46
-23.05
-23.57
-17.20
-10.66
-8.82
-11.63
-14.38
-10.93
1.84
21.08
38.69
45.29
35.53
11.34
-18.48
-42.67
-52.78
-46.80
-29.48
-9.31
6.02
13.33
14.84
15.87
20.46
28.09
33.45
29.82
13.80
-11.58
-37.40
-52.93
-50.99
-31.64
-2.42
25.21
41.34
42.24
31.66
17.59
7.19
2.78
1.48
-1.77
-10.06
-21.78
-30.97
-30.71
-17.46
5.98
30.81
46.20
44.65
26.29
-1.24
-26.70
-40.74
-40.12
-28.36
-12.98
-1.11
4.28
5.52
7.61
14.01
23.44
30.04
27.05
11.39
-13.56
-38.60
-52.88
-49.35
-28.49
1.39
28.21
42.09
40.19
27.34
12.37
2.71
0.35
1.69
0.57
-7.38
-21.38
-35.50
-42.01
-35.93
-18.28
4.32
23.27
32.38
30.76
22.82
15.38
13.54
17.67
23.02
22.53
11.45
-9.26
-32.68
-49.18
-51.33
-37.79
-14.01
10.44
26.64
30.78
25.31
16.71
11.14
10.59
12.10
10.25
1.03
-14.92
-31.80
-41.60
-38.76
-23.48
-2.20
15.93
23.91
20.75
11.68
4.95
6.55
16.50
28.81
34.99
29.29
12.32
-9.10
-25.62
-30.51
-23.37
-10.11
0.41
1.31
-8.39
-23.31
-34.75
-35.47
-23.58
-3.67
15.89
27.37
27.78
20.14
11.24
7.21
10.01
16.17
19.21
13.82
-0.55
-18.88
-33.27
-37.12
-28.60
-11.54
6.79
19.45
23.50
21.06
17.17
16.33
19.48
23.55
23.36
15.02
-1.09
-19.70
-33.18
-35.83
-26.98
-11.45
3.19
10.49
8.55
0.95
-5.71
-6.10
0.62
10.34
16.62
14.48
3.48
-11.61
-23.37
-25.84
-18.04
-4.51
7.56
12.23
8.14
-0.78
-7.67
-6.96
2.02
14.48
22.92
21.55
9.51
-8.30
-23.70
-29.56
-23.71
-10.01
4.21
12.41
12.36
6.91
1.83
1.95
7.69
14.59
15.95
7.36
-10.08
-29.53
-41.59
-39.18
-21.62
4.34
27.46
37.64
30.92
11.18
-11.86
-27.57
-29.51
-18.31
-0.72
14.60
22.03
21.42
17.01
13.94
14.40
16.24
14.40
4.67
-12.68
-31.94
-44.39
-43.07
-26.81
-1.34
23.37
38.25
39.62
30.68
18.97
11.99
13.00
19.60
25.34
23.88
13.03
-3.47
-18.24
-24.77
-21.40
-12.26
-4.80
-5.45
-15.70
-30.86
-42.47
-42.96
-30.23
-9.27
10.34
19.85
16.21
3.73
-8.80
-13.45
-7.53
5.31
17.68
23.11
19.85
11.85
6.06
7.70
16.70
27.37
31.74
24.35
5.58
-18.07
-37.12
-43.87
-36.30
-19.25
-1.96
6.83
3.84
-7.06
-17.35
-19.08
-9.41
7.81
24.29
32.03
27.62
14.05
-1.55
-11.99
-13.97
-9.38
-3.56
-1.59
-4.83
-10.03
-11.24
-3.88
12.08
31.28
45.15
46.12
31.97
7.51
-17.65
-33.63
-35.08
-23.28
-4.88
11.62
20.48
21.28
17.99
15.40
15.59
16.52
13.57
2.84
-15.60
-36.23
-50.61
-51.68
-37.95
-14.44
9.77
25.83
29.27
21.93
10.28
1.20
-1.99
-1.06
-0.75
-5.40
-15.45
-26.35
-30.87
-23.44
-4.19
20.32
40.00
46.17
35.90
13.90
-9.85
-25.13
-26.72
-16.54
-1.63
10.28
14.93
13.61
11.45
13.11
18.98
24.20
21.76
7.27
-17.39
-43.52
-59.40
-56.47
-34.21
-1.11
29.31
44.75
39.83
18.47
-8.39
-28.57
-34.49
-26.15
-9.92
5.53
13.92
14.28
10.12
6.21
4.97
5.02
2.57
-5.34
-17.82
-29.61
-33.54
-25.02
-5.11
19.05
37.54
42.35
31.32
9.29
-14.47
-30.82
-34.98
-27.98
-15.36
-3.77
2.67
4.40
5.26
9.62
19.20
31.54
40.98
41.55
30.56
10.63
-11.31
-27.23
-31.87
-25.17
-11.97
0.84
8.21
9.48
8.05
8.65
13.89
22.04
27.63
24.72
10.81
-10.81
-31.90
-43.18
-39.14
-21.15
3.12
23.53
32.54
28.77
17.06
4.93
-1.96
-3.12
-2.81
-6.59
-17.06
-31.14
-41.30
-40.19
-25.39
-1.73
20.53
30.90
24.28
4.14
-19.41
-34.87
-35.41
-21.86
-1.74
15.39
23.43
22.39
17.25
13.87
15.01
18.46
18.76
11.19
-4.34
-22.48
-34.92
-34.75
-20.31
3.33
26.66
40.34
39.34
25.07
4.79
-12.20
-19.00
-14.30
-2.28
10.18
17.08
16.74
12.03
7.90
7.38
9.36
9.24
2.06
-13.28
-31.86
-44.68
-43.72
-26.75
0.60
26.91
40.54
35.63
15.07
-11.39
-31.75
-37.60
-27.79
-8.25
11.74
24.39
26.53
20.56
11.93
5.71
3.45
3.08
1.11
-4.58
-12.48
-17.90
-16.20
-6.56
6.81
16.19
14.35
-0.71
-23.78
-44.58
-52.83
-43.42
-19.14
10.39
33.36
41.49
33.44
14.85
-4.70
-16.56
-17.00
-8.14
4.22
14.10
18.63
19.10
18.90
20.32
22.25
20.77
11.94
-4.53
-23.70
-37.10
-37.23
-22.22
2.47
25.99
37.32
30.83
9.12
-18.13
-38.88
-44.39
-33.26
-11.63
10.26
23.21
23.46
13.91
1.84
-5.70
-5.71
-0.47
4.76
5.44
1.11
-4.36
-5.70
-0.06
10.58
19.97
21.06
10.51
-8.90
-29.22
-41.07
-38.29
-21.20
3.52
26.21
38.83
38.42
28.18
15.05
5.47
1.68
1.16
-1.06
-8.75
-20.93
-31.83
-34.22
-24.07
-3.42
19.86
35.70
37.05
23.59
1.60
-19.28
-30.77
-29.69
-18.91
-4.96
6.00
11.11
11.85
12.34
15.85
21.98
26.35
23.05
8.52
-15.06
-39.61
-54.81
-53.25
-34.63
-6.19
20.91
36.90
38.02
27.55
12.99
1.62
-3.25
-3.42
-3.62
-7.81
-16.17
-24.62
-27.08
-19.40
-2.38
17.92
32.66
34.86
23.14
2.73
-17.27
-28.54
-27.86
-18.26
-6.68
0.35
0.50
-3.40
-5.66
-1.62
9.23
22.67
32.21
32.73
23.68
9.53
-2.74
-7.70
-4.47
2.57
6.49
2.12
-10.65
-26.39
-36.91
-35.87
-22.50
-2.09
16.91
27.35
27.14
20.03
12.78
10.85
15.12
21.40
23.06
15.37
-1.24
-21.17
-36.24
-40.15
-31.97
-16.55
-1.46
7.07
7.41
3.29
0.94
4.89
15.11
26.93
33.58
30.22
17.15
-0.29
-14.59
-20.07
-15.95
-6.90
-0.13
-1.31
-11.44
-26.08
-37.67
-39.80
-30.70
-14.11
2.67
12.65
13.21
7.19
0.99
0.62
8.15
20.30
30.58
33.31
27.10
15.73
6.03
3.65
9.50
19.03
24.87
20.81
5.66
-15.41
-33.71
-41.54
-36.22
-21.78
-6.84
0.48
-2.91
-13.52
-23.19
-24.16
-13.78
3.94
20.95
29.80
28.02
19.46
11.49
10.18
16.53
26.09
31.61
27.64
14.06
-3.62
-17.35
-20.97
-13.66
-0.53
10.26
11.79
2.26
-14.00
-28.86
-34.88
-29.37
-16.01
-2.95
1.69
-5.48
-20.96
-36.11
-42.03
-34.66
-17.28
1.22
11.60
9.70
-1.31
-13.01
-16.93
-9.82
4.74
18.88
25.47
22.26
13.44
6.39
6.99
16.00
28.61
37.13
35.63
23.54
5.66
-10.16
-17.40
-14.37
-5.16
3.04
3.69
-5.38
-20.20
-33.01
-36.47
-27.72
-10.03
8.58
19.95
20.41
12.30
2.68
-1.11
4.20
15.88
27.32
31.97
27.34
16.65
6.54
2.76
6.65
14.31
18.64
14.06
0.07
-18.38
-33.15
-37.51
-30.05
-15.59
-2.42
1.87
-5.17
-19.20
-31.84
-35.37
-26.86
-10.02
6.98
16.50
15.47
7.13
-1.05
-2.03
6.38
20.38
32.32
35.12
26.72
11.33
-3.03
-9.13
-4.68
6.28
15.70
16.12
4.90
-13.89
-31.60
-39.67
-34.34
-18.76
-1.12
10.06
10.71
3.32
-4.82
-6.42
1.41
15.44
28.25
32.80
26.46
12.80
-0.77
-7.32
-4.52
4.14
11.37
10.54
-0.53
-18.01
-34.05
-40.96
-35.48
-20.60
-3.73
7.26
8.62
2.80
-3.50
-3.49
5.53
20.32
33.57
38.23
31.46
16.23
-0.25
-10.94
-12.93
-8.84
-5.06
-7.43
-17.32
-30.48
-39.15
-36.70
-21.64
1.23
23.08
35.73
35.88
26.65
15.15
8.18
8.10
11.75
12.94
6.38
-8.70
-27.44
-42.04
-45.76
-36.56
-18.45
0.71
13.57
16.86
12.91
7.94
7.71
14.17
24.26
31.54
30.25
19.07
2.00
-13.47
-20.49
-16.94
-6.48
3.80
7.06
0.85
-11.23
-21.98
-24.47
-15.87
0.53
17.45
27.75
27.98
20.24
10.48
4.47
4.51
8.27
9.89
4.07
-10.20
-28.79
-43.70
-47.42
-37.37
-17.31
4.58
19.45
22.73
16.32
6.47
0.29
1.19
6.59
10.31
6.55
-6.41
-23.96
-37.92
-41.19
-31.37
-12.40
7.55
20.96
24.66
21.11
16.65
17.06
23.72
33.08
38.16
32.85
16.10
-7.27
-28.37
-38.61
-34.43
-19.02
-0.31
12.95
16.20
11.34
4.62
2.77
8.61
18.88
26.45
24.43
10.25
-12.01
-33.82
-46.62
-45.98
-34.00
-17.86
-5.46
-1.28
-3.94
-7.35
-5.15
5.07
19.93
31.54
32.45
20.24
-0.88
-21.79
-33.45
-31.79
-19.31
-3.42
7.87
10.59
6.50
1.57
2.14
10.65
23.88
34.87
36.33
25.12
4.62
-17.08
-31.15
-32.54
-22.90
-9.08
0.92
2.23
-3.85
-11.06
-12.48
-4.44
10.93
26.75
35.73
33.99
23.19
9.45
-0.55
-3.54
-0.94
1.86
-0.62
-10.06
-23.26
-33.11
-32.78
-19.93
1.68
23.84
37.74
38.72
28.63
14.03
2.57
-1.62
-0.14
1.50
-2.53
-14.46
-30.73
-43.95
-47.03
-36.92
-16.91
5.05
20.63
25.14
20.07
11.83
7.41
10.06
17.50
22.85
19.38
5.10
-15.87
-34.56
-42.26
-35.51
-17.71
2.58
16.12
18.29
11.24
1.83
-2.08
3.31
15.65
28.43
34.42
29.96
17.35
2.85
-6.91
-8.69
-5.03
-2.19
-6.02
-18.41
-35.19
-48.22
-50.16
-38.34
-16.48
6.86
23.36
29.10
25.92
20.03
17.55
20.52
26.19
28.55
22.20
6.25
-14.82
-33.02
-40.72
-34.86
-18.55
0.45
13.73
16.82
11.41
4.13
2.18
8.81
21.02
31.10
31.46
19.27
-1.26
-20.91
-30.81
-27.27
-13.59
1.93
11.03
10.15
2.05
-6.23
-8.09
-1.60
9.57
18.00
16.86
4.12
-16.24
-36.09
-47.15
-45.63
-33.76
-18.46
-7.80
-6.36
-13.10
-22.03
-25.73
-19.88
-5.76
10.55
21.57
23.04
16.46
8.11
5.26
11.53
24.69
38.08
44.60
40.93
29.70
17.60
11.27
13.36
20.92
27.54
27.37
18.64
4.83
-7.73
-13.54
-11.20
-4.31
0.73
-1.67
-12.94
-29.06
-42.72
-47.10
-39.49
-23.39
-6.81
1.99
-1.19
-13.62
-27.18
-32.98
-26.16
-8.95
10.52
23.31
24.39
15.91
5.53
1.36
7.46
21.17
34.66
40.01
33.62
18.64
3.00
-5.55
-3.81
4.94
12.53
11.17
-2.07
-22.85
-41.68
-49.34
-41.76
-22.54
-1.23
12.30
12.98
3.46
-7.73
-11.66
-3.85
12.92
30.26
39.42
35.90
22.22
5.99
-4.92
-6.58
-1.38
3.87
2.57
-7.73
-23.16
-35.97
-39.08
-29.89
-12.09
6.68
19.11
21.97
17.87
12.84
12.28
17.61
25.09
28.17
21.73
5.42
-15.21
-31.52
-36.38
-28.15
-12.06
2.78
8.21
1.83
-11.50
-22.60
-23.31
-11.21
8.91
28.00
38.05
36.35
26.73
16.55
11.80
13.56
17.56
17.14
7.66
-10.29
-30.68
-45.05
-47.14
-36.05
-17.00
1.60
12.48
13.06
6.77
0.10
-1.05
4.87
13.68
18.50
13.44
-2.20
-22.98
-40.22
-46.10
-38.19
-20.40
-0.52
13.88
19.64
18.86
17.21
19.63
26.77
34.92
37.54
29.72
11.50
-11.73
-31.25
-39.74
-34.64
-19.59
-2.26
9.96
13.53
10.69
7.00
7.67
13.94
21.64
24.21
16.47
-1.26
-22.59
-38.31
-41.07
-29.72
-9.65
10.16
22.03
23.52
17.76
11.21
9.00
11.65
15.21
13.54
2.92
-15.28
-34.50
-46.25
-44.94
-30.56
-9.55
9.04
18.02
15.75
7.07
-0.27
0.20
9.39
22.21
30.56
27.91
13.47
-7.37
-25.56
-33.41
-28.62
-15.02
-0.20
9.22
11.21
8.98
8.28
13.18
22.90
31.72
32.40
20.63
-1.64
-26.51
-43.67
-45.92
-32.68
-10.27
11.52
24.39
25.36
17.70
7.94
1.79
0.77
1.52
-1.57
-12.33
-29.31
-45.93
-53.62
-46.57
-25.43
2.61
27.09
39.65
37.92
26.20
12.44
3.42
1.38
3.29
4.19
0.82
-5.70
-10.37
-7.78
4.24
22.26
38.55
44.80
36.39
15.38
-10.23
-29.99
-36.27
-27.71
-9.51
9.52
21.62
23.72
18.40
11.12
6.55
5.57
4.81
-0.63
-13.56
-31.74
-48.40
-55.47
-47.96
-27.13
-0.14
23.32
35.80
35.57
26.84
16.64
10.40
8.99
8.68
4.55
-5.64
-19.11
-29.10
-28.91
-15.89
5.92
27.47
38.91
34.40
15.63
-9.16
-28.77
-35.00
-26.05
-7.21
12.37
24.56
25.67
18.01
7.05
-1.61
-5.74
-6.87
-8.30
-12.51
-18.29
-21.71
-17.94
-5.31
12.97
29.39
35.43
26.44
4.09
-22.93
-43.45
-48.39
-35.68
-11.11
15.02
32.49
36.70
29.41
17.52
7.87
3.53
2.60
-0.02
-8.01
-21.19
-34.13
-39.83
-33.31
-15.30
7.72
26.92
35.22
31.46
19.94
8.45
2.91
4.56
9.25
10.17
2.62
-13.31
-31.55
-43.84
-43.44
-29.58
-7.65
13.55
26.17
27.66
20.79
12.15
7.06
6.89
8.23
5.60
-4.29
-20.12
-35.30
-42.08
-35.19
-15.86
8.86
29.31
38.14
34.18
22.08
9.79
3.07
2.99
5.16
3.37
-6.14
-21.75
-36.58
-42.76
-35.21
-15.70
8.57
28.14
36.47
33.13
23.10
13.80
9.86
11.34
13.21
9.69
-2.29
-20.22
-36.82
-44.19
-37.51
-18.76
5.06
24.57
33.28
30.33
20.43
10.82
6.33
7.46
9.36
6.07
-6.06
-24.80
-42.75
-51.36
-45.00
-25.18
0.95
23.35
34.94
34.42
26.51
18.64
15.85
18.75
22.51
21.23
11.03
-6.39
-24.50
-35.41
-33.58
-19.81
0.17
17.71
26.54
25.31
18.25
12.06
11.17
15.78
20.61
19.34
7.76
-12.20
-33.35
-46.74
-46.00
-31.47
-8.95
12.46
25.91
29.25
25.85
21.48
20.13
22.09
23.00
17.83
3.59
-17.16
-37.46
-48.97
-46.26
-30.26
-7.11
13.99
26.19
27.58
22.11
16.15
14.38
17.15
19.62
15.88
2.02
-19.69
-42.01
-55.68
-54.39
-38.37
-13.86
9.49
24.00
26.80
21.17
13.30
8.59
8.41
9.47
6.62
-3.74
-20.20
-36.77
-45.34
-40.45
-22.37
2.57
24.98
37.12
36.51
27.04
15.92
9.45
9.25
11.65
10.35
0.80
-16.33
-34.93
-46.42
-44.59
-29.12
-5.89
15.92
28.53
29.36
21.87
12.81
8.02
8.88
11.74
10.74
1.88
-13.69
-29.83
-38.39
-33.93
-16.88
6.29
26.36
36.14
33.95
24.10
13.83
8.92
10.24
13.63
12.65
2.88
-14.87
-34.43
-47.32
-47.34
-33.99
-12.90
7.36
19.38
20.81
14.81
7.82
5.29
8.56
14.10
15.88
9.36
-5.31
-22.65
-34.70
-35.09
-23.04
-3.48
14.95
24.78
23.50
14.73
5.74
2.78
7.56
15.58
19.69
13.94
-1.75
-21.43
-35.87
-37.85
-26.16
-6.30
12.52
22.57
21.36
12.85
4.35
2.32
8.14
18.00
24.90
23.29
12.12
-4.27
-18.73
-25.27
-22.24
-13.26
-4.62
-1.84
-5.93
-12.93
-16.07
-10.28
4.80
23.67
38.10
40.98
30.41
10.60
-10.11
-23.56
-25.84
-18.54
-7.73
0.33
2.45
0.47
-0.89
3.03
12.82
24.48
31.05
26.90
11.24
-10.72
-30.39
-40.34
-37.90
-26.98
-14.88
-8.53
-10.03
-16.02
-19.70
-15.44
-2.10
15.91
31.27
37.80
33.87
23.17
12.38
7.39
9.78
16.71
22.38
22.09
14.78
3.94
-4.90
-7.17
-2.37
5.57
10.32
6.70
-6.02
-23.32
-37.67
-42.90
-37.34
-25.43
-14.54
-11.30
-17.14
-27.75
-35.27
-33.15
-19.83
0.20
18.87
28.85
27.48
17.89
6.99
1.66
4.77
14.37
24.65
29.79
27.06
18.53
9.23
4.26
5.14
8.87
9.52
2.07
-13.94
-33.25
-47.30
-48.97
-36.60
-15.39
5.38
17.21
16.87
7.85
-2.06
-5.36
0.82
13.49
25.76
30.96
26.48
15.01
2.69
-4.69
-5.07
-1.14
1.55
-1.74
-11.38
-22.67
-28.41
-23.20
-7.11
13.79
30.60
36.41
30.37
17.96
7.67
5.74
12.57
22.63
27.93
22.79
7.14
-13.36
-30.43
-37.47
-32.98
-21.00
-8.80
-3.08
-6.38
-15.89
-24.98
-26.93
-18.69
-2.77
14.25
25.23
26.79
20.84
13.29
9.86
12.49
17.79
19.43
12.28
-3.66
-22.77
-36.52
-38.42
-27.74
-10.08
5.85
13.27
10.95
3.57
-1.59
0.65
10.09
21.27
26.78
21.75
7.01
-11.27
-24.97
-28.29
-20.98
-8.24
2.14
3.97
-3.91
-17.18
-28.37
-31.23
-24.00
-10.47
2.43
8.63
6.65
0.26
-3.90
-0.52
10.96
25.97
37.39
39.67
31.85
18.15
5.38
-0.83
0.88
7.04
11.36
8.22
-4.01
-21.65
-37.38
-43.58
-36.66
-18.90
2.39
18.67
24.74
21.24
13.86
9.31
11.11
17.21
21.58
18.18
5.39
-12.50
-27.54
-32.73
-26.33
-12.91
-0.83
2.98
-3.07
-14.11
-21.90
-19.76
-6.68
12.14
28.21
34.55
29.59
17.65
5.96
0.40
1.90
6.55
7.89
1.34
-12.94
-29.51
-40.61
-40.19
-27.48
-7.02
13.15
26.02
28.76
24.06
17.72
15.24
18.07
23.28
24.98
18.51
3.23
-16.29
-32.78
-39.79
-35.54
-23.42
-10.54
-3.56
-5.26
-12.83
-19.90
-20.07
-10.99
4.64
20.13
29.08
28.62
21.33
13.17
10.04
13.73
21.23
26.01
22.37
8.88
-10.18
-27.27
-35.33
-32.06
-20.76
-8.79
-3.11
-6.62
-16.25
-25.19
-26.69
-18.24
-2.71
12.97
22.21
22.10
15.37
8.24
6.78
12.93
23.78
32.90
34.50
26.71
12.97
-0.28
-6.94
-5.19
2.01
8.13
7.24
-2.64
-17.91
-31.40
-36.00
-28.86
-12.68
5.26
17.48
20.04
14.77
7.67
5.11
9.62
18.65
25.93
25.71
16.43
1.88
-11.15
-16.99
-14.80
-8.80
-5.68
-10.30
-22.13
-35.41
-42.28
-37.36
-21.11
0.35
18.53
27.10
25.03
16.73
9.02
6.99
11.06
17.03
18.67
11.50
-4.26
-23.50
-38.34
-42.26
-33.45
-15.88
2.72
14.46
15.62
8.15
-1.32
-5.50
-0.33
12.52
26.97
35.71
34.61
24.72
11.68
2.02
-0.61
2.02
4.30
0.13
-12.62
-30.27
-44.92
-48.97
-39.48
-20.32
0.16
13.81
17.12
12.87
7.56
6.94
12.03
18.53
19.91
11.78
-4.75
-23.23
-35.27
-35.14
-22.74
-3.70
13.63
22.61
21.51
14.04
6.94
5.82
12.07
21.70
27.97
24.99
11.78
-7.15
-23.78
-31.27
-27.55
-16.65
-5.92
-1.84
-6.04
-14.49
-20.20
-17.41
-5.13
12.31
27.75
35.12
32.42
22.62
11.31
3.62
1.07
1.40
-0.10
-6.92
-18.93
-31.53
-38.03
-33.41
-17.64
3.90
22.73
31.71
28.97
18.41
7.48
2.39
4.83
10.81
13.89
8.89
-4.24
-20.34
-31.64
-32.35
-21.72
-5.03
9.49
14.99
9.60
-2.38
-13.31
-16.35
-9.59
3.48
15.71
20.94
17.30
8.19
0.00
-1.94
3.23
11.39
15.85
11.32
-2.26
-19.63
-32.49
-34.37
-23.96
-6.29
10.47
19.17
17.49
9.04
0.67
-1.63
3.66
13.02
19.93
19.28
10.29
-2.65
-12.60
-14.14
-6.57
5.39
14.27
13.81
3.22
-12.47
-24.68
-26.18
-15.20
3.48
21.14
29.82
26.59
14.91
1.98
-5.53
-5.48
-1.19
1.05
-3.86
-16.24
-31.19
-41.09
-40.20
-28.00
-9.58
7.19
15.95
15.37
9.62
5.38
7.89
17.44
29.33
36.53
33.76
20.92
3.17
-11.66
-17.61
-13.48
-3.81
4.20
4.64
-3.46
-15.33
-23.43
-21.39
-8.51
10.34
26.61
33.02
27.50
13.85
-0.40
-8.81
-9.15
-5.02
-2.60
-7.24
-19.27
-33.47
-42.06
-38.83
-23.48
-1.46
18.14
28.02
26.07
16.44
6.69
2.97
6.91
14.33
18.79
14.89
2.32
-14.14
-27.18
-30.97
-24.76
-12.63
-1.77
2.14
-2.44
-11.67
-18.74
-17.98
-7.70
8.16
23.14
31.14
30.28
23.53
16.48
13.93
16.49
20.68
20.37
11.33
-6.26
-27.03
-42.85
-47.24
-38.44
-20.81
-1.98
10.76
14.39
11.25
7.04
7.13
12.87
20.96
25.19
20.71
7.06
-11.06
-25.96
-31.48
-26.04
-13.83
-2.06
3.10
-0.11
-7.86
-13.37
-10.79
1.18
18.47
33.75
40.44
36.22
24.22
10.82
1.99
-0.20
1.40
1.06
-6.03
-20.20
-36.55
-47.11
-45.24
-29.65
-5.40
18.22
32.50
33.53
23.75
10.21
0.14
-2.82
-0.48
1.87
-0.89
-9.94
-21.34
-28.29
-25.19
-11.23
8.73
26.56
35.14
32.11
20.90
8.37
0.75
0.08
3.49
5.12
0.30
-11.31
-25.13
-33.78
-31.40
-16.87
5.01
25.84
37.70
36.93
25.98
11.30
-0.24
-5.19
-5.16
-5.07
-9.75
-20.13
-32.32
-39.49
-35.87
-20.55
1.62
21.89
32.22
29.21
15.81
-0.36
-11.40
-13.11
-7.12
0.75
4.30
0.80
-7.28
-13.97
-13.55
-4.17
10.96
25.22
32.34
29.68
19.80
8.46
1.25
0.38
3.40
4.86
-0.48
-13.86
-31.52
-46.04
-50.10
-40.55
-20.25
2.92
20.31
26.74
23.12
15.35
10.36
11.74
17.54
21.65
17.83
3.97
-15.75
-32.72
-38.48
-29.43
-8.95
14.28
30.78
35.17
28.73
17.81
9.75
8.41
11.84
14.16
9.21
-4.84
-23.86
-39.70
-44.43
-34.97
-14.48
8.96
26.78
34.06
31.53
24.61
19.42
19.31
22.70
24.32
18.67
3.61
-17.53
-37.31
-47.90
-45.41
-32.12
-15.58
-4.54
-4.29
-13.65
-25.93
-32.73
-28.72
-14.62
3.62
18.24
24.23
21.80
15.93
12.64
15.09
21.53
26.35
23.65
10.99
-8.43
-27.24
-37.54
-35.12
-21.83
-4.34
9.21
13.95
10.59
4.55
2.46
7.60
18.06
27.19
27.98
17.08
-2.60
-22.81
-34.59
-32.67
-18.85
-0.80
12.14
14.08
5.89
-5.72
-12.19
-8.27
4.70
20.00
29.12
26.82
14.33
-2.10
-14.47
-18.10
-13.63
-6.51
-3.34
-7.53
-17.54
-27.12
-29.26
-20.25
-1.74
19.38
35.10
40.00
34.17
23.06
13.63
10.74
13.90
18.09
16.61
5.40
-13.76
-34.22
-47.33
-47.49
-35.23
-16.75
-0.92
5.85
2.81
-5.10
-10.24
-7.15
4.68
20.19
32.19
35.49
29.60
19.05
10.06
6.79
8.80
11.12
7.77
-4.66
-24.02
-42.88
-52.63
-47.74
-29.90
-6.85
10.95
16.05
8.31
-5.91
-16.95
-17.95
-8.20
6.63
18.32
21.19
15.23
5.81
-0.05
2.00
11.13
22.03
28.27
26.24
17.33
7.12
2.15
6.00
17.12
29.56
36.33
33.20
21.06
5.51
-6.51
-10.39
-6.49
0.24
3.05
-2.58
-16.03
-31.72
-42.15
-42.17
-32.08
-17.84
-7.80
-8.10
-18.76
-33.51
-43.06
-40.39
-24.98
-3.00
16.03
24.75
21.93
12.77
5.58
6.51
16.28
29.85
39.93
41.36
34.10
23.19
15.19
14.20
19.28
24.91
24.21
13.05
-7.03
-29.15
-44.39
-46.52
-35.61
-17.99
-3.22
1.08
-6.60
-21.07
-33.18
-35.29
-25.28
-7.92
8.20
15.68
12.50
3.17
-4.44
-3.91
5.86
19.81
30.01
30.19
19.63
3.88
-8.74
-11.78
-4.79
6.91
14.96
13.17
1.43
-14.50
-25.68
-25.57
-13.41
5.25
21.63
28.89
25.24
14.84
4.71
0.31
2.53
6.94
7.38
-0.46
-15.57
-31.56
-40.41
-36.51
-20.49
1.22
19.61
27.83
24.75
14.90
5.57
2.22
5.22
10.18
10.54
2.14
-13.81
-31.26
-41.82
-39.77
-24.75
-2.50
18.15
29.86
29.96
21.91
12.44
7.73
9.66
14.58
16.29
9.61
-5.68
-24.04
-37.42
-39.24
-28.65
-10.71
6.14
14.75
13.37
5.97
-0.25
0.47
8.69
19.81
26.20
22.11
7.23
-13.19
-30.38
-37.20
-31.55
-17.45
-2.63
6.14
6.60
2.18
-0.59
3.64
15.62
30.41
40.47
39.72
27.14
7.94
-9.47
-17.81
-14.96
-5.12
4.01
5.42
-2.89
-16.80
-28.67
-31.62
-24.11
-10.47
1.35
4.52
-1.97
-13.12
-20.52
-17.46
-3.26
16.74
33.72
40.58
35.80
23.53
11.36
5.36
6.96
12.19
14.17
7.61
-8.00
-27.47
-42.37
-45.76
-35.65
-16.80
1.89
11.85
9.26
-2.43
-14.90
-19.46
-11.89
5.06
23.70
35.68
36.79
29.05
18.61
11.86
11.14
13.63
13.43
5.61
-10.08
-28.57
-42.12
-44.63
-35.33
-19.32
-4.76
1.45
-2.32
-11.52
-18.21
-15.66
-2.36
16.57
32.33
37.12
28.40
10.78
-6.85
-16.28
-14.32
-4.76
4.69
6.96
0.26
-10.38
-16.57
-11.53
5.29
27.13
43.65
46.31
33.19
10.53
-11.16
-22.54
-20.49
-9.67
1.25
4.47
-1.98
-12.79
-19.17
-14.12
2.93
24.84
40.86
42.28
27.35
2.86
-19.92
-31.15
-27.42
-13.56
1.14
8.32
5.20
-3.90
-11.04
-9.90
0.23
13.52
21.31
17.32
1.28
-20.17
-37.23
-42.26
-33.55
-16.29
0.94
10.82
11.11
5.40
0.49
1.79
10.21
21.28
27.78
24.06
9.43
-10.94
-28.19
-34.78
-28.20
-12.59
3.21
10.72
6.30
-6.87
-20.30
-25.42
-18.27
-1.72
16.16
27.23
27.88
20.92
13.30
11.36
16.48
24.23
27.10
19.40
1.24
-21.11
-38.46
-43.58
-35.15
-18.20
-1.24
8.24
7.89
1.30
-4.36
-2.77
7.75
23.08
35.36
37.58
27.54
9.21
-9.34
-20.63
-21.92
-16.23
-10.30
-9.87
-15.80
-23.62
-26.10
-17.96
0.26
22.21
38.63
42.12
31.18
11.00
-9.47
-21.87
-22.99
-15.86
-7.32
-3.97
-8.08
-16.10
-21.39
-18.16
-5.19
12.91
28.20
33.65
26.75
11.17
-5.46
-15.75
-16.13
-8.83
-0.12
3.74
0.44
-6.85
-11.08
-6.16
8.93
28.94
44.41
47.09
34.70
12.02
-11.21
-25.73
-27.73
-19.86
-9.36
-3.45
-4.93
-10.78
-14.91
-11.73
-0.49
13.68
22.78
19.90
3.77
-19.38
-39.06
-45.67
-35.06
-11.41
15.41
35.09
41.40
34.95
22.00
9.82
2.78
0.71
-0.51
-4.78
-12.52
-20.28
-22.40
-14.91
0.65
17.64
27.19
22.66
4.09
-21.01
-41.61
-48.02
-36.82
-12.96
13.62
32.74
38.48
31.97
19.37
7.52
0.54
-1.95
-3.74
-8.05
-14.88
-20.65
-20.15
-10.20
7.10
24.95
34.57
29.61
10.23
-16.24
-38.89
-47.95
-39.60
-18.09
7.27
26.54
33.92
30.14
20.88
12.40
7.93
6.01
1.87
-8.17
-23.60
-38.91
-46.12
-39.33
-18.69
9.20
33.93
46.25
42.62
26.94
7.82
-5.86
-9.60
-5.41
0.50
1.76
-3.97
-13.28
-19.20
-15.61
-1.12
19.08
35.78
40.39
29.75
7.92
-15.67
-31.40
-34.28
-26.16
-14.32
-6.71
-7.12
-13.11
-17.79
-14.25
-0.53
18.89
35.44
41.26
33.73
17.21
0.05
-10.20
-10.71
-4.83
0.52
-0.67
-9.80
-22.76
-32.23
-31.92
-20.23
-0.96
18.52
31.08
33.21
26.64
16.77
9.59
8.17
10.91
12.59
7.49
-6.59
-26.48
-44.77
-53.43
-48.30
-31.49
-10.28
6.74
14.18
12.95
8.92
8.82
15.74
26.88
34.95
32.94
18.49
-4.09
-25.59
-36.85
-33.88
-19.82
-3.14
7.21
6.97
-1.18
-9.73
-11.04
-2.08
13.61
28.11
33.41
26.06
9.00
-10.08
-22.90
-24.82
-17.11
-5.83
1.95
2.08
-4.20
-11.03
-11.64
-2.44
14.43
31.48
39.90
34.34
15.98
-7.76
-27.07
-35.17
-31.39
-20.82
-10.87
-6.54
-7.50
-9.02
-5.33
6.37
23.39
38.58
44.33
36.85
18.62
-2.47
-17.36
-20.76
-13.58
-2.26
5.10
3.75
-4.85
-14.08
-16.16
-7.05
10.39
27.98
36.73
32.09
16.52
-1.80
-14.13
-16.15
-9.86
-2.31
-0.65
-7.61
-19.66
-29.19
-28.69
-15.47
6.26
27.77
40.07
38.53
25.32
7.86
-5.60
-10.29
-7.18
-2.35
-2.59
-11.04
-25.08
-37.52
-40.43
-30.26
-10.05
12.21
27.43
30.50
22.77
10.81
2.00
0.72
5.73
11.03
9.96
-0.64
-18.47
-36.46
-46.51
-44.00
-30.20
-11.46
3.89
10.17
7.38
0.67
-2.86
1.76
14.14
28.55
37.42
35.68
23.68
7.16
-6.20
-11.53
-9.20
-4.36
-3.67
-10.79
-23.60
-35.32
-38.49
-29.02
-9.24
13.04
28.87
32.88
26.00
15.03
8.19
10.01
18.93
28.23
29.90
19.80
0.67
-19.38
-31.28
-29.83
-17.03
-0.87
9.38
8.32
-2.68
-16.15
-23.16
-18.78
-4.37
13.26
25.75
27.98
20.82
9.83
1.58
-0.09
3.67
7.60
6.26
-2.51
-16.00
-27.54
-30.15
-20.82
-2.47
17.34
29.69
29.06
16.35
-1.80
-16.74
-22.22
-17.89
-9.32
-4.24
-7.95
-20.09
-34.34
-41.95
-37.13
-20.53
1.03
17.84
23.00
16.36
4.15
-4.68
-3.82
6.80
21.21
31.03
30.82
21.24
8.34
0.18
1.88
12.35
25.59
33.86
32.28
21.90
8.90
0.65
1.61
10.39
20.29
23.50
15.33
-2.77
-23.67
-38.60
-41.89
-33.97
-21.04
-11.65
-11.86
-21.86
-35.84
-45.19
-43.68
-31.03
-13.35
0.16
2.70
-5.93
-19.51
-28.73
-26.90
-14.13
3.50
17.54
22.32
18.41
11.83
9.78
16.19
29.41
43.01
50.15
47.13
35.67
21.86
12.62
11.88
18.27
25.72
27.09
18.35
1.03
-17.79
-29.68
-29.81
-19.43
-5.74
2.21
-0.96
-13.69
-28.62
-36.62
-32.14
-16.82
1.73
14.20
14.61
3.58
-12.02
-23.24
-24.01
-13.88
1.94
15.83
22.27
20.94
16.15
13.97
18.51
28.97
40.11
45.65
41.96
30.24
16.42
7.47
7.08
13.65
21.20
22.57
13.95
-2.51
-19.99
-30.76
-30.18
-19.79
-6.43
1.91
0.06
-11.33
-26.14
-36.54
-37.57
-29.68
-18.46
-11.52
-13.90
-24.72
-37.64
-44.40
-39.42
-23.60
-4.32
8.76
8.97
-3.48
-21.26
-34.02
-34.48
-22.30
-3.86
11.23
16.12
10.64
0.89
-4.84
-0.80
12.65
29.25
41.05
42.80
34.83
22.75
14.00
13.21
19.66
27.78
30.48
23.52
8.39
-8.24
-18.37
-17.31
-6.62
6.32
12.52
6.41
-10.69
-31.14
-45.09
-45.88
-33.77
-15.58
-0.76
3.85
-2.10
-12.63
-19.32
-16.36
-3.77
12.74
25.42
29.29
24.79
17.10
12.62
14.92
22.54
29.91
30.78
21.80
4.78
-13.98
-26.70
-28.36
-19.36
-5.54
4.85
5.58
-3.54
-16.48
-24.46
-20.92
-5.63
14.92
31.37
36.93
31.20
20.04
11.61
11.35
18.58
27.26
29.80
21.75
4.66
-14.63
-27.77
-29.76
-21.75
-10.55
-4.67
-9.44
-23.29
-38.65
-45.98
-39.54
-20.98
1.31
16.91
19.10
8.85
-5.96
-15.25
-12.37
2.29
21.77
36.62
40.35
32.75
19.54
8.67
5.60
10.11
16.66
18.20
10.65
-4.13
-19.24
-26.75
-22.68
-9.93
3.35
8.25
0.23
-17.85
-37.02
-47.20
-43.06
-26.59
-6.38
6.98
6.67
-6.46
-24.57
-37.30
-37.16
-23.75
-4.10
11.69
16.37
9.65
-1.97
-8.99
-5.00
9.11
26.02
36.65
35.64
24.86
12.21
6.44
11.64
24.73
37.84
43.03
37.09
23.37
9.56
2.82
5.54
14.62
23.16
24.37
15.33
-1.45
-19.42
-31.48
-33.33
-25.66
-14.10
-6.32
-7.92
-19.15
-34.64
-45.88
-45.78
-33.18
-13.74
3.24
10.01
4.86
-6.85
-16.01
-15.43
-4.31
11.71
24.34
27.80
22.36
13.98
10.07
14.44
24.90
34.86
37.31
29.27
13.78
-1.80
-10.12
-8.19
1.08
10.43
12.22
2.81
-14.99
-33.37
-43.67
-40.93
-26.54
-7.80
5.95
8.53
0.18
-12.82
-21.62
-19.85
-7.23
10.18
23.63
26.76
19.21
6.76
-2.22
-1.86
7.37
18.69
23.17
15.06
-4.20
-26.31
-40.73
-40.53
-26.66
-7.45
6.29
7.51
-2.95
-16.98
-24.23
-18.41
-1.05
19.55
33.33
34.58
25.31
13.51
8.00
12.62
23.84
32.85
31.10
15.83
-7.84
-29.60
-39.68
-34.35
-17.92
-0.18
9.33
6.59
-4.70
-15.72
-18.06
-8.54
8.83
25.54
33.77
30.90
20.80
11.09
8.23
13.65
22.86
28.31
24.04
9.27
-10.91
-28.20
-35.48
-30.52
-17.42
-4.18
1.52
-3.58
-16.48
-29.54
-34.60
-27.48
-10.61
8.61
21.94
24.62
17.86
7.63
0.79
0.72
5.07
7.68
2.71
-11.45
-30.46
-45.84
-49.53
-38.52
-16.86
6.57
22.69
26.82
20.90
11.91
7.51
11.52
21.80
32.05
35.71
29.74
16.42
2.03
-6.88
-7.21
-1.23
4.96
4.93
-4.30
-20.13
-35.42
-42.16
-35.91
-18.62
2.50
18.76
24.46
19.87
10.57
3.81
3.90
9.41
14.46
12.52
0.53
-18.61
-37.17
-46.70
-42.75
-27.63
-8.94
4.64
8.02
2.42
-5.66
-8.51
-2.12
11.26
24.80
31.30
27.46
15.84
3.26
-3.43
-1.57
5.45
10.53
7.25
-6.11
-25.06
-41.01
-45.86
-36.60
-17.32
3.12
15.98
17.32
9.92
1.24
-1.16
5.81
18.86
30.81
35.09
29.77
18.52
8.00
3.81
7.05
13.44
15.94
9.20
-7.08
-27.39
-43.19
-47.33
-37.81
-19.38
-1.24
7.94
4.67
-7.46
-19.86
-23.88
-15.70
1.29
18.39
26.74
22.65
9.77
-3.17
-7.49
0.36
16.80
33.11
40.53
35.43
21.46
7.17
1.02
6.51
20.28
33.89
38.73
31.03
14.24
-2.87
-11.38
-7.14
6.73
21.39
27.00
18.19
-2.62
-26.41
-42.52
-44.25
-32.55
-15.40
-3.51
-4.29
-17.51
-35.43
-47.24
-45.50
-30.26
-8.91
8.05
13.12
6.13
-6.07
-13.83
-10.85
2.35
19.13
30.91
32.40
24.50
13.38
6.38
7.43
14.55
21.23
20.57
9.53
-8.83
-26.66
-35.74
-31.97
-18.08
-2.31
6.35
3.19
-9.45
-23.55
-29.95
-23.72
-7.10
11.71
23.34
22.89
12.70
0.70
-4.34
2.06
17.47
33.85
42.02
36.83
20.25
0.06
-14.49
-17.62
-10.22
0.89
6.97
2.35
-11.86
-28.27
-37.51
-33.49
-17.03
4.55
21.74
28.04
23.45
13.70
6.11
4.78
8.17
10.16
4.28
-11.58
-33.07
-51.27
-57.32
-47.42
-25.00
0.96
20.42
27.40
22.95
13.93
8.58
11.49
20.56
28.53
27.41
13.59
-9.27
-31.76
-43.52
-38.84
-19.92
4.40
23.79
31.77
28.94
21.58
16.97
18.66
24.15
26.35
18.49
-1.00
-26.54
-47.93
-55.63
-46.19
-24.02
0.66
17.14
19.74
10.61
-1.96
-8.42
-3.33
11.55
28.66
38.74
35.97
21.12
0.84
-16.14
-23.82
-22.06
-16.03
-12.35
-14.88
-21.97
-27.59
-25.36
-12.73
6.89
25.53
35.14
32.53
21.14
9.03
3.85
8.05
17.54
24.05
19.85
2.40
-23.57
-48.19
-61.32
-57.69
-39.68
-15.80
3.66
11.73
8.16
-1.16
-7.92
-6.38
3.37
15.83
24.05
23.97
17.17
9.70
7.95
14.54
26.34
36.09
37.01
27.24
11.16
-2.65
-6.46
1.93
17.80
31.66
34.29
21.78
-2.00
-27.31
-43.59
-44.94
-33.35
-17.14
-6.44
-7.55
-19.46
-34.75
-43.90
-40.86
-26.63
-8.44
4.96
8.39
3.33
-3.46
-4.66
3.02
16.71
28.92
32.43
25.06
11.17
-0.73
-3.25
5.17
19.31
29.99
29.02
13.89
-10.47
-33.98
-46.44
-42.88
-26.15
-4.98
10.99
16.43
12.73
6.35
4.39
10.23
21.29
30.59
31.27
21.09
4.31
-10.53
-15.67
-8.76
5.69
18.62
21.26
10.03
-11.39
-33.69
-46.86
-45.47
-31.64
-13.43
0.03
3.69
-0.76
-6.76
-7.22
0.84
14.46
26.46
30.04
23.16
10.18
-0.73
-2.62
5.82
19.27
28.73
26.55
10.89
-12.92
-34.79
-45.00
-39.26
-21.12
0.05
14.29
16.66
9.70
1.30
-0.60
7.09
20.47
30.90
30.06
14.90
-10.05
-34.78
-49.05
-47.92
-34.21
-16.45
-3.75
-0.58
-4.65
-9.03
-6.68
4.92
21.95
36.29
40.26
31.26
13.93
-2.48
-9.44
-4.11
9.04
20.88
22.94
12.15
-7.44
-26.68
-36.19
-31.42
-15.03
4.52
17.80
19.91
13.07
4.69
2.33
8.78
20.15
28.19
25.29
9.20
-15.04
-37.42
-48.05
-42.66
-24.80
-3.72
10.99
14.81
10.51
5.57
7.00
16.54
29.12
35.75
28.96
7.63
-21.34
-46.00
-55.49
-45.78
-21.74
5.56
24.91
30.70
25.13
15.87
10.76
13.07
19.50
22.61
15.57
-3.10
-27.71
-47.95
-54.53
-44.42
-22.57
1.01
16.87
21.32
17.64
13.16
14.10
21.42
30.03
31.98
21.50
-1.08
-28.42
-49.54
-55.42
-43.77
-20.28
4.30
19.80
22.01
14.39
5.56
3.79
12.08
26.41
38.49
40.95
31.70
15.05
-0.98
-9.61
-9.10
-3.51
-0.04
-4.96
-19.52
-38.84
-53.86
-56.08
-42.26
-16.86
9.99
27.81
31.47
23.69
12.76
7.10
10.21
19.03
26.47
25.99
15.47
-1.47
-17.71
-26.33
-24.37
-14.55
-4.02
-0.44
-7.29
-21.13
-33.00
-33.53
-19.06
5.40
28.77
40.39
36.46
21.97
6.70
-1.30
-0.52
3.92
4.56
-3.35
-18.80
-35.77
-46.55
-45.63
-32.19
-10.69
11.04
25.14
27.47
20.17
10.65
7.44
14.52
28.19
38.61
36.01
17.53
-9.86
-33.22
-41.36
-31.59
-10.92
8.99
19.24
18.58
12.73
9.23
11.97
19.00
24.26
21.88
9.54
-10.22
-31.25
-46.25
-49.31
-38.13
-15.50
11.21
32.51
41.02
35.76
22.73
11.47
8.76
13.88
18.67
13.27
-6.30
-33.76
-55.43
-58.51
-39.34
-6.31
25.04
41.15
38.20
23.14
8.01
1.70
4.87
10.64
10.36
-0.38
-18.85
-37.19
-47.17
-44.33
-29.62
-8.38
12.40
26.74
31.53
27.66
19.64
13.55
13.57
19.05
24.09
20.67
4.06
-22.49
-47.98
-59.23
-48.78
-20.03
13.87
37.23
40.97
27.47
8.07
-4.92
-6.14
0.03
3.86
-1.97
-16.38
-30.37
-33.34
-20.53
3.33
26.56
37.36
30.50
9.62
-15.45
-34.11
-39.88
-32.09
-14.96
5.10
21.92
31.27
31.98
26.38
19.11
14.46
13.64
13.46
8.15
-6.27
-27.69
-47.48
-54.85
-43.43
-16.07
16.02
39.38
46.02
37.52
22.73
11.26
7.23
7.53
5.04
-5.54
-23.76
-43.43
-56.28
-56.43
-43.12
-20.77
3.18
21.42
29.45
27.25
19.33
12.46
11.95
18.03
25.20
25.15
12.38
-10.89
-34.56
-46.10
-38.42
-15.11
10.92
24.96
19.81
0.34
-19.81
-27.11
-16.70
4.90
24.62
31.60
23.92
9.00
-2.18
-2.44
7.63
21.01
29.41
28.47
19.47
7.62
-1.35
-3.95
0.03
7.89
14.99
16.29
8.22
-8.92
-29.83
-45.71
-48.62
-36.46
-15.20
3.74
10.16
1.94
-13.24
-22.49
-16.23
5.17
31.08
47.30
45.21
27.58
6.58
-4.44
0.15
14.59
25.70
21.87
1.13
-27.17
-48.25
-51.11
-35.25
-10.79
8.02
11.28
-1.34
-21.32
-36.97
-40.23
-30.19
-12.72
3.65
12.17
10.66
2.15
-7.03
-10.29
-4.22
9.45
24.40
32.91
30.54
19.46
7.68
4.18
12.99
30.06
45.46
49.73
40.04
22.07
5.83
-0.94
2.56
10.32
14.14
9.03
-4.13
-19.72
-31.03
-33.84
-28.03
-17.38
-7.76
-4.76
-11.27
-25.49
-40.80
-48.23
-41.38
-20.67
5.68
25.55
29.97
19.17
2.77
-6.28
-0.15
18.45
37.86
45.13
34.78
12.69
-7.92
-15.42
-7.40
7.67
16.19
8.65
-14.04
-41.00
-58.27
-57.31
-39.64
-15.18
4.43
12.68
10.92
6.01
4.84
9.81
18.06
24.08
23.67
16.22
4.35
-7.96
-17.40
-22.12
-21.64
-16.56
-8.69
-1.16
2.48
0.42
-5.66
-10.74
-8.93
2.35
19.91
35.64
41.13
33.22
16.62
1.24
-3.92
2.88
14.65
19.92
10.48
-12.18
-36.66
-48.08
-37.27
-7.11
28.35
51.68
52.13
32.01
4.86
-12.96
-12.45
2.69
18.79
21.32
4.58
-24.02
-48.20
-52.77
-33.03
2.04
35.07
50.41
42.96
20.44
-2.25
-12.66
-8.25
2.72
7.37
-2.88
-26.27
-51.28
-63.48
-54.34
-26.59
7.26
31.81
37.33
24.70
4.38
-10.36
-11.40
-0.53
12.06
14.31
0.15
-26.33
-52.45
-64.21
-54.57
-27.81
2.68
22.04
22.41
7.22
-11.32
-20.14
-13.32
4.68
22.47
29.46
22.52
7.45
-5.24
-7.32
2.21
17.30
29.36
32.95
28.47
20.94
16.09
16.68
21.42
26.61
28.85
26.82
21.21
13.48
5.11
-2.63
-8.31
-10.49
-8.65
-4.42
-1.66
-4.72
-15.42
-31.05
-45.00
-50.07
-42.88
-26.53
-9.29
-0.05
-2.76
-13.92
-24.36
-24.68
-11.10
12.02
34.49
46.19
42.96
28.80
13.30
5.79
9.65
20.36
28.29
24.59
6.97
-18.41
-40.01
-47.25
-36.78
-14.79
6.18
14.22
5.05
-15.38
-34.20
-38.99
-25.20
1.07
26.60
38.79
33.18
15.87
-0.34
-3.81
8.66
29.85
46.32
46.53
27.96
-1.11
-26.24
-35.22
-25.28
-4.81
11.56
11.78
-6.19
-32.86
-52.55
-52.74
-31.57
0.79
28.10
37.48
26.94
6.12
-9.88
-9.90
6.43
28.58
41.70
35.81
12.19
-17.18
-36.60
-35.96
-16.89
8.08
22.91
17.47
-6.33
-35.34
-52.74
-47.61
-21.39
13.05
38.77
44.44
30.53
8.51
-6.45
-4.67
12.27
32.73
42.30
32.61
6.65
-22.82
-40.68
-38.37
-18.96
4.57
17.02
9.91
-13.34
-39.23
-52.11
-43.20
-15.92
16.06
36.80
37.26
20.40
-1.04
-12.32
-5.66
15.21
37.37
46.55
35.62
8.88
-20.34
-37.25
-33.93
-13.84
10.27
23.54
17.37
-5.73
-33.54
-50.93
-48.20
-26.43
3.18
25.60
30.26
16.81
-5.04
-21.23
-21.18
-3.56
23.34
46.40
54.81
45.77
25.26
4.38
-6.82
-4.60
6.94
18.65
21.53
11.77
-7.41
-27.82
-40.70
-41.29
-30.96
-15.86
-3.25
2.43
1.07
-4.02
-8.83
-10.96
-10.31
-7.92
-4.36
1.13
9.51
20.04
29.30
31.97
23.68
4.06
-21.68
-44.08
-53.50
-44.92
-21.14
7.92
29.38
33.58
18.86
-7.24
-31.57
-41.88
-32.74
-8.18
20.79
41.87
47.63
38.73
22.53
8.38
2.36
4.59
10.19
13.08
10.03
2.73
-3.75
-4.86
-0.07
6.11
6.79
-2.63
-20.58
-38.84
-46.35
-35.31
-6.35
30.63
60.44
69.79
53.71
18.09
-23.30
-55.36
-68.39
-61.51
-41.47
-17.98
1.62
15.28
25.21
34.21
42.26
45.53
38.81
19.63
-8.64
-36.81
-53.71
-51.78
-31.27
-0.90
25.97
37.58
29.24
5.44
-22.75
-43.27
-48.64
-38.67
-19.32
1.45
18.04
29.52
38.29
46.76
54.28
56.66
48.78
28.50
-0.52
-29.12
-46.48
-45.35
-26.18
2.46
27.41
37.04
26.72
1.01
-28.96
-51.10
-58.08
-50.10
-33.37
-15.70
-1.81
8.82
20.20
35.76
54.39
69.62
72.54
56.89
23.42
-19.13
-57.36
-79.26
-79.56
-61.78
-35.76
-12.28
2.39
9.03
13.34
21.09
33.49
45.71
49.68
39.32
15.03
-15.30
-39.87
-48.83
-39.34
-16.95
7.34
22.89
24.69
15.41
2.91
-4.79
-4.33
1.48
5.94
3.30
-7.13
-19.99
-26.86
-21.39
-3.47
19.84
37.69
40.93
27.07
1.71
-24.43
-41.08
-43.47
-34.20
-20.86
-11.13
-8.22
-9.16
-7.33
2.82
21.42
42.29
55.85
54.46
37.05
10.34
-14.48
-27.55
-25.41
-12.54
1.51
7.69
2.46
-10.46
-22.67
-26.41
-19.19
-5.29
7.02
10.46
3.32
-9.35
-18.69
-17.43
-4.42
14.35
28.87
30.77
18.11
-3.21
-22.60
-30.49
-23.55
-6.29
11.67
21.15
18.54
7.69
-2.79
-4.97
3.44
17.59
28.28
27.49
13.26
-8.73
-28.18
-35.93
-29.00
-12.29
4.36
11.79
6.81
-5.97
-16.93
-17.19
-3.93
17.73
37.41
45.11
36.60
15.72
-8.15
-25.40
-31.43
-28.61
-23.93
-23.87
-29.72
-36.19
-34.50
-17.99
13.15
50.76
82.18
96.23
88.60
63.70
31.88
3.84
-14.60
-24.49
-31.62
-41.69
-55.75
-68.73
-72.09
-59.08
-29.33
9.75
45.99
67.99
70.51
56.53
34.83
14.76
1.25
-7.16
-16.09
-30.58
-50.67
-70.04
-78.94
-69.65
-41.22
-0.82
39.22
67.11
76.88
70.61
56.14
41.85
31.76
23.67
11.48
-9.79
-39.48
-69.95
-89.86
-90.04
-68.60
-32.35
6.47
35.99
50.12
50.64
44.72
39.72
38.43
37.60
30.34
11.31
-18.91
-52.57
-78.04
-85.50
-72.07
-43.35
-10.54
15.30
28.44
30.73
29.27
31.32
39.51
49.91
54.39
45.69
22.29
-9.67
-39.01
-55.00
-52.86
-36.05
-14.02
3.14
10.01
8.41
5.19
7.36
17.16
30.43
38.87
35.16
17.64
-7.99
-31.46
-43.25
-39.72
-24.81
-7.68
2.62
2.18
-5.77
-13.25
-12.72
-1.83
14.93
28.80
31.87
21.85
3.58
-13.55
-21.08
-16.16
-3.13
9.11
12.46
4.36
-10.47
-22.95
-25.04
-14.65
3.07
18.66
23.87
16.50
1.84
-10.45
-12.10
-1.24
16.09
29.01
27.72
9.16
-20.81
-50.18
-67.03
-65.54
-48.68
-25.80
-6.91
3.01
6.46
10.84
22.89
43.59
66.78
82.23
81.33
62.16
30.99
-0.86
-22.74
-29.76
-24.64
-15.50
-10.77
-14.36
-23.47
-30.55
-28.14
-13.57
8.79
29.55
39.17
33.26
15.16
-5.99
-20.42
-23.14
-16.39
-7.66
-4.54
-9.82
-19.53
-25.71
-21.65
-6.45
13.92
29.88
33.64
23.73
6.14
-8.94
-12.66
-2.38
16.79
34.64
41.32
32.74
12.81
-8.88
-22.55
-23.70
-15.39
-5.98
-3.82
-12.06
-26.69
-39.10
-41.46
-31.42
-13.61
3.21
11.23
8.28
-0.88
-7.34
-3.41
12.71
35.42
54.42
60.18
49.10
25.59
-0.55
-19.47
-26.57
-24.36
-20.21
-21.28
-29.92
-41.93
-49.07
-44.13
-25.53
1.32
26.49
40.64
40.00
28.34
14.63
7.85
11.84
23.09
32.94
32.83
19.50
-2.75
-24.45
-36.49
-35.15
-24.05
-11.68
-6.12
-10.26
-19.98
-26.86
-23.36
-7.58
15.21
35.12
43.05
35.65
17.50
-1.52
-11.75
-9.17
2.36
13.51
15.07
3.48
-17.01
-36.89
-47.09
-44.23
-32.30
-19.94
-14.96
-19.56
-28.84
-33.88
-27.23
-7.59
19.00
42.12
52.59
47.52
31.95
15.99
9.05
14.62
28.17
39.88
40.27
25.62
0.28
-25.78
-42.34
-44.14
-32.94
-15.68
0.07
10.32
16.38
22.87
33.83
49.19
64.02
70.83
63.83
42.61
13.09
-15.12
-33.46
-38.70
-34.27
-27.98
-27.35
-35.14
-47.69
-57.24
-56.70
-43.96
-23.46
-3.65
7.70
7.96
1.11
-4.79
-2.37
10.57
29.76
46.84
54.23
49.43
36.65
24.23
19.71
25.41
37.02
46.15
45.23
32.04
11.32
-7.85
-17.39
-14.91
-5.39
1.49
-3.07
-21.73
-48.88
-73.49
-85.15
-79.83
-62.23
-43.03
-32.67
-35.39
-46.74
-56.59
-55.31
-39.59
-14.42
9.99
24.29
25.30
17.61
10.39
11.70
23.84
42.27
58.72
66.14
62.74
52.70
43.34
40.51
45.15
52.77
56.21
49.84
33.05
11.10
-7.51
-15.60
-11.40
0.12
9.54
8.06
-7.55
-32.55
-56.52
-69.02
-65.41
-49.67
-32.10
-23.35
-28.03
-41.85
-54.37
-55.44
-41.47
-17.68
5.05
16.67
13.85
1.70
-9.80
-12.02
-2.85
12.28
24.03
24.86
13.58
-3.93
-18.24
-22.02
-14.22
-0.64
9.39
8.53
-4.28
-22.91
-37.44
-39.67
-27.82
-7.52
11.36
20.26
16.69
5.43
-4.54
-5.48
4.71
21.55
37.05
44.61
42.89
36.33
32.06
35.29
46.14
59.63
68.79
68.97
60.63
49.24
42.02
43.61
53.29
65.11
71.10
65.70
49.09
27.52
10.18
4.42
11.76
26.92
40.53
43.92
33.52
12.58
-11.01
-29.15
-37.71
-38.34
-36.61
-38.12
-44.65
-52.90
-56.69
-51.19
-36.51
-18.45
-5.77
-5.43
-18.53
-39.28
-57.93
-66.04
-61.03
-47.62
-35.14
-32.22
-41.80
-59.29
-75.07
-79.78
-69.55
-48.06
-24.50
-8.40
-4.51
-10.46
-18.64
-20.95
-13.62
0.81
15.38
23.13
21.51
13.84
7.06
7.02
14.45
23.87
26.56
15.67
-9.05
-40.03
-65.09
-73.48
-61.46
-34.33
-3.60
19.07
27.91
25.56
20.65
21.96
32.95
49.63
63.18
65.51
54.34
34.83
16.47
7.43
9.64
17.65
21.89
14.56
-5.35
-30.82
-50.32
-54.15
-39.96
-14.28
10.94
24.82
23.44
11.67
-0.14
-2.64
6.86
22.84
34.97
34.37
19.19
-4.05
-24.05
-31.25
-23.29
-6.41
8.26
11.23
0.31
-18.01
-32.33
-33.11
-18.38
5.00
25.26
32.56
24.58
7.69
-7.28
-11.79
-4.74
6.95
12.89
5.77
-13.67
-36.65
-51.15
-48.82
-29.84
-2.93
19.40
27.52
19.73
2.53
-13.55
-20.08
-15.19
-3.98
5.16
5.76
-2.83
-15.25
-23.53
-21.91
-10.23
5.98
18.76
22.19
15.82
4.79
-3.20
-2.23
8.55
24.65
38.99
45.92
44.29
37.70
31.85
30.81
34.45
38.52
37.27
27.23
9.74
-9.21
-22.07
-23.77
-14.74
-0.78
10.00
11.66
3.76
-8.36
-16.78
-15.66
-4.75
10.40
21.75
23.41
15.34
3.22
-5.01
-3.97
5.85
18.33
25.41
21.79
8.26
-8.70
-20.65
-22.16
-14.06
-3.20
1.57
-5.45
-22.98
-43.06
-55.22
-52.29
-34.55
-9.79
11.00
19.59
15.06
3.82
-4.55
-3.22
7.78
21.75
29.52
25.03
9.19
-10.58
-24.64
-26.73
-17.66
-4.72
2.64
-1.48
-15.64
-31.68
-39.39
-32.43
-12.21
12.71
31.35
36.24
27.56
12.43
0.44
-2.22
3.70
11.23
11.75
0.52
-19.90
-40.74
-51.84
-47.49
-29.91
-8.20
6.66
7.94
-3.02
-17.76
-25.78
-20.74
-4.05
16.20
30.17
32.10
23.57
12.06
6.12
10.08
21.54
33.09
36.90
29.50
13.98
-1.91
-10.36
-8.08
1.77
11.40
12.92
3.06
-14.65
-31.69
-39.33
-33.62
-17.83
-0.67
8.56
5.34
-7.44
-21.21
-26.88
-20.07
-3.70
14.00
24.47
23.89
15.37
6.66
5.28
13.94
29.04
43.10
49.34
45.70
35.83
26.59
23.68
28.25
36.27
41.07
37.31
24.18
6.21
-9.14
-15.52
-11.14
0.13
10.85
14.06
7.17
-6.32
-18.80
-22.83
-15.32
0.51
17.06
26.57
25.58
16.80
7.21
3.56
8.22
17.63
24.50
22.19
8.98
-10.50
-27.65
-34.83
-29.90
-17.85
-8.22
-9.75
-24.96
-48.01
-67.34
-71.90
-57.40
-29.06
1.02
20.51
23.59
14.11
2.99
1.57
14.95
39.19
63.84
78.33
78.01
66.78
54.31
50.10
57.96
73.80
88.29
92.41
82.82
64.03
45.81
37.60
42.97
57.34
70.51
72.50
59.45
36.05
12.80
-0.09
1.41
13.00
25.03
28.36
19.77
3.28
-13.17
-23.35
-26.85
-29.12
-37.64
-56.58
-83.47
-109.80
-125.47
-124.41
-108.19
-85.78
-69.58
-69.59
-88.57
-120.29
-152.32
-171.69
-170.95
-151.63
-123.09
-97.26
-82.01
-76.92
-74.12
-63.86
-41.45
-11.31
14.71
23.85
10.37
-20.00
-52.43
-70.50
-65.02
-38.87
-5.16
20.22
27.37
17.42
1.31
-7.16
0.68
23.35
50.46
68.89
70.36
55.91
34.52
17.04
9.40
9.03
7.12
-5.17
-29.96
-60.00
-81.84
-83.24
-60.24
-19.89
23.20
54.23
65.53
59.58
46.13
35.91
34.49
40.11
46.22
46.80
40.86
33.20
31.13
39.34
56.38
74.75
84.68
79.39
58.96
30.45
4.36
-10.72
-12.17
-4.06
6.02
11.84
12.54
12.96
20.11
37.92
63.35
86.51
95.36
82.13
48.37
4.99
-32.94
-53.75
-55.01
-44.06
-33.12
-31.69
-40.82
-52.67
-55.84
-42.75
-14.95
17.31
40.66
46.21
34.44
14.35
-2.43
-8.91
-6.75
-4.81
-13.03
-35.67
-67.59
-96.35
-108.75
-97.94
-67.11
-27.72
6.69
27.35
33.91
32.94
32.36
35.77
39.92
36.97
19.97
-11.80
-50.65
-83.38
-97.40
-86.91
-55.81
-15.72
19.68
41.03
46.84
42.71
36.82
34.57
35.69
35.15
27.53
11.48
-8.08
-22.27
-23.19
-8.78
15.46
39.14
52.30
50.68
37.69
22.18
12.97
13.64
20.54
25.01
18.83
-0.47
-27.31
-50.71
-60.02
-50.78
-27.07
0.81
22.04
30.96
29.53
25.19
25.47
33.27
44.91
52.58
49.14
32.59
7.65
-16.72
-32.17
-35.40
-29.59
-22.16
-19.91
-24.63
-31.64
-32.56
-20.45
5.40
38.30
67.09
81.84
78.81
62.17
41.00
23.94
14.52
9.79
3.12
-10.93
-32.43
-54.97
-68.77
-65.95
-45.09
-12.39
21.21
45.44
55.58
54.03
47.80
43.55
43.55
44.80
41.75
30.80
13.48
-3.52
-11.85
-6.33
11.98
35.94
56.03
65.16
62.24
52.47
44.02
43.27
51.03
62.10
68.33
63.66
48.12
28.58
15.20
15.89
31.69
55.82
76.94
84.94
75.96
54.12
28.86
9.74
1.77
3.67
9.86
14.61
15.68
15.01
16.51
22.36
30.69
35.94
32.09
16.48
-7.76
-32.73
-49.63
-53.39
-45.40
-32.72
-24.06
-24.88
-34.26
-45.52
-50.61
-45.65
-34.36
-27.14
-35.87
-67.21
-118.15
-176.22
-224.29
-247.42
-238.51
-200.45
-144.28
-84.80
-35.84
-6.66
-0.80
-16.51
-48.26
-88.46
-128.65
-160.25
-175.07
-166.62
-132.04
-74.39
-3.78
63.82
110.57
122.68
95.87
37.65
-34.78
-100.52
-142.07
-150.85
-128.44
-83.97
-29.33
25.10
72.46
108.40
129.19
130.48
108.43
62.67
-0.61
-68.13
-122.92
-150.58
-145.30
-112.42
-65.85
-21.52
9.97
26.77
34.36
39.97
46.96
52.89
52.12
41.14
22.49
4.29
-4.89
-1.95
7.80
13.08
3.38
-24.08
-61.49
-93.70
-105.63
-89.95
-50.62
-0.74
44.06
72.80
83.34
81.30
75.38
71.93
72.07
72.81
70.68
65.24
60.19
61.05
70.99
87.63
103.07
107.03
92.27
58.60
14.05
-28.19
-55.65
-62.19
-50.44
-29.83
-11.19
-0.86
1.96
3.28
9.21
20.89
33.00
37.20
28.10
8.02
-12.84
-21.73
-10.68
18.50
54.68
83.14
92.93
81.84
56.11
26.50
2.46
-11.76
-17.35
-18.53
-18.97
-19.68
-19.01
-14.63
-5.53
6.84
19.22
28.09
31.33
29.16
23.83
18.36
15.15
15.03
17.07
19.27
19.71
17.45
12.92
7.58
3.11
0.64
0.32
1.36
2.54
2.84
1.83
-0.16
-2.38
-4.03
-4.68
-4.35
-3.47
-2.58
-2.08
-2.10
-2.49
-2.95
-3.22
-3.17
-2.82
-2.27
-1.68
-1.12
-0.63
-0.19
0.25
0.72
1.25
1.83
2.47
3.17
3.95
4.82
5.78
6.82
7.94
9.16
10.49
11.91
13.43
15.04
16.75
18.56
20.44
22.39
24.40
26.48
28.61
30.82
33.10
35.45
37.85
40.28
42.66
44.90
46.82
48.22
48.85
48.46
46.77
43.50
38.46
31.47
22.52
11.74
-0.62
-14.17
-28.39
-42.74
-56.06
-67.90
-78.00
-86.14
-92.20
-96.20
-98.23
-98.48
-97.18
-95.38
-92.77
-89.31
-84.97
-79.73
-73.62
-66.55
-58.42
-49.14
-38.67
-27.07
-14.64
-1.81
10.93
22.96
33.88
43.32
50.97
56.54
59.77
60.25
57.60
51.49
41.72
28.59
12.73
-4.86
-22.98
-40.40
-56.20
-69.70
-80.46
-88.31
-92.58
-92.54
-87.42
-76.78
-60.86
-40.94
-19.03
3.37
23.50
39.93
52.75
63.27
73.21
83.63
94.24
103.48
109.10
109.17
103.45
93.35
81.86
72.17
66.69
65.35
66.21
66.53
63.49
55.50
41.85
23.65
4.12
-11.69
-17.46
-7.74
18.81
57.10
96.36
122.81
126.53
105.86
67.66
23.95
-14.00
-40.67
-57.50
-69.62
-82.63
-97.97
-113.27
-126.23
-137.21
-149.44
-166.90
-191.07
-213.13
-226.64
-227.59
-215.89
-195.34
-170.31
-143.02
-113.80
-83.25
-54.12
-32.27
-23.54
-26.38
-33.97
-35.94
-22.82
8.16
51.21
94.52
124.96
134.92
125.08
102.68
76.43
56.34
47.79
49.92
57.78
65.83
71.58
75.88
80.74
86.97
93.26
96.28
93.03
83.09
69.00
55.31
46.54
44.70
48.77
55.58
60.94
61.92
58.14
51.71
45.92
43.60
45.63
50.71
56.14
58.72
55.81
45.98
29.49
9.05
-11.61
-27.48
-34.10
-29.35
-15.10
3.29
18.97
26.10
22.83
11.48
-3.13
-16.49
-26.26
-32.63
-37.00
-40.48
-42.95
-43.41
-41.11
-36.30
-30.32
-24.90
-21.56
-20.66
-21.45
-22.51
-22.38
-20.39
-16.71
-12.33
-8.44
-5.98
-5.14
-5.45
-5.99
-5.86
-4.61
-2.34
0.19
2.43
3.88
4.43
4.34
4.08
4.11
4.65
5.65
6.86
8.01
8.82
9.23
9.32
9.28
9.26
9.35
9.55
9.79
10.00
10.14
10.17
10.11
10.01
9.88
9.72
9.55
9.36
9.17
8.97
8.75
8.51
8.24
7.92
7.54
7.07
6.51
5.84
5.03
4.07
2.92
1.57
-0.05
-1.98
-4.26
-6.92
-10.00
-13.53
-17.55
-22.07
-27.16
-32.87
-39.25
-46.35
-54.19
-62.74
-72.02
-82.02
-92.73
-104.17
-116.46
-129.68
-143.88
-159.09
-175.27
-192.33
-210.15
-228.45
-246.90
-264.94
-281.84
-296.66
-308.16
-314.89
-315.34
-308.48
-293.09
-268.34
-233.99
-190.48
-138.89
-80.87
-18.39
46.40
111.33
174.56
234.44
289.63
339.18
381.46
415.56
441.16
458.27
467.00
467.46
459.61
443.39
418.79
387.42
349.60
305.45
255.41
200.30
141.50
80.78
20.07
-38.60
-93.60
-142.59
-183.17
-213.31
-231.76
-237.76
-231.09
-212.25
-182.45
-143.59
-98.14
-48.80
1.66
50.66
95.99
135.87
169.05
194.65
212.39
222.33
224.86
220.43
209.57
192.87
171.01
144.73
114.81
82.10
46.57
9.22
-28.85
-66.56
-102.94
-137.04
-167.96
-194.95
-217.43
-235.20
-248.24
-256.93
-261.72
-262.85
-260.20
-253.40
-242.31
-226.74
-206.93
-183.67
-158.19
-131.86
-105.67
-80.03
-54.68
-29.12
-2.96
23.55
49.50
73.52
94.24
110.99
124.02
134.56
144.42
155.46
169.07
185.52
203.54
220.33
231.97
234.57
225.57
204.73
174.38
138.67
102.34
69.43
42.44
22.13
7.82
-2.17
-9.78
-16.58
-23.28
-29.63
-34.85
-38.32
-40.28
-41.91
-44.65
-49.15
-54.59
-58.94
-60.04
-56.93
-50.57
-43.57
-38.95
-38.66
-42.49
-48.07
-52.01
-51.61
-46.26
-37.90
-29.93
-25.46
-25.42
-27.99
-29.63
-27.16
-19.85
-10.06
-1.99
0.77
-2.52
-9.19
-14.78
-15.77
-11.72
-5.51
-1.53
-2.93
-9.70
-18.66
-25.40
-26.93
-23.41
-18.02
-15.00
-17.20
-24.46
-33.72
-40.87
-43.06
-40.31
-35.43
-32.42
-34.28
-41.48
-51.81
-61.77
-68.35
-70.43
-68.92
-65.70
-62.16
-58.08
-51.97
-42.28
-28.67
-12.70
2.72
14.64
21.29
22.76
20.88
18.36
17.61
19.72
24.22
29.78
35.21
40.25
45.36
50.50
53.98
52.15
40.91
18.38
-12.53
-43.79
-64.95
-67.84
-50.78
-19.69
14.71
42.09
57.23
61.66
61.38
62.28
66.63
71.93
73.05
66.01
50.85
31.99
15.88
7.66
8.48
15.13
21.81
23.34
17.75
7.16
-3.58
-9.71
-9.08
-3.23
3.75
7.59
6.32
1.33
-3.69
-5.06
-1.26
6.04
12.98
15.66
12.32
4.32
-4.55
-10.21
-10.49
-6.19
-0.55
2.66
1.32
-3.91
-10.03
-13.54
-12.50
-7.62
-1.78
1.69
0.98
-3.17
-8.08
-10.73
-9.62
-5.58
-1.16
0.95
-0.38
-4.00
-7.23
-7.41
-3.57
2.98
9.46
13.25
13.45
11.47
10.08
11.75
17.12
24.59
31.37
35.12
35.26
33.38
32.15
33.80
38.83
45.70
51.66
54.14
52.07
46.38
39.32
33.21
29.15
26.60
23.90
19.51
13.11
5.96
0.08
-3.01
-3.41
-2.98
-4.29
-9.19
-17.48
-26.89
-34.18
-36.92
-34.76
-29.66
-24.66
-22.25
-23.00
-25.38
-26.82
-25.28
-20.57
-14.50
-9.89
-8.99
-12.09
-17.33
-21.66
-22.58
-19.53
-14.24
-9.59
-8.03
-10.06
-13.99
-16.93
-16.52
-12.33
-6.13
-0.91
0.85
-1.30
-5.53
-8.74
-8.42
-4.14
2.22
7.49
9.01
6.18
0.74
-4.11
-5.58
-2.78
2.78
8.05
10.27
8.51
4.16
-0.00
-1.55
0.17
3.64
6.18
5.57
1.43
-4.44
-9.11
-10.17
-7.21
-2.12
2.00
2.60
-0.86
-6.58
-11.59
-13.36
-11.28
-6.89
-2.92
-1.66
-3.51
-6.80
-8.78
-7.38
-2.54
3.64
8.13
8.69
5.24
-0.15
-4.36
-4.99
-1.69
3.74
8.38
9.95
8.18
4.85
2.67
3.58
7.53
12.50
15.71
15.16
10.90
5.02
0.44
-0.73
1.60
5.41
7.79
6.65
1.96
-4.26
-9.16
-10.72
-8.91
-5.66
-3.65
-4.74
-8.84
-13.91
-17.15
-16.62
-12.43
-6.66
-2.21
-1.13
-3.46
-7.26
-9.84
-9.28
-5.57
-0.63
2.86
3.05
0.11
-3.82
-5.93
-4.47
0.18
5.61
8.77
7.68
2.60
-4.14
-9.39
-10.98
-8.89
-5.28
-3.12
-4.49
-9.33
-15.54
-20.29
-21.66
-19.76
-16.64
-14.99
-16.53
-20.78
-25.37
-27.39
-25.17
-19.32
-12.38
-7.23
-5.39
-6.02
-6.31
-3.19
4.87
16.74
29.11
38.29
42.17
41.48
39.18
38.76
42.17
48.72
55.48
59.02
57.41
51.38
43.87
38.20
36.18
37.04
38.08
36.36
30.56
21.86
13.38
8.29
8.01
11.33
15.11
16.08
12.75
6.24
-0.36
-3.76
-2.29
3.13
9.53
13.58
13.32
9.21
3.65
-0.50
-1.51
0.23
2.62
3.15
0.42
-4.95
-10.85
-15.06
-16.70
-16.86
-17.82
-21.53
-28.14
-35.67
-41.03
-41.90
-38.34
-32.98
-29.78
-31.80
-39.43
-49.92
-58.65
-61.39
-56.40
-45.31
-32.23
-21.64
-16.11
-15.10
-15.58
-14.04
-8.50
0.29
9.47
15.89
18.02
16.92
15.44
16.23
19.98
24.81
27.37
24.90
16.95
5.77
-4.79
-11.34
-12.67
-10.21
-6.96
-5.73
-7.48
-10.87
-13.18
-11.93
-6.44
1.69
9.46
14.09
14.58
12.28
10.01
10.43
14.38
20.25
24.92
25.46
20.94
13.00
4.97
-0.04
-0.84
1.34
3.69
3.72
0.74
-3.69
-6.81
-6.42
-2.23
3.88
9.00
10.87
9.26
6.03
4.05
5.43
10.24
16.48
21.16
22.00
18.67
13.00
7.82
5.28
5.67
7.21
7.32
4.11
-2.35
-9.92
-15.59
-17.27
-14.99
-11.01
-8.53
-9.84
-15.03
-21.82
-26.87
-27.63
-23.82
-17.53
-12.04
-9.91
-11.57
-15.16
-17.71
-16.91
-12.41
-6.03
-0.58
1.76
0.78
-1.78
-3.29
-1.90
2.35
7.50
10.83
10.53
6.81
1.89
-1.30
-0.75
3.44
9.09
13.18
13.58
10.26
5.26
1.49
0.98
3.74
7.77
10.32
9.53
5.63
0.80
-2.13
-1.36
2.72
7.72
10.62
9.48
4.61
-1.64
-6.19
-6.98
-4.17
0.03
2.68
1.86
-2.18
-7.18
-10.17
-9.19
-4.46
1.72
6.27
7.11
4.38
0.31
-2.13
-0.95
3.71
9.68
14.03
14.83
12.34
8.70
6.65
7.76
11.51
15.52
16.96
14.27
8.24
1.55
-2.73
-2.90
0.40
4.66
6.90
5.44
0.86
-4.38
-7.52
-7.12
-3.98
-0.50
0.70
-1.52
-6.09
-10.28
-11.39
-8.34
-2.42
3.44
6.32
4.97
0.60
-3.82
-5.21
-2.19
4.15
10.85
14.76
14.28
10.21
5.21
2.31
3.06
6.73
10.75
12.37
10.29
5.39
0.27
-2.39
-1.41
2.09
5.41
5.89
2.55
-3.32
-8.86
-11.31
-9.61
-5.05
-0.57
0.97
-1.61
-7.14
-12.84
-15.86
-14.94
-11.04
-6.80
-4.95
-6.66
-10.89
-15.09
-16.70
-14.64
-10.02
-5.46
-3.56
-5.29
-9.46
-13.42
-14.64
-12.15
-7.17
-2.36
-0.25
-1.74
-5.60
-9.26
-10.37
-8.23
-4.18
-0.88
-0.67
-4.06
-9.41
-13.81
-14.79
-11.82
-6.71
-2.64
-2.34
-6.47
-13.12
-18.91
-20.83
-17.94
-11.98
-6.43
-4.56
-7.61
-14.15
-20.90
-24.62
-23.51
-18.01
-10.32
-2.98
2.76
7.57
13.62
23.27
37.55
55.74
75.73
94.96
111.14
123.76
133.59
141.50
147.16
148.36
142.52
128.56
108.59
87.68
71.44
62.72
59.81
58.79
54.12
42.65
25.48
7.12
-7.33
-15.26
-18.01
-19.62
-24.17
-33.39
-45.39
-55.90
-61.32
-60.38
-55.23
-50.18
-49.10
-53.33
-60.95
-67.69
-69.58
-65.26
-56.66
-47.95
-43.12
-43.76
-48.22
-52.70
-53.36
-48.59
-39.84
-30.70
-24.85
-24.03
-27.06
-30.66
-31.40
-27.76
-20.99
-14.39
-11.23
-12.95
-18.10
-23.07
-24.11
-19.57
-10.97
-2.24
2.39
0.70
-6.22
-14.44
-19.24
-17.69
-10.13
0.01
8.06
10.44
6.32
-2.06
-10.77
-16.26
-17.15
-14.60
-11.28
-9.41
-9.17
-8.47
-4.32
5.00
18.25
31.31
39.15
38.46
29.76
17.43
7.41
4.22
8.82
18.64
29.61
38.76
45.29
49.87
52.59
51.43
42.99
25.14
-0.18
-26.17
-43.21
-42.92
-22.00
16.63
65.58
116.07
161.16
197.17
222.89
237.50
239.18
225.60
195.86
152.24
100.56
48.58
3.35
-30.97
-54.06
-68.61
-78.06
-84.56
-88.66
-88.49
-81.73
-67.50
-47.51
-25.35
-4.93
11.66
25.40
39.80
59.30
86.90
122.54
162.64
201.28
231.88
249.01
249.90
235.66
211.58
186.00
167.75
162.63
170.41
184.20
193.12
187.09
161.24
117.86
64.65
10.68
-37.39
-76.89
-108.12
-131.87
-147.57
-153.49
-148.14
-132.20
-109.12
-84.06
-61.91
-45.59
-35.11
-28.02
-21.01
-11.51
1.03
15.01
27.41
35.21
36.73
32.34
24.20
15.28
8.07
3.50
0.59
-2.99
-9.84
-21.58
-38.05
-57.27
-76.42
-92.92
-105.63
-115.29
-124.07
-134.61
-148.92
-167.71
-190.28
-214.88
-238.83
-258.87
-271.40
-272.99
-261.54
-237.66
-205.51
-171.89
-143.63
-124.21
-111.69
-99.53
-80.19
-49.57
-9.35
34.05
73.42
104.87
129.40
151.20
173.87
197.50
218.26
231.00
232.71
224.49
210.94
197.52
187.64
181.15
174.91
164.24
145.29
116.27
77.97
33.36
-13.56
-59.03
-100.76
-138.44
-173.65
-209.11
-247.76
-291.97
-342.71
-398.67
-455.68
-506.83
-543.45
-557.33
-543.43
-502.22
-440.39
-369.18
-301.02
-245.61
-207.46
-185.88
-176.88
-175.70
-178.24
-181.23
-181.08
-173.53
-154.38
-121.12
-74.35
-17.97
42.37
101.21
154.36
198.84
232.24
253.04
261.77
261.78
258.37
256.10
255.66
252.78
240.51
213.77
173.32
126.61
84.44
55.68
43.04
42.50
46.32
47.67
43.83
36.52
29.74
26.65
27.73
30.76
32.24
29.47
22.04
11.81
1.85
-5.17
-8.23
-8.19
-7.08
-6.77
-8.03
-10.28
-12.19
-12.49
-10.68
-7.24
-3.30
-0.04
1.75
1.96
1.01
-0.42
-1.63
-2.10
-1.59
-0.12
2.00
4.27
6.11
7.14
7.26
6.79
6.31
6.39
7.30
8.84
10.43
11.39
11.29
10.19
8.69
7.58
7.47
8.45
10.00
11.28
11.56
10.66
9.05
7.56
6.95
7.46
8.73
9.98
10.47
9.90
8.56
7.15
6.37
6.50
7.27
8.03
8.14
7.38
6.11
5.02
4.73
5.36
6.51
7.43
7.53
6.75
5.54
4.62
4.51
5.22
6.28
7.01
6.92
5.99
4.66
3.56
3.19
3.62
4.49
5.25
5.49
5.15
4.59
4.30
4.58
5.34
6.10
6.30
5.66
4.34
2.94
2.10
2.19
3.09
4.26
5.06
5.08
4.39
3.45
2.86
2.98
3.75
4.70
5.21
4.90
3.84
2.55
1.70
1.74
2.64
3.88
4.78
4.82
4.04
2.92
2.12
2.09
2.80
3.76
4.30
4.05
3.12
2.07
1.55
1.92
3.01
4.20
4.77
4.32
3.02
1.51
0.58
0.69
1.74
3.11
4.03
4.00
3.11
1.95
1.21
1.31
2.10
3.00
3.38
2.94
1.91
0.90
0.49
0.90
1.85
2.76
3.08
2.63
1.71
0.90
0.73
1.36
2.54
3.69
4.22
3.87
2.80
1.54
0.67
0.55
1.09
1.86
2.36
2.29
1.77
1.21
1.06
1.50
2.34
3.10
3.30
2.78
1.82
0.94
0.60
0.95
1.67
2.22
2.14
1.30
0.01
-1.14
-1.62
-1.24
-0.21
0.95
1.72
1.84
1.41
0.84
0.56
0.79
1.38
1.90
1.97
1.44
0.58
-0.08
-0.08
0.67
1.80
2.68
2.79
2.05
0.89
-0.02
-0.13
0.67
1.95
3.03
3.35
2.76
1.59
0.44
-0.15
0.01
0.73
1.56
2.03
1.96
1.48
0.98
0.84
1.19
1.85
2.35
2.33
1.67
0.60
-0.33
-0.65
-0.21
0.69
1.50
1.69
1.11
0.07
-0.79
-0.92
-0.17
1.12
2.25
2.60
1.97
0.71
-0.49
-0.98
-0.56
0.45
1.41
1.76
1.35
0.55
-0.03
0.08
0.91
2.01
2.72
2.57
1.63
0.38
-0.48
-0.53
0.16
1.07
1.58
1.29
0.36
-0.67
-1.15
-0.75
0.41
1.75
2.62
2.60
1.75
0.56
-0.33
-0.45
0.23
1.31
2.21
2.45
1.96
1.13
0.53
0.62
1.44
2.54
3.30
3.22
2.29
0.96
-0.12
-0.47
-0.10
0.57
0.91
0.56
-0.37
-1.36
-1.78
-1.30
-0.11
1.14
1.77
1.43
0.32
-0.94
-1.65
-1.46
-0.56
0.46
0.94
0.58
-0.43
-1.51
-2.04
-1.72
-0.70
0.46
1.17
1.12
0.43
-0.43
-0.89
-0.66
0.13
1.03
1.51
1.32
0.61
-0.13
-0.38
0.08
1.06
2.00
2.32
1.76
0.54
-0.74
-1.45
-1.25
-0.31
0.82
1.51
1.40
0.63
-0.34
-0.93
-0.83
-0.15
0.63
1.02
0.79
0.12
-0.49
-0.55
0.14
1.32
2.46
3.01
2.74
1.87
0.94
0.50
0.79
1.63
2.49
2.82
2.35
1.29
0.13
-0.54
-0.47
0.17
0.90
1.20
0.83
0.01
-0.77
-1.01
-0.54
0.37
1.15
1.27
0.60
-0.51
-1.44
-1.62
-0.90
0.38
1.57
2.04
1.62
0.60
-0.38
-0.74
-0.32
0.56
1.26
1.22
0.29
-1.12
-2.31
-2.65
-1.96
-0.65
0.57
1.07
0.72
-0.10
-0.68
-0.48
0.57
2.00
3.07
3.23
2.44
1.18
0.17
-0.06
0.51
1.39
1.92
1.60
0.45
-1.00
-2.00
-2.04
-1.13
0.24
1.32
1.59
1.02
0.05
-0.69
-0.74
-0.11
0.81
1.44
1.38
0.69
-0.18
-0.64
-0.33
0.68
1.85
2.52
2.24
1.10
-0.37
-1.42
-1.53
-0.72
0.52
1.48
1.67
1.05
0.09
-0.64
-0.74
-0.24
0.42
0.72
0.37
-0.50
-1.43
-1.88
-1.62
-0.81
0.05
0.40
-0.01
-0.95
-1.86
-2.13
-1.51
-0.24
1.04
1.66
1.30
0.17
-1.06
-1.68
-1.34
-0.20
1.08
1.80
1.61
0.66
-0.41
-0.93
-0.59
0.39
1.42
1.85
1.38
0.30
-0.75
-1.13
-0.58
0.65
1.96
2.70
2.57
1.74
0.72
0.07
0.10
0.70
1.45
1.84
1.61
0.84
-0.01
-0.49
-0.34
0.29
0.96
1.18
0.74
-0.18
-1.07
-1.39
-0.95
0.01
0.97
1.36
0.98
0.07
-0.82
-1.16
-0.76
0.12
0.93
1.21
0.81
0.05
-0.53
-0.45
0.36
1.52
2.39
2.44
1.53
0.02
-1.37
-1.99
-1.56
-0.30
1.09
1.88
1.67
0.60
-0.72
-1.56
-1.52
-0.73
0.25
0.74
0.43
-0.46
-1.30
-1.48
-0.81
0.37
1.39
1.68
1.13
0.13
-0.62
-0.61
0.22
1.38
2.17
2.04
0.95
-0.62
-1.91
-2.35
-1.83
-0.71
0.34
0.79
0.55
-0.04
-0.43
-0.25
0.46
1.28
1.67
1.34
0.45
-0.44
-0.74
-0.17
1.04
2.29
2.87
2.42
1.10
-0.47
-1.56
-1.69
-0.90
0.31
1.26
1.45
0.84
-0.16
-0.95
-1.11
-0.66
-0.04
0.23
-0.12
-0.89
-1.57
-1.58
-0.73
0.65
1.82
2.11
1.28
-0.31
-1.84
-2.51
-1.92
-0.37
1.37
2.44
2.38
1.32
-0.08
-1.06
-1.16
-0.45
0.53
1.16
1.12
0.55
-0.01
-0.06
0.59
1.66
2.58
2.82
2.23
1.17
0.29
0.19
1.06
2.49
3.72
4.02
3.14
1.43
-0.29
-1.22
-1.04
-0.07
0.94
1.23
0.51
-0.92
-2.33
-2.98
-2.59
-1.42
-0.10
0.70
0.69
0.04
-0.72
-1.11
-0.89
-0.26
0.32
0.38
-0.23
-1.22
-2.03
-2.13
-1.39
-0.16
0.90
1.24
0.69
-0.40
-1.38
-1.68
-1.17
-0.18
0.69
0.94
0.46
-0.39
-1.05
-1.05
-0.34
0.74
1.60
1.76
1.10
-0.06
-1.13
-1.59
-1.23
-0.29
0.69
1.19
1.02
0.44
-0.04
0.04
0.74
1.67
2.22
1.94
0.89
-0.40
-1.20
-1.03
0.03
1.40
2.32
2.31
1.46
0.32
-0.41
-0.27
0.64
1.77
2.43
2.17
1.07
-0.35
-1.39
-1.60
-0.97
0.03
0.75
0.79
0.15
-0.74
-1.30
-1.19
-0.46
0.45
1.00
0.87
0.16
-0.69
-1.16
-0.98
-0.27
0.48
0.76
0.36
-0.54
-1.40
-1.71
-1.24
-0.23
0.79
1.29
1.05
0.27
-0.56
-0.95
-0.65
0.18
1.10
1.59
1.41
0.69
-0.11
-0.47
-0.14
0.71
1.55
1.80
1.19
-0.06
-1.35
-2.03
-1.81
-0.90
0.10
0.57
0.29
-0.52
-1.26
-1.37
-0.67
0.53
1.59
1.94
1.40
0.31
-0.62
-0.80
-0.03
1.33
2.58
3.07
2.60
1.47
0.34
-0.19
0.10
0.91
1.62
1.70
1.01
-0.09
-1.01
-1.22
-0.63
0.39
1.19
1.25
0.43
-0.86
-1.95
-2.25
-1.58
-0.31
0.86
1.31
0.83
-0.22
-1.14
-1.32
-0.58
0.71
1.82
2.13
1.50
0.34
-0.66
-0.92
-0.35
0.63
1.37
1.35
0.56
-0.60
-1.48
-1.65
-1.07
-0.12
0.66
0.87
0.50
-0.13
-0.53
-0.39
0.28
1.12
1.67
1.58
0.93
0.09
-0.41
-0.26
0.47
1.32
1.72
1.32
0.24
-1.02
-1.80
-1.73
-0.89
0.20
0.90
0.83
0.12
-0.75
-1.18
-0.84
0.08
1.06
1.47
1.04
-0.05
-1.22
-1.84
-1.61
-0.67
0.40
0.99
0.80
-0.03
-0.93
-1.33
-0.95
-0.03
0.89
1.24
0.79
-0.21
-1.12
-1.36
-0.67
0.70
2.08
2.79
2.48
1.35
0.03
-0.74
-0.54
0.52
1.85
2.74
2.71
1.81
0.53
-0.43
-0.66
-0.16
0.62
1.10
0.90
0.11
-0.80
-1.30
-1.05
-0.22
0.70
1.16
0.88
0.07
-0.72
-0.96
-0.49
0.35
0.95
0.78
-0.23
-1.63
-2.69
-2.85
-2.01
-0.64
0.53
0.90
0.34
-0.75
-1.72
-1.94
-1.22
0.15
1.54
2.33
2.22
1.39
0.41
-0.14
0.06
0.84
1.64
1.86
1.22
-0.05
-1.33
-1.96
-1.59
-0.43
0.91
1.75
1.77
1.09
0.24
-0.23
-0.09
0.50
1.06
1.17
0.69
-0.11
-0.75
-0.83
-0.29
0.53
1.11
1.04
0.30
-0.73
-1.47
-1.50
-0.78
0.29
1.08
1.13
0.40
-0.70
-1.48
-1.41
-0.42
1.03
2.20
2.49
1.79
0.51
-0.63
-1.03
-0.57
0.36
1.09
1.12
0.36
-0.75
-1.58
-1.64
-0.90
0.22
1.14
1.38
0.89
0.02
-0.66
-0.74
-0.15
0.76
1.48
1.65
1.25
0.62
0.22
0.35
0.97
1.73
2.21
2.13
1.56
0.87
0.54
0.84
1.72
2.71
3.25
2.90
1.64
-0.12
-1.72
-2.62
-2.64
-2.08
-1.50
-1.35
-1.74
-2.35
-2.66
-2.32
-1.40
-0.36
0.22
0.01
-0.83
-1.74
-2.08
-1.54
-0.34
0.91
1.49
1.06
-0.14
-1.39
-1.92
-1.32
0.20
1.90
2.97
2.91
1.89
0.52
-0.40
-0.45
0.25
1.15
1.59
1.24
0.30
-0.67
-1.08
-0.68
0.30
1.29
1.70
1.29
0.27
-0.81
-1.40
-1.22
-0.42
0.52
1.09
1.04
0.47
-0.17
-0.41
-0.06
0.71
1.38
1.46
0.75
-0.52
-1.77
-2.36
-1.95
-0.73
0.74
1.77
1.96
1.31
0.33
-0.42
-0.53
-0.03
0.67
1.08
0.88
0.16
-0.67
-1.13
-1.01
-0.41
0.23
0.46
0.10
-0.66
-1.35
-1.48
-0.88
0.21
1.25
1.71
1.36
0.46
-0.46
-0.85
-0.50
0.36
1.17
1.38
0.85
-0.15
-1.01
-1.19
-0.55
0.57
1.52
1.75
1.12
0.00
-0.96
-1.23
-0.70
0.26
1.05
1.18
0.63
-0.21
-0.74
-0.56
0.26
1.21
1.61
1.07
-0.31
-1.90
-2.90
-2.75
-1.46
0.39
1.97
2.59
2.09
0.87
-0.35
-0.91
-0.62
0.23
1.00
1.14
0.49
-0.61
-1.48
-1.56
-0.73
0.60
1.73
2.03
1.37
0.16
-0.88
-1.14
-0.47
0.76
1.85
2.22
1.68
0.56
-0.54
-1.06
-0.81
-0.03
0.75
1.07
0.76
0.09
-0.48
-0.54
0.01
0.82
1.37
1.22
0.33
-0.91
-1.88
-2.08
-1.44
-0.33
0.64
0.93
0.44
-0.47
-1.18
-1.19
-0.41
0.84
1.93
2.35
1.93
0.99
0.07
-0.30
0.01
0.69
1.19
1.06
0.23
-0.91
-1.74
-1.77
-0.95
0.27
1.24
1.45
0.88
-0.00
-0.56
-0.33
0.60
1.70
2.25
1.76
0.37
-1.32
-2.49
-2.62
-1.75
-0.47
0.47
0.58
-0.09
-0.99
-1.47
-1.14
-0.10
1.07
1.74
1.54
0.64
-0.43
-1.07
-0.96
-0.26
0.53
0.86
0.44
-0.53
-1.53
-1.99
-1.60
-0.49
0.81
1.71
1.83
1.26
0.43
-0.10
0.04
0.73
1.55
1.92
1.51
0.44
-0.76
-1.46
-1.26
-0.26
0.99
1.82
1.79
0.93
-0.30
-1.27
-1.53
-1.03
-0.13
0.67
0.96
0.71
0.24
-0.03
0.23
0.97
1.85
2.38
2.22
1.40
0.31
-0.54
-0.78
-0.41
0.18
0.47
0.15
-0.71
-1.61
-2.02
-1.64
-0.64
0.42
0.91
0.51
-0.60
-1.79
-2.39
-2.06
-0.98
0.28
1.07
1.09
0.52
-0.09
-0.20
0.40
1.43
2.32
2.53
1.88
0.69
-0.42
-0.88
-0.46
0.59
1.67
2.20
1.88
0.92
-0.15
-0.79
-0.70
-0.06
0.62
0.81
0.25
-0.82
-1.84
-2.21
-1.64
-0.37
0.96
1.70
1.46
0.43
-0.81
-1.57
-1.46
-0.59
0.51
1.24
1.25
0.63
-0.14
-0.53
-0.29
0.41
1.12
1.33
0.83
-0.18
-1.20
-1.72
-1.49
-0.70
0.12
0.45
0.04
-0.87
-1.70
-1.85
-1.10
0.21
1.39
1.77
1.13
-0.13
-1.25
-1.55
-0.84
0.44
1.57
1.92
1.38
0.35
-0.47
-0.57
0.12
1.19
2.06
2.24
1.66
0.67
-0.15
-0.39
0.04
0.78
1.31
1.21
0.44
-0.60
-1.29
-1.20
-0.28
1.02
2.05
2.28
1.62
0.49
-0.48
-0.75
-0.24
0.69
1.45
1.56
0.95
-0.04
-0.84
-1.00
-0.46
0.40
1.00
0.89
0.01
-1.25
-2.27
-2.52
-1.88
-0.66
0.52
1.07
0.78
-0.12
-1.04
-1.42
-1.00
0.00
1.01
1.44
1.08
0.17
-0.72
-1.03
-0.60
0.29
1.03
1.09
0.34
-0.87
-1.91
-2.21
-1.63
-0.48
0.64
1.17
0.95
0.27
-0.32
-0.31
0.40
1.50
2.36
2.47
1.73
0.53
-0.45
-0.66
0.00
1.10
1.93
1.90
0.96
-0.40
-1.41
-1.51
-0.69
0.52
1.32
1.20
0.20
-1.08
-1.86
-1.65
-0.54
0.83
1.68
1.59
0.65
-0.51
-1.16
-0.92
0.07
1.19
1.73
1.31
0.08
-1.34
-2.21
-2.11
-1.13
0.19
1.12
1.24
0.54
-0.47
-1.19
-1.19
-0.49
0.49
1.15
1.10
0.36
-0.65
-1.34
-1.29
-0.49
0.65
1.54
1.73
1.19
0.30
-0.37
-0.40
0.22
1.05
1.53
1.26
0.33
-0.77
-1.44
-1.29
-0.42
0.66
1.31
1.16
0.28
-0.84
-1.60
-1.65
-1.07
-0.31
0.12
-0.02
-0.59
-1.11
-1.12
-0.43
0.68
1.65
1.96
1.44
0.38
-0.65
-1.10
-0.77
0.11
1.04
1.54
1.39
0.79
0.15
-0.07
0.33
1.21
2.17
2.74
2.66
2.00
1.15
0.58
0.57
1.05
1.65
1.89
1.52
0.63
-0.35
-0.93
-0.88
-0.29
0.35
0.55
0.01
-1.09
-2.27
-2.90
-2.62
-1.53
-0.13
0.89
1.04
0.31
-0.84
-1.76
-1.94
-1.33
-0.35
0.41
0.51
-0.05
-0.87
-1.36
-1.15
-0.30
0.75
1.43
1.37
0.68
-0.19
-0.68
-0.50
0.23
1.01
1.33
0.94
0.08
-0.76
-1.06
-0.66
0.14
0.77
0.71
-0.13
-1.39
-2.39
-2.60
-1.84
-0.52
0.70
1.23
0.90
0.04
-0.74
-0.91
-0.30
0.79
1.79
2.18
1.80
0.87
-0.04
-0.43
-0.04
0.93
2.02
2.64
2.46
1.52
0.26
-0.73
-1.03
-0.61
0.16
0.75
0.78
0.29
-0.31
-0.50
0.01
1.02
1.97
2.26
1.64
0.38
-0.88
-1.45
-1.04
0.06
1.23
1.77
1.38
0.31
-0.81
-1.33
-0.94
0.12
1.21
1.66
1.18
0.01
-1.16
-1.67
-1.22
-0.12
0.96
1.33
0.74
-0.47
-1.54
-1.82
-1.10
0.22
1.39
1.73
1.07
-0.20
-1.37
-1.83
-1.43
-0.53
0.25
0.41
-0.14
-1.03
-1.65
-1.55
-0.69
0.52
1.45
1.63
0.98
-0.09
-0.92
-0.95
-0.10
1.22
2.30
2.52
1.74
0.39
-0.79
-1.20
-0.66
0.43
1.36
1.52
0.76
-0.53
-1.68
-2.13
-1.74
-0.89
-0.21
-0.19
-0.92
-2.02
-2.84
-2.85
-1.91
-0.37
1.10
1.87
1.64
0.63
-0.54
-1.19
-0.91
0.17
1.47
2.26
2.10
1.11
-0.08
-0.73
-0.39
0.76
2.03
2.64
2.21
1.01
-0.19
-0.63
-0.01
1.30
2.52
2.89
2.18
0.76
-0.59
-1.15
-0.69
0.44
1.55
2.00
1.59
0.64
-0.25
-0.56
-0.19
0.52
1.03
0.91
0.12
-0.96
-1.74
-1.79
-1.04
0.12
1.11
1.43
0.93
-0.11
-1.13
-1.61
-1.31
-0.46
0.41
0.74
0.27
-0.81
-1.88
-2.35
-1.94
-0.90
0.15
0.55
0.04
-1.10
-2.18
-2.53
-1.88
-0.51
0.89
1.66
1.50
0.68
-0.19
-0.51
-0.04
0.98
1.96
2.30
1.77
0.59
-0.65
-1.33
-1.18
-0.38
0.53
0.99
0.77
0.08
-0.60
-0.76
-0.25
0.70
1.57
1.88
1.45
0.53
-0.41
-0.90
-0.71
-0.04
0.67
0.96
0.62
-0.15
-0.88
-1.05
-0.47
0.62
1.60
1.88
1.20
-0.13
-1.41
-1.95
-1.46
-0.23
1.06
1.73
1.48
0.56
-0.38
-0.67
-0.08
1.12
2.26
2.65
2.04
0.71
-0.65
-1.33
-1.03
0.01
1.15
1.74
1.49
0.62
-0.29
-0.69
-0.40
0.36
1.02
1.09
0.43
-0.64
-1.55
-1.76
-1.15
-0.03
0.99
1.37
0.91
-0.08
-1.03
-1.42
-1.07
-0.29
0.36
0.38
-0.31
-1.39
-2.23
-2.33
-1.60
-0.39
0.65
0.96
0.41
-0.66
-1.56
-1.71
-0.92
0.43
1.62
2.00
1.39
0.16
-0.95
-1.27
-0.60
0.65
1.75
2.04
1.36
0.11
-0.98
-1.27
-0.65
0.49
1.43
1.62
0.93
-0.17
-1.02
-1.05
-0.22
1.02
1.96
2.06
1.26
0.03
-0.94
-1.09
-0.35
0.86
1.83
2.02
1.33
0.11
-0.97
-1.38
-1.00
-0.16
0.59
0.77
0.29
-0.54
-1.19
-1.22
-0.52
0.57
1.53
1.87
1.48
0.62
-0.22
-0.58
-0.37
0.14
0.46
0.19
-0.71
-1.84
-2.62
-2.55
-1.62
-0.26
0.82
1.05
0.37
-0.79
-1.71
-1.81
-0.99
0.32
1.45
1.82
1.31
0.31
-0.57
-0.83
-0.38
0.42
1.02
1.00
0.32
-0.65
-1.34
-1.31
-0.48
0.80
1.96
2.48
2.18
1.31
0.37
-0.11
0.09
0.79
1.51
1.75
1.31
0.38
-0.54
-0.98
-0.76
-0.12
0.45
0.48
-0.10
-0.98
-1.59
-1.52
-0.73
0.35
1.07
0.94
-0.05
-1.40
-2.35
-2.30
-1.20
0.42
1.73
2.02
1.15
-0.39
-1.74
-2.16
-1.47
-0.12
1.09
1.44
0.77
-0.47
-1.49
-1.66
-0.83
0.52
1.61
1.87
1.19
0.08
-0.72
-0.65
0.31
1.67
2.66
2.75
1.91
0.64
-0.31
-0.42
0.34
1.48
2.29
2.26
1.39
0.11
-0.90
-1.15
-0.57
0.41
1.19
1.28
0.59
-0.55
-1.56
-1.95
-1.60
-0.77
-0.02
0.22
-0.17
-0.87
-1.33
-1.12
-0.22
0.92
1.64
1.42
0.27
-1.26
-2.39
-2.53
-1.61
-0.15
1.07
1.42
0.80
-0.37
-1.40
-1.71
-1.18
-0.20
0.60
0.73
0.13
-0.82
-1.45
-1.30
-0.32
1.06
2.16
2.40
1.67
0.39
-0.72
-1.07
-0.48
0.68
1.73
2.06
1.48
0.37
-0.58
-0.76
0.00
1.32
2.45
2.78
2.11
0.86
-0.27
-0.69
-0.25
0.62
1.23
1.03
-0.01
-1.42
-2.45
-2.56
-1.69
-0.33
0.77
1.05
0.39
-0.77
-1.74
-1.96
-1.29
-0.06
1.12
1.71
1.52
0.80
0.09
-0.15
0.26
1.07
1.76
1.87
1.23
0.14
-0.85
-1.23
-0.85
0.01
0.74
0.83
0.16
-0.92
-1.75
-1.80
-0.96
0.35
1.41
1.65
0.94
-0.29
-1.34
-1.63
-1.07
-0.07
0.72
0.77
0.05
-1.03
-1.78
-1.70
-0.71
0.73
1.93
2.32
1.74
0.57
-0.57
-1.10
-0.85
-0.12
0.49
0.49
-0.25
-1.35
-2.17
-2.22
-1.46
-0.38
0.39
0.41
-0.27
-1.10
-1.41
-0.82
0.51
2.00
2.91
2.83
1.87
0.62
-0.22
-0.23
0.57
1.70
2.54
2.64
2.00
1.01
0.23
0.10
0.63
1.42
1.89
1.62
0.59
-0.76
-1.77
-2.00
-1.40
-0.42
0.31
0.31
-0.43
-1.49
-2.23
-2.24
-1.51
-0.45
0.34
0.46
-0.08
-0.86
-1.32
-1.09
-0.21
0.84
1.47
1.24
0.22
-1.09
-1.97
-1.93
-0.98
0.38
1.40
1.59
0.95
-0.05
-0.73
-0.66
0.13
1.16
1.82
1.76
1.07
0.18
-0.35
-0.20
0.53
1.44
2.01
1.91
1.15
0.06
-0.85
-1.18
-0.85
-0.12
0.53
0.65
0.13
-0.75
-1.45
-1.47
-0.67
0.59
1.66
1.92
1.20
-0.12
-1.35
-1.81
-1.31
-0.22
0.79
1.11
0.59
-0.41
-1.21
-1.30
-0.57
0.53
1.32
1.28
0.39
-0.87
-1.76
-1.74
-0.79
0.60
1.67
1.82
0.93
-0.54
-1.83
-2.28
-1.69
-0.43
0.81
1.37
1.00
0.02
-0.92
-1.17
-0.46
0.91
2.26
2.91
2.60
1.58
0.52
0.02
0.32
1.14
1.85
1.93
1.24
0.13
-0.80
-1.04
-0.51
0.41
1.11
1.11
0.36
-0.74
-1.53
-1.50
-0.59
0.74
1.79
1.95
1.12
-0.26
-1.42
-1.72
-1.01
0.26
1.31
1.50
0.69
-0.67
-1.80
-2.09
-1.44
-0.29
0.62
0.72
-0.03
-1.16
-1.93
-1.80
-0.71
0.82
2.00
2.20
1.28
-0.29
-1.70
-2.24
-1.68
-0.42
0.78
1.18
0.56
-0.70
-1.83
-2.12
-1.37
-0.01
1.17
1.48
0.78
-0.43
-1.37
-1.36
-0.33
1.20
2.39
2.60
1.72
0.28
-0.91
-1.22
-0.53
0.69
1.67
1.81
1.00
-0.31
-1.41
-1.74
-1.19
-0.19
0.58
0.60
-0.21
-1.37
-2.19
-2.14
-1.18
0.23
1.37
1.65
0.96
-0.27
-1.37
-1.74
-1.21
-0.15
0.82
1.18
0.83
0.17
-0.20
0.14
1.12
2.22
2.76
2.36
1.15
-0.23
-1.04
-0.84
0.23
1.55
2.36
2.20
1.12
-0.30
-1.37
-1.57
-0.88
0.25
1.23
1.60
1.30
0.69
0.24
0.26
0.66
1.07
1.03
0.36
-0.71
-1.67
-1.96
-1.36
-0.15
1.06
1.64
1.23
0.01
-1.39
-2.22
-2.02
-0.83
0.83
2.18
2.65
2.14
1.04
-0.01
-0.48
-0.23
0.41
0.87
0.74
-0.03
-1.06
-1.78
-1.76
-0.97
0.20
1.16
1.42
0.89
-0.08
-0.90
-1.10
-0.56
0.38
1.13
1.19
0.48
-0.61
-1.46
-1.56
-0.83
0.29
1.12
1.13
0.26
-1.03
-2.02
-2.21
-1.53
-0.45
0.33
0.34
-0.43
-1.47
-2.10
-1.86
-0.78
0.64
1.73
1.99
1.44
0.49
-0.27
-0.46
-0.09
0.47
0.72
0.42
-0.33
-1.10
-1.44
-1.14
-0.38
0.40
0.71
0.33
-0.54
-1.42
-1.79
-1.35
-0.23
1.09
2.01
2.15
1.52
0.54
-0.21
-0.30
0.27
1.11
1.66
1.54
0.77
-0.18
-0.72
-0.50
0.39
1.38
1.81
1.28
-0.04
-1.51
-2.35
-2.08
-0.84
0.70
1.73
1.74
0.84
-0.39
-1.19
-1.12
-0.29
0.76
1.36
1.14
0.24
-0.83
-1.44
-1.25
-0.38
0.70
1.38
1.33
0.62
-0.29
-0.80
-0.58
0.34
1.48
2.27
2.30
1.59
0.59
-0.13
-0.15
0.50
1.38
1.91
1.63
0.57
-0.81
-1.81
-1.88
-0.96
0.48
1.67
2.00
1.29
-0.05
-1.28
-1.74
-1.25
-0.17
0.80
1.05
0.45
-0.63
-1.53
-1.73
-1.18
-0.34
0.14
-0.20
-1.26
-2.49
-3.15
-2.75
-1.37
0.40
1.76
2.13
1.46
0.23
-0.82
-1.14
-0.63
0.30
1.01
1.00
0.21
-0.95
-1.85
-1.98
-1.29
-0.20
0.65
0.78
0.15
-0.79
-1.45
-1.38
-0.62
0.40
1.08
1.05
0.42
-0.32
-0.55
0.08
1.41
2.85
3.69
3.47
2.27
0.68
-0.50
-0.71
0.07
1.32
2.27
2.39
1.63
0.48
-0.36
-0.43
0.22
1.09
1.52
1.10
-0.06
-1.42
-2.30
-2.26
-1.38
-0.15
0.74
0.86
0.20
-0.84
-1.63
-1.73
-1.08
-0.05
0.80
1.03
0.57
-0.25
-0.90
-1.00
-0.52
0.16
0.50
0.13
-0.89
-2.08
-2.71
-2.28
-0.78
1.23
2.91
3.56
3.00
1.62
0.18
-0.67
-0.70
-0.22
0.20
0.09
-0.60
-1.49
-2.00
-1.75
-0.78
0.42
1.24
1.24
0.45
-0.66
-1.46
-1.50
-0.74
0.40
1.29
1.49
0.95
0.10
-0.50
-0.42
0.32
1.24
1.72
1.33
0.17
-1.18
-1.95
-1.62
-0.27
1.48
2.76
2.95
2.02
0.52
-0.70
-1.03
-0.45
0.51
1.06
0.73
-0.41
-1.71
-2.36
-1.92
-0.56
1.00
1.91
1.70
0.58
-0.73
-1.39
-0.95
0.38
1.89
2.77
2.58
1.49
0.11
-0.84
-0.94
-0.31
0.55
1.07
0.94
0.30
-0.36
-0.55
-0.01
1.04
2.05
2.44
1.91
0.63
-0.83
-1.81
-1.93
-1.24
-0.22
0.50
0.52
-0.13
-1.01
-1.55
-1.37
-0.55
0.48
1.14
1.06
0.33
-0.58
-1.10
-0.89
-0.07
0.82
1.14
0.55
-0.77
-2.20
-3.04
-2.84
-1.74
-0.32
0.68
0.79
0.08
-0.91
-1.53
-1.39
-0.59
0.32
0.74
0.33
-0.73
-1.85
-2.37
-1.92
-0.68
0.76
1.69
1.68
0.82
-0.34
-1.11
-1.05
-0.23
0.81
1.42
1.18
0.22
-0.91
-1.50
-1.14
0.04
1.46
2.36
2.27
1.28
-0.03
-0.90
-0.82
0.17
1.54
2.53
2.63
1.81
0.58
-0.37
-0.52
0.09
0.98
1.48
1.14
0.06
-1.22
-2.00
-1.85
-0.86
0.38
1.17
1.08
0.20
-0.86
-1.40
-1.03
0.10
1.35
2.02
1.71
0.60
-0.67
-1.38
-1.12
-0.05
1.24
2.08
2.05
1.23
0.09
-0.74
-0.88
-0.34
0.46
0.96
0.82
0.07
-0.83
-1.34
-1.08
-0.14
0.96
1.57
1.31
0.30
-0.88
-1.53
-1.23
-0.13
1.16
1.90
1.66
0.57
-0.73
-1.54
-1.39
-0.40
0.84
1.63
1.56
0.72
-0.35
-1.00
-0.84
0.03
1.10
1.76
1.65
0.84
-0.21
-0.93
-0.99
-0.42
0.36
0.86
0.75
0.09
-0.69
-1.11
-0.84
0.04
1.09
1.76
1.67
0.85
-0.30
-1.25
-1.61
-1.40
-0.99
-0.85
-1.23
-1.98
-2.62
-2.64
-1.80
-0.40
0.97
1.64
1.29
0.18
-1.04
-1.65
-1.29
-0.16
1.08
1.68
1.28
0.08
-1.22
-1.85
-1.42
-0.12
1.37
2.29
2.23
1.34
0.19
-0.56
-0.57
0.01
0.65
0.81
0.24
-0.84
-1.85
-2.24
-1.75
-0.61
0.60
1.25
1.04
0.12
-0.91
-1.42
-1.03
0.13
1.52
2.47
2.55
1.82
0.76
-0.01
-0.07
0.55
1.42
1.94
1.74
0.89
-0.15
-0.78
-0.64
0.16
1.09
1.52
1.14
0.12
-0.92
-1.33
-0.84
0.26
1.28
1.54
0.79
-0.62
-1.94
-2.46
-1.91
-0.60
0.76
1.48
1.25
0.29
-0.80
-1.44
-1.34
-0.68
0.01
0.21
-0.31
-1.29
-2.16
-2.36
-1.67
-0.37
0.91
1.56
1.31
0.41
-0.52
-0.86
-0.31
0.88
2.09
2.67
2.30
1.18
-0.10
-0.85
-0.68
0.27
1.47
2.23
2.17
1.36
0.32
-0.33
-0.26
0.40
1.11
1.28
0.65
-0.53
-1.64
-2.06
-1.58
-0.47
0.59
1.00
0.59
-0.29
-0.97
-0.87
0.09
1.47
2.55
2.72
1.88
0.45
-0.87
-1.48
-1.26
-0.55
0.05
0.07
-0.59
-1.57
-2.34
-2.47
-1.92
-0.99
-0.22
0.03
-0.32
-0.98
-1.44
-1.33
-0.59
0.46
1.25
1.34
0.62
-0.57
-1.60
-1.91
-1.33
-0.19
0.85
1.17
0.60
-0.52
-1.52
-1.75
-1.04
0.26
1.49
2.00
1.60
0.60
-0.36
-0.69
-0.21
0.75
1.58
1.75
1.09
-0.04
-0.98
-1.20
-0.59
0.48
1.30
1.34
0.50
-0.76
-1.70
-1.72
-0.76
0.72
1.96
2.32
1.70
0.53
-0.47
-0.69
-0.04
1.00
1.73
1.54
0.39
-1.24
-2.54
-2.88
-2.12
-0.70
0.61
1.16
0.74
-0.30
-1.30
-1.63
-1.05
0.13
1.30
1.86
1.56
0.67
-0.23
-0.53
-0.04
0.97
1.87
2.08
1.41
0.20
-0.87
-1.19
-0.56
0.70
1.87
2.29
1.70
0.39
-0.93
-1.54
-1.09
0.18
1.60
2.45
2.35
1.44
0.32
-0.33
-0.19
0.54
1.25
1.33
0.59
-0.66
-1.74
-2.08
-1.54
-0.54
0.24
0.23
-0.63
-1.83
-2.63
-2.45
-1.28
0.29
1.44
1.53
0.52
-1.01
-2.20
-2.35
-1.36
0.30
1.78
2.37
1.87
0.65
-0.56
-1.15
-0.91
-0.16
0.49
0.58
0.06
-0.70
-1.09
-0.72
0.34
1.59
2.32
2.08
0.92
-0.62
-1.77
-1.97
-1.21
0.02
0.96
1.00
0.06
-1.36
-2.48
-2.65
-1.70
-0.11
1.33
1.92
1.46
0.34
-0.66
-0.90
-0.17
1.13
2.26
2.62
2.07
1.02
0.15
-0.00
0.64
1.61
2.24
2.01
0.91
-0.55
-1.66
-1.91
-1.28
-0.25
0.50
0.52
-0.16
-1.04
-1.49
-1.15
-0.15
0.96
1.53
1.21
0.17
-0.99
-1.59
-1.26
-0.18
0.99
1.55
1.08
-0.25
-1.76
-2.67
-2.49
-1.31
0.20
1.27
1.38
0.60
-0.51
-1.20
-1.05
-0.17
0.88
1.44
1.14
0.14
-0.98
-1.55
-1.24
-0.20
1.00
1.70
1.54
0.65
-0.43
-1.09
-1.01
-0.29
0.56
0.98
0.68
-0.21
-1.16
-1.63
-1.32
-0.33
0.82
1.55
1.49
0.72
-0.35
-1.12
-1.22
-0.68
0.06
0.47
0.23
-0.52
-1.28
-1.48
-0.84
0.43
1.68
2.24
1.76
0.47
-0.99
-1.92
-1.88
-0.98
0.28
1.26
1.56
1.17
0.46
-0.06
-0.01
0.62
1.52
2.22
2.38
2.00
1.39
1.02
1.20
1.87
2.61
2.89
2.37
1.16
-0.19
-1.06
-1.05
-0.26
0.76
1.29
0.92
-0.23
-1.57
-2.37
-2.16
-1.06
0.31
1.18
1.08
0.07
-1.26
-2.18
-2.25
-1.55
-0.59
-0.01
-0.16
-0.92
-1.77
-2.11
-1.67
-0.65
0.42
0.95
0.68
-0.18
-1.07
-1.46
-1.10
-0.21
0.67
1.01
0.59
-0.36
-1.33
-1.79
-1.51
-0.68
0.20
0.67
0.51
-0.07
-0.59
-0.57
0.19
1.47
2.78
3.52
3.38
2.45
1.16
0.06
-0.46
-0.39
-0.06
0.09
-0.22
-0.94
-1.66
-1.95
-1.57
-0.69
0.20
0.58
0.18
-0.78
-1.75
-2.15
-1.71
-0.62
0.59
1.37
1.44
0.95
0.36
0.16
0.54
1.30
1.94
1.98
1.24
-0.01
-1.20
-1.77
-1.44
-0.43
0.70
1.34
1.18
0.37
-0.55
-1.00
-0.70
0.20
1.16
1.59
1.17
0.08
-1.13
-1.86
-1.77
-1.03
-0.16
0.30
0.08
-0.61
-1.23
-1.27
-0.55
0.64
1.68
2.00
1.42
0.28
-0.76
-1.10
-0.52
0.66
1.82
2.35
2.03
1.10
0.15
-0.26
0.09
0.93
1.73
1.96
1.43
0.40
-0.58
-0.97
-0.58
0.31
1.11
1.25
0.48
-0.92
-2.31
-3.03
-2.73
-1.62
-0.31
0.53
0.51
-0.21
-1.07
-1.48
-1.13
-0.23
0.63
0.87
0.31
-0.74
-1.59
-1.60
-0.63
0.90
2.20
2.58
1.84
0.46
-0.77
-1.16
-0.55
0.61
1.55
1.64
0.79
-0.53
-1.55
-1.70
-0.88
0.40
1.37
1.46
0.60
-0.72
-1.69
-1.70
-0.71
0.78
1.92
2.08
1.22
-0.14
-1.16
-1.24
-0.34
0.97
1.91
1.88
0.87
-0.60
-1.76
-2.04
-1.40
-0.31
0.53
0.60
-0.11
-1.15
-1.80
-1.59
-0.52
0.87
1.80
1.76
0.75
-0.64
-1.67
-1.77
-0.96
0.24
1.10
1.16
0.41
-0.62
-1.30
-1.21
-0.41
0.60
1.23
1.08
0.20
-0.92
-1.69
-1.69
-0.93
0.16
1.02
1.23
0.79
0.05
-0.45
-0.36
0.30
1.11
1.59
1.41
0.67
-0.17
-0.56
-0.14
0.99
2.29
3.09
2.91
1.77
0.18
-1.13
-1.57
-1.03
0.06
0.99
1.18
0.54
-0.54
-1.39
-1.53
-0.90
0.04
0.66
0.53
-0.28
-1.31
-1.94
-1.80
-0.99
-0.01
0.58
0.43
-0.30
-1.13
-1.48
-1.07
-0.06
1.00
1.51
1.16
0.12
-1.00
-1.56
-1.22
-0.14
1.10
1.83
1.70
0.88
-0.10
-0.63
-0.48
0.17
0.77
0.82
0.17
-0.83
-1.59
-1.62
-0.79
0.49
1.59
1.96
1.46
0.43
-0.52
-0.81
-0.27
0.84
1.92
2.39
2.00
0.96
-0.17
-0.82
-0.71
-0.00
0.80
1.15
0.79
-0.06
-0.88
-1.13
-0.63
0.37
1.27
1.51
0.91
-0.21
-1.23
-1.56
-1.01
0.13
1.24
1.74
1.38
0.41
-0.62
-1.17
-1.01
-0.37
0.22
0.29
-0.36
-1.44
-2.37
-2.61
-1.98
-0.76
0.44
1.02
0.70
-0.27
-1.32
-1.88
-1.68
-0.91
-0.06
0.34
0.11
-0.55
-1.13
-1.15
-0.44
0.71
1.72
2.06
1.55
0.48
-0.55
-0.94
-0.46
0.62
1.71
2.24
1.95
1.05
0.09
-0.42
-0.30
0.22
0.68
0.67
0.09
-0.77
-1.41
-1.47
-0.95
-0.20
0.30
0.17
-0.55
-1.45
-1.98
-1.73
-0.70
0.69
1.84
2.25
1.80
0.84
-0.07
-0.45
-0.16
0.50
1.04
1.03
0.44
-0.37
-0.87
-0.67
0.22
1.34
2.10
2.06
1.24
0.05
-0.85
-1.00
-0.37
0.65
1.44
1.52
0.78
-0.40
-1.42
-1.78
-1.32
-0.38
0.47
0.71
0.24
-0.63
-1.34
-1.46
-0.93
-0.11
0.46
0.40
-0.26
-1.10
-1.54
-1.21
-0.19
1.03
1.80
1.75
0.96
-0.03
-0.58
-0.31
0.61
1.60
1.97
1.39
0.07
-1.29
-1.97
-1.63
-0.46
0.84
1.59
1.44
0.58
-0.38
-0.83
-0.48
0.46
1.44
1.87
1.51
0.57
-0.40
-0.84
-0.52
0.34
1.19
1.46
0.91
-0.26
-1.48
-2.17
-2.01
-1.17
-0.13
0.53
0.48
-0.15
-0.91
-1.26
-0.93
-0.03
0.95
1.48
1.25
0.44
-0.47
-0.90
-0.59
0.28
1.16
1.44
0.86
-0.35
-1.56
-2.10
-1.70
-0.60
0.56
1.10
0.73
-0.30
-1.35
-1.77
-1.33
-0.30
0.66
0.98
0.44
-0.70
-1.88
-2.57
-2.55
-2.01
-1.37
-1.00
-1.05
-1.36
-1.55
-1.25
-0.35
0.94
2.16
2.83
2.69
1.89
0.94
0.43
0.73
1.70
2.81
3.39
3.10
2.09
0.96
0.36
0.58
1.38
2.15
2.24
1.43
0.03
-1.32
-1.99
-1.74
-0.84
0.12
0.56
0.26
-0.56
-1.36
-1.57
-1.01
0.08
1.12
1.51
1.00
-0.17
-1.39
-2.02
-1.76
-0.83
0.22
0.79
0.63
-0.04
-0.68
-0.76
-0.12
0.94
1.84
2.06
1.41
0.22
-0.95
-1.53
-1.37
-0.74
-0.19
-0.21
-0.89
-1.92
-2.67
-2.64
-1.76
-0.42
0.69
1.02
0.50
-0.43
-1.10
-0.96
0.02
1.35
2.28
2.26
1.26
-0.21
-1.37
-1.63
-0.91
0.37
1.48
1.87
1.45
0.61
-0.03
-0.03
0.59
1.36
1.67
1.15
-0.04
-1.30
-1.91
-1.48
-0.22
1.19
1.92
1.56
0.29
-1.17
-2.00
-1.73
-0.51
1.04
2.15
2.38
1.79
0.87
0.24
0.24
0.79
1.44
1.70
1.23
0.14
-1.14
-2.08
-2.30
-1.81
-0.99
-0.33
-0.24
-0.74
-1.48
-1.94
-1.73
-0.84
0.37
1.34
1.63
1.18
0.33
-0.38
-0.54
-0.14
0.46
0.75
0.42
-0.42
-1.28
-1.58
-1.04
0.17
1.42
2.02
1.59
0.33
-1.13
-2.03
-1.91
-0.90
0.38
1.14
0.91
-0.21
-1.62
-2.52
-2.40
-1.33
0.12
1.14
1.24
0.50
-0.48
-0.98
-0.57
0.58
1.82
2.42
2.01
0.80
-0.52
-1.22
-0.93
0.15
1.39
2.15
2.10
1.41
0.60
0.25
0.56
1.33
2.06
2.26
1.76
0.77
-0.16
-0.56
-0.26
0.48
1.15
1.30
0.76
-0.21
-1.11
-1.50
-1.19
-0.41
0.34
0.62
0.20
-0.73
-1.71
-2.26
-2.10
-1.33
-0.39
0.23
0.19
-0.41
-1.20
-1.65
-1.46
-0.75
0.04
0.38
0.01
-0.87
-1.70
-1.89
-1.21
0.06
1.25
1.73
1.27
0.17
-0.92
-1.37
-0.91
0.20
1.36
1.98
1.82
1.05
0.20
-0.18
0.13
0.93
1.68
1.85
1.22
0.04
-1.09
-1.56
-1.16
-0.13
0.91
1.37
1.01
0.05
-0.92
-1.36
-1.00
-0.05
0.96
1.50
1.32
0.57
-0.28
-0.70
-0.42
0.41
1.27
1.60
1.15
0.09
-1.02
-1.60
-1.40
-0.66
0.05
0.19
-0.42
-1.46
-2.29
-2.37
-1.60
-0.35
0.72
1.07
0.60
-0.29
-0.93
-0.78
0.24
1.65
2.69
2.73
1.65
-0.08
-1.64
-2.35
-1.98
-0.92
0.16
0.63
0.36
-0.32
-0.83
-0.74
-0.03
0.91
1.54
1.49
0.82
-0.03
-0.49
-0.22
0.73
1.89
2.64
2.54
1.59
0.25
-0.82
-1.13
-0.60
0.36
1.10
1.15
0.43
-0.67
-1.55
-1.75
-1.23
-0.35
0.37
0.52
0.13
-0.45
-0.78
-0.60
-0.04
0.50
0.55
-0.10
-1.27
-2.42
-2.97
-2.60
-1.43
0.02
1.10
1.37
0.83
-0.07
-0.73
-0.73
-0.10
0.71
1.15
0.85
-0.07
-1.13
-1.74
-1.55
-0.69
0.35
0.98
0.89
0.22
-0.55
-0.86
-0.47
0.47
1.46
1.95
1.67
0.77
-0.23
-0.77
-0.53
0.34
1.38
2.02
1.93
1.21
0.33
-0.14
0.13
1.04
2.07
2.61
2.28
1.18
-0.16
-1.11
-1.33
-0.90
-0.26
0.08
-0.11
-0.65
-1.14
-1.20
-0.78
-0.12
0.36
0.38
-0.02
-0.52
-0.67
-0.19
0.80
1.88
2.46
2.11
0.76
-1.12
-2.63
-2.82
-1.14
2.27
6.44
9.92
11.34
10.01
6.28
1.39
-3.12
-6.11
-7.27
-7.15
-6.63
-6.32
-6.24
-5.92
-4.87
-3.07
-1.04
0.34
0.48
-0.58
-2.13
-3.16
-2.97
-1.56
0.37
1.88
2.31
1.66
0.52
-0.30
-0.25
0.64
1.83
2.63
2.59
1.78
0.63
-0.32
-0.81
-0.93
-1.04
-1.47
-2.29
-3.25
-3.94
-4.04
-3.51
-2.65
-1.90
-1.65
-2.00
-2.70
-3.30
-3.41
-2.87
-1.86
-0.80
-0.11
-0.05
-0.59
-1.55
-2.79
-4.34
-6.47
-9.44
-13.38
-18.02
-22.78
-27.06
-30.49
-33.14
-35.55
-38.37
-42.13
-47.02
-52.66
-58.44
-63.91
-69.10
-74.63
-81.59
-91.29
-104.71
-122.31
-143.12
-164.72
-183.72
-196.82
-202.00
-199.53
-191.85
-182.33
-174.43
-169.57
-166.67
-162.68
-153.37
-134.23
-100.93
-49.72
21.57
111.32
213.86
319.79
418.28
499.07
555.90
587.83
598.31
596.77
590.06
581.48
571.49
557.61
538.78
515.56
489.19
460.56
429.76
395.75
358.16
317.93
277.09
238.46
204.14
174.70
149.08
125.23
100.72
74.36
46.74
19.76
-4.17
-23.67
-39.08
-52.34
-66.05
-82.40
-101.65
-121.99
-140.48
-154.47
-163.27
-168.70
-174.33
-183.73
-198.87
-219.08
-241.61
-263.11
-280.94
-293.91
-301.92
-305.17
-303.79
-298.28
-289.92
-280.68
-272.31
-265.11
-257.96
-249.51
-240.66
-235.73
-241.21
-261.82
-295.97
-333.64
-358.38
-353.90
-311.53
-235.17
-140.91
-51.26
13.16
40.97
33.50
3.51
-30.12
-49.53
-44.33
-14.89
28.36
69.55
94.02
94.15
72.23
38.84
7.97
-8.88
-7.01
10.65
35.90
59.44
73.95
75.70
64.20
41.02
8.90
-28.76
-67.83
-103.54
-131.17
-147.12
-149.99
-140.85
-122.92
-100.80
-79.80
-65.04
-60.27
-66.63
-81.51
-98.67
-110.40
-110.95
-99.71
-82.11
-67.04
-62.25
-69.91
-85.00
-97.56
-97.53
-79.22
-43.14
5.21
58.43
109.31
151.53
179.45
188.58
177.20
148.89
113.65
85.61
77.61
95.34
133.91
179.43
214.53
225.62
207.84
165.78
110.20
53.12
3.73
-33.19
-56.48
-66.95
-66.01
-55.34
-37.55
-16.71
1.90
13.13
13.82
4.47
-10.70
-24.83
-31.23
-26.16
-10.59
10.27
29.20
40.09
40.80
33.84
24.98
20.81
25.88
40.97
62.94
85.96
103.42
109.86
102.24
80.76
48.84
12.44
-21.10
-44.88
-54.47
-49.34
-33.19
-12.65
5.31
15.91
18.00
13.89
7.48
1.97
-1.43
-3.51
-5.80
-8.96
-12.37
-14.57
-14.38
-11.79
-8.15
-5.24
-4.25
-5.12
-6.55
-6.75
-4.36
0.99
8.45
16.45
23.32
27.86
29.62
28.92
26.45
22.95
18.84
14.10
8.38
1.30
-7.16
-16.36
-25.03
-31.62
-34.88
-34.35
-30.63
-25.07
-19.29
-14.52
-11.23
-9.19
-7.85
-6.72
-5.65
-4.72
-4.12
-3.95
-4.12
-4.47
-4.96
-5.69
-6.83
-8.39
-10.12
-11.56
-12.28
-12.20
-11.74
-11.71
-12.90
-15.62
-19.46
-23.41
-26.23
-27.04
-25.67
-22.72
-19.32
-16.68
-15.64
-16.40
-18.42
-20.63
-21.68
-20.35
-15.86
-8.19
1.90
13.03
23.54
31.96
37.33
39.49
38.92
36.58
33.50
30.54
28.18
26.46
25.08
23.55
21.45
18.55
14.98
11.07
7.23
3.74
0.63
-2.18
-4.73
-6.90
-8.48
-9.42
-10.03
-10.95
-12.81
-15.75
-19.20
-21.94
-22.79
-21.13
-17.31
-12.50
-8.06
-4.95
-3.31
-2.54
-1.57
0.76
5.35
12.56
21.93
32.09
41.03
46.75
48.22
45.93
41.83
38.45
37.66
39.80
43.61
46.98
48.04
46.01
41.28
35.01
28.40
22.23
16.70
11.72
7.10
2.72
-1.37
-5.13
-8.57
-11.81
-14.95
-18.01
-20.79
-22.83
-23.54
-22.40
-19.24
-14.36
-8.56
-2.88
1.66
4.45
5.41
4.92
3.63
2.12
0.77
-0.34
-1.22
-1.84
-2.08
-1.83
-1.19
-0.38
0.32
0.87
1.51
2.67
4.61
7.21
9.87
11.88
12.84
13.02
13.44
15.33
19.63
26.30
34.10
40.84
44.06
41.86
33.66
20.56
4.97
-10.09
-22.09
-29.72
-33.13
-33.54
-32.45
-31.07
-29.95
-29.22
-28.84
-28.81
-29.11
-29.52
-29.61
-29.09
-27.95
-26.41
-24.70
-22.70
-19.97
-16.23
-12.03
-8.98
-9.40
-15.61
-29.06
-49.60
-75.27
-102.65
-127.44
-145.50
-153.68
-150.71
-137.47
-116.62
-91.57
-65.35
-39.86
-15.91
6.35
26.81
45.26
61.72
76.71
90.81
103.73
113.31
115.82
107.69
87.58
57.96
25.05
-3.02
-19.28
-20.17
-6.38
17.87
46.62
73.74
94.06
103.91
101.78
88.65
68.21
45.80
26.61
13.71
7.15
4.71
3.52
1.65
-1.39
-4.98
-8.54
-12.03
-15.64
-19.11
-21.27
-20.64
-16.52
-9.87
-3.02
1.74
3.70
4.43
6.91
13.70
25.07
38.43
49.49
54.32
51.41
42.39
31.60
24.47
25.58
36.91
56.80
80.03
98.61
103.99
89.85
54.89
4.43
-50.09
-94.25
-115.35
-107.14
-72.53
-22.66
27.15
63.17
77.97
72.35
53.61
31.48
13.80
3.81
-0.10
-2.79
-9.60
-23.82
-44.86
-67.84
-85.52
-91.78
-85.25
-70.69
-57.04
-52.44
-58.97
-71.06
-78.05
-70.29
-44.46
-5.15
38.38
77.86
110.22
137.84
164.92
193.15
219.32
236.72
238.83
223.12
192.35
153.41
114.34
81.18
56.32
38.34
23.24
6.29
-16.16
-45.23
-79.01
-113.08
-142.04
-161.35
-168.71
-164.47
-150.76
-130.05
-104.33
-75.22
-44.96
-17.40
2.33
9.21
0.41
-23.28
-57.43
-95.57
-131.41
-160.75
-182.05
-195.87
-203.56
-205.89
-202.55
-192.51
-175.15
-151.30
-123.81
-97.06
-75.60
-62.64
-58.90
-62.76
-71.37
-82.27
-94.18
-106.93
-120.34
-132.97
-141.85
-143.13
-133.75
-112.93
-82.56
-46.46
-9.00
26.17
56.59
80.62
97.08
105.18
105.17
98.93
90.05
82.93
81.18
86.37
97.40
111.17
123.81
132.05
134.22
130.38
122.05
111.46
100.84
91.76
84.75
79.16
73.48
65.77
54.36
38.27
17.52
-6.79
-32.26
-55.04
-70.32
-73.88
-64.24
-44.32
-21.27
-3.85
1.48
-6.06
-20.87
-33.55
-35.64
-23.85
-1.37
24.55
46.85
62.08
71.07
76.88
81.76
85.28
84.94
78.26
65.00
47.88
31.45
19.71
14.49
15.30
20.62
29.15
39.89
51.21
60.05
62.55
55.92
40.48
20.04
0.23
-14.38
-22.70
-27.28
-32.31
-40.77
-52.78
-66.00
-77.56
-85.95
-91.61
-95.97
-99.94
-102.99
-103.23
-98.24
-85.69
-63.97
-32.62
7.09
51.59
94.75
128.73
146.02
142.13
117.71
78.61
34.14
-6.37
-36.51
-54.14
-60.39
-57.34
-45.91
-25.54
3.98
39.96
75.76
102.33
112.23
103.76
82.62
59.80
46.50
48.67
64.25
84.73
99.51
101.50
90.26
71.49
53.48
42.87
41.86
48.21
57.29
64.72
67.92
65.97
58.36
44.00
21.25
-10.63
-49.74
-90.72
-125.73
-146.82
-148.97
-132.20
-101.99
-67.64
-39.47
-25.48
-28.70
-45.89
-68.15
-83.61
-81.30
-55.22
-7.21
53.13
111.04
151.37
163.22
143.33
96.79
35.60
-24.29
-67.26
-82.33
-66.54
-26.38
23.91
67.16
89.64
86.43
63.03
32.21
7.66
-2.46
1.20
10.69
15.84
9.87
-7.61
-31.42
-54.50
-71.83
-82.61
-89.24
-94.55
-99.24
-100.99
-96.10
-82.14
-59.88
-33.36
-8.38
9.86
18.85
19.37
14.87
9.97
8.68
13.11
22.82
35.23
46.91
55.16
59.19
60.24
60.76
62.99
67.80
74.41
81.19
86.67
90.14
91.45
90.40
86.27
78.04
65.03
47.61
27.43
6.96
-11.33
-25.77
-35.73
-41.68
-44.77
-46.49
-48.35
-51.50
-56.32
-62.19
-67.54
-70.37
-69.09
-63.20
-53.46
-41.56
-29.31
-18.12
-8.58
-0.63
6.15
12.13
17.61
22.89
28.37
34.63
42.21
51.29
61.31
70.91
77.91
79.69
73.72
58.29
33.27
0.72
-35.18
-69.03
-95.65
-111.70
-116.55
-112.09
-101.70
-88.75
-75.71
-63.95
-53.94
-45.66
-38.73
-32.74
-27.58
-24.13
-24.33
-30.61
-44.53
-65.44
-89.86
-112.24
-126.93
-130.20
-121.60
-103.90
-81.81
-60.31
-43.14
-31.79
-25.38
-21.27
-16.32
-8.74
0.48
7.09
5.08
-10.65
-41.07
-81.41
-121.99
-151.40
-160.58
-145.95
-110.28
-61.49
-10.34
32.12
57.14
60.36
43.36
13.77
-16.69
-36.25
-38.11
-23.57
-1.23
17.79
26.14
24.90
23.23
33.16
62.32
108.71
160.25
199.71
212.16
191.43
142.41
78.20
14.47
-36.13
-66.91
-76.67
-67.82
-44.63
-12.44
23.16
56.92
85.16
106.45
121.26
130.31
132.79
126.45
110.13
86.96
65.28
55.91
66.10
93.58
126.04
146.75
144.09
118.88
84.44
58.81
54.05
68.86
89.66
98.87
85.28
50.39
6.90
-28.91
-45.72
-41.70
-23.42
-0.89
17.60
27.93
29.84
24.87
14.84
1.43
-14.01
-30.60
-48.13
-66.55
-85.10
-101.27
-111.08
-110.81
-99.33
-79.61
-58.01
-41.25
-33.11
-32.38
-33.78
-31.15
-20.81
-3.41
16.81
34.71
47.09
53.90
57.76
62.01
68.78
77.95
87.16
92.67
90.59
77.89
52.86
15.91
-29.79
-78.02
-120.11
-147.10
-153.09
-138.34
-110.27
-81.65
-65.43
-69.11
-91.23
-121.52
-145.30
-149.52
-128.07
-83.94
-28.30
23.70
58.11
66.53
49.12
14.35
-23.75
-50.76
-57.47
-43.59
-18.16
4.31
10.32
-6.51
-42.96
-87.69
-126.30
-147.18
-146.04
-127.02
-100.56
-78.77
-70.18
-76.30
-90.66
-101.94
-99.70
-79.96
-47.78
-15.00
6.41
11.94
7.25
4.94
16.33
43.18
76.15
100.39
105.50
93.00
75.99
70.81
86.00
115.84
142.91
148.73
125.47
81.68
38.44
18.31
33.06
77.68
133.31
177.97
197.90
193.69
177.94
166.27
167.38
177.66
184.11
173.43
141.34
96.98
58.45
42.62
55.03
85.96
115.88
126.43
110.60
75.76
38.53
14.27
8.33
13.84
16.76
4.80
-25.80
-69.23
-114.52
-151.91
-177.00
-190.78
-196.83
-198.16
-195.96
-190.06
-180.43
-167.75
-152.97
-136.77
-119.59
-101.89
-84.71
-69.51
-57.30
-47.91
-39.98
-31.88
-22.97
-14.15
-7.22
-3.61
-3.14
-3.93
-3.51
-0.15
6.10
13.54
19.69
22.60
21.65
17.85
13.29
10.45
11.14
15.77
22.99
29.89
33.17
30.49
21.71
9.32
-2.47
-9.35
-8.84
-1.29
10.27
21.71
29.59
32.47
31.10
27.57
24.02
21.69
20.71
20.61
20.86
21.24
21.58
21.48
19.99
15.82
8.11
-2.84
-15.35
-26.68
-34.30
-36.96
-35.29
-31.54
-28.31
-27.31
-28.60
-30.76
-31.90
-30.80
-27.60
-23.53
-20.08
-18.01
-16.88
-15.53
-12.92
-8.99
-4.68
-1.46
-0.32
-1.22
-3.21
-5.03
-5.98
-6.24
-6.66
-8.19
-11.26
-15.48
-19.99
-23.85
-26.44
-27.68
-27.84
-27.31
-26.40
-25.23
-23.71
-21.62
-18.70
-14.89
-10.44
-5.96
-2.17
0.50
2.22
3.62
5.42
7.77
9.94
10.70
8.99
4.66
-1.27
-7.08
-11.17
-12.80
-12.33
-10.71
-8.89
-7.21
-5.47
-3.22
-0.35
2.71
5.17
6.31
5.88
4.27
2.33
0.93
0.64
1.44
2.74
3.70
3.49
1.72
-1.46
-5.24
-8.45
-9.91
-8.92
-5.60
-0.87
3.88
7.52
9.61
10.58
11.27
12.29
13.59
14.49
14.27
12.78
10.68
9.24
9.50
11.69
15.03
18.16
19.96
20.13
19.25
18.39
18.39
19.43
21.01
22.27
22.59
21.83
20.40
18.91
17.81
17.14
16.54
15.53
13.85
11.63
9.35
7.56
6.62
6.41
6.47
6.23
5.30
3.69
1.75
-0.03
-1.45
-2.59
-3.86
-5.66
-8.10
-10.88
-13.37
-14.95
-15.39
-14.98
-14.50
-14.80
-16.41
-19.23
-22.68
-25.91
-28.30
-29.61
-29.98
-29.78
-29.34
-28.90
-28.52
-28.24
-28.03
-27.90
-27.75
-27.43
-26.72
-25.51
-23.83
-21.90
-20.00
-18.41
-17.29
-16.63
-16.34
-16.21
-15.93
-15.09
-13.27
-10.19
-5.86
-0.63
4.94
10.24
14.88
18.71
21.72
23.82
24.77
24.36
22.66
20.27
18.15
17.23
17.88
19.65
21.42
22.05
21.00
18.68
16.20
14.74
14.85
16.13
17.41
17.44
15.61
12.32
8.81
6.48
6.25
8.03
10.90
13.63
15.34
15.91
15.93
16.27
17.58
19.97
22.98
25.85
27.81
28.28
27.02
24.10
19.82
14.64
8.95
2.97
-3.13
-9.14
-14.47
-18.21
-19.34
