1541859449.00
64.000000
-0.00
-0.00
-0.00
-0.00
-0.00
-0.00
-0.00
-0.00
-0.00
-0.00
0.00
0.01
0.01
-0.00
-0.03
-0.05
-0.05
0.00
0.13
0.36
0.66
1.01
1.37
1.72
2.06
2.40
2.79
3.24
3.80
4.43
5.08
5.70
6.27
6.80
7.35
7.98
8.76
9.80
11.00
12.29
13.53
14.67
15.71
16.78
18.06
19.68
21.91
24.62
27.61
30.62
33.47
36.15
38.90
42.09
46.05
51.26
57.51
64.37
71.30
77.88
84.00
90.01
96.52
104.11
113.53
124.53
136.56
148.76
160.39
171.13
181.22
191.78
201.62
213.46
228.51
247.42
269.07
290.13
305.46
309.51
298.41
271.49
232.04
185.21
136.34
88.86
43.47
-1.16
-46.79
-94.06
-141.85
-187.28
-227.82
-261.64
-289.03
-311.60
-331.49
-350.32
-368.69
-386.48
-402.94
-417.85
-430.86
-440.72
-444.70
-438.69
-419.15
-385.11
-340.23
-292.13
-249.07
-216.24
-193.17
-174.71
-154.65
-129.48
-100.73
-73.51
-53.26
-42.22
-38.04
-35.57
-29.79
-18.86
-4.85
8.09
16.36
19.86
21.93
27.78
40.76
59.86
79.74
92.94
94.20
83.47
66.31
51.13
44.85
49.39
60.78
71.46
74.36
66.57
50.81
33.95
23.03
21.46
27.02
33.11
32.83
23.17
7.63
-5.91
-10.00
-2.41
11.96
23.94
25.35
14.43
-3.31
-18.08
-21.40
-10.66
10.03
31.94
46.82
50.47
44.82
35.93
30.74
33.13
41.47
50.10
52.26
45.00
31.06
18.27
14.81
23.97
41.68
57.97
63.12
52.90
32.03
11.00
-0.05
2.74
14.80
26.52
28.87
19.15
2.01
-13.46
-19.30
-13.07
1.19
15.10
20.79
14.52
-0.99
-18.64
-30.09
-30.43
-20.97
-8.34
-1.28
-4.70
-17.09
-30.33
-35.18
-26.68
-7.93
11.45
21.51
17.27
2.43
-14.09
-22.84
-20.05
-8.92
3.05
8.44
4.47
-6.84
-19.64
-28.38
-29.93
-25.23
-18.43
-14.62
-17.50
-26.47
-36.91
-41.83
-36.52
-21.64
-3.78
7.85
7.55
-3.32
-16.13
-20.88
-12.11
6.69
25.55
34.27
29.08
15.11
2.35
-0.39
8.52
23.54
35.62
38.34
31.24
19.25
9.20
5.61
8.93
15.79
22.13
24.95
23.59
19.58
15.51
13.89
15.91
20.79
25.54
26.01
19.07
4.99
-11.40
-22.72
-22.55
-9.77
10.26
28.02
35.54
31.24
20.94
14.41
18.54
32.95
49.58
57.97
51.89
33.83
13.33
1.29
3.31
15.94
29.87
35.45
29.26
15.94
5.47
6.57
21.21
43.19
61.26
65.57
52.89
28.53
3.25
-12.37
-13.66
-3.34
9.93
17.10
13.64
2.07
-10.11
-15.11
-9.69
2.54
13.70
16.21
8.16
-5.25
-14.55
-12.02
3.24
23.77
37.91
36.20
17.28
-10.86
-34.66
-42.49
-31.36
-8.24
13.22
20.73
10.05
-12.31
-32.89
-38.77
-25.18
2.06
29.39
43.46
38.60
20.24
1.29
-5.56
4.49
25.24
43.41
46.62
31.22
4.87
-17.87
-24.40
-11.83
10.64
27.35
25.44
3.15
-28.75
-52.69
-54.57
-32.46
2.40
31.39
39.72
24.44
-3.77
-27.92
-34.86
-23.07
-2.82
10.95
7.91
-11.37
-36.58
-54.18
-55.67
-41.45
-19.62
-0.46
9.43
9.26
3.09
-3.74
-7.31
-6.53
-2.93
0.37
0.05
-5.91
-16.79
-28.31
-33.83
-27.65
-8.93
16.40
37.70
45.20
36.35
17.79
1.88
-0.88
11.19
29.64
41.02
35.70
14.42
-11.87
-28.77
-27.25
-8.76
15.80
33.23
35.53
23.82
6.23
-7.42
-11.42
-6.79
0.22
2.29
-4.25
-17.01
-28.38
-29.87
-17.02
7.23
33.34
49.91
49.76
33.97
11.25
-6.94
-12.87
-6.01
7.31
18.35
20.62
13.19
0.06
-12.10
-17.97
-16.07
-9.36
-3.60
-3.64
-10.32
-19.06
-22.70
-15.89
0.18
17.57
25.56
17.30
-5.58
-33.26
-53.03
-56.65
-44.44
-25.09
-9.99
-7.27
-17.22
-32.96
-44.18
-42.80
-27.67
-4.97
14.92
23.69
19.75
9.41
2.71
7.34
23.40
43.11
55.74
53.95
37.91
15.10
-4.65
-14.46
-13.91
-8.75
-6.71
-12.59
-24.88
-36.24
-37.08
-21.64
7.85
40.39
61.32
59.85
35.96
0.86
-28.85
-40.19
-31.21
-10.92
6.58
11.69
4.66
-5.57
-8.74
-0.17
15.84
29.47
32.24
22.93
7.97
-2.91
-3.38
5.88
17.92
24.31
20.07
6.30
-11.29
-25.96
-33.34
-32.74
-26.19
-17.19
-9.02
-4.19
-3.55
-5.89
-8.19
-7.06
-1.02
7.70
13.67
11.22
-1.09
-18.46
-31.38
-30.72
-14.02
12.45
36.19
45.58
36.64
15.53
-5.41
-14.82
-9.61
4.08
15.13
15.65
6.35
-3.43
-2.59
13.86
40.07
61.89
65.10
44.40
7.00
-30.91
-53.22
-52.56
-33.58
-9.36
6.59
7.65
-3.51
-18.13
-27.27
-26.98
-19.59
-11.27
-7.56
-10.30
-16.86
-22.52
-23.37
-18.65
-10.99
-4.91
-4.38
-10.81
-22.16
-33.38
-38.46
-33.24
-18.03
1.67
17.27
21.66
13.37
-1.80
-13.73
-13.79
-0.37
19.53
34.60
36.48
25.41
10.05
1.91
7.32
23.62
40.33
46.33
36.39
14.46
-9.39
-24.79
-26.68
-17.03
-2.79
8.56
12.53
9.29
2.68
-1.85
-0.34
7.94
19.11
26.78
25.32
13.83
-2.75
-15.80
-18.28
-8.88
6.21
17.61
18.41
9.27
-2.49
-7.47
-1.19
13.38
27.24
31.68
23.13
5.21
-14.20
-27.51
-31.30
-27.07
-19.62
-13.91
-12.88
-16.16
-20.37
-20.65
-13.25
2.18
20.86
34.67
36.18
23.67
3.18
-14.12
-18.69
-8.53
8.85
21.28
20.19
6.56
-9.73
-16.78
-9.19
8.03
22.95
25.07
12.55
-6.89
-21.32
-22.88
-12.52
1.01
7.48
1.61
-14.02
-31.63
-43.18
-45.16
-39.28
-30.36
-22.73
-18.20
-15.85
-13.70
-10.25
-4.95
1.83
9.30
16.10
20.03
18.81
11.71
0.82
-8.91
-11.98
-5.99
6.33
17.91
21.45
13.95
-0.90
-14.69
-19.12
-11.07
5.71
22.83
32.21
30.37
20.03
7.67
-0.18
-0.44
5.26
11.90
14.37
10.31
1.71
-6.34
-8.39
-2.44
8.53
17.54
17.65
6.03
-13.84
-33.54
-43.82
-39.57
-22.48
-0.05
18.09
24.99
19.39
5.92
-7.73
-14.84
-13.12
-5.65
1.25
2.15
-3.92
-12.56
-16.69
-11.08
3.41
19.61
28.11
23.24
7.26
-10.44
-18.85
-12.66
4.14
20.21
23.99
10.95
-13.11
-35.41
-43.57
-33.24
-10.56
11.46
20.60
12.59
-6.29
-23.29
-26.69
-13.38
9.30
27.33
28.67
10.98
-16.24
-36.69
-36.87
-14.43
20.09
49.37
59.42
48.02
25.02
5.61
0.24
8.59
20.45
24.06
14.27
-3.39
-16.90
-15.80
1.52
26.57
45.56
47.56
30.31
0.83
-28.44
-46.26
-47.65
-35.68
-18.95
-7.38
-7.24
-17.82
-32.04
-40.01
-34.96
-17.50
4.03
18.46
18.47
6.01
-8.82
-14.01
-3.92
17.29
37.54
45.31
36.94
19.01
4.07
2.41
15.51
35.28
49.26
47.94
30.28
3.59
-20.59
-32.69
-29.40
-14.95
1.67
10.88
6.87
-9.06
-29.22
-42.85
-42.20
-26.73
-4.43
12.85
16.39
6.50
-7.34
-12.47
-1.59
21.96
45.59
55.41
45.39
21.46
-1.94
-11.11
-2.23
16.22
28.76
22.92
-2.30
-35.31
-58.48
-59.00
-36.31
-3.16
22.35
27.01
10.26
-16.06
-35.40
-36.53
-20.22
2.50
17.14
15.22
-1.18
-21.71
-34.68
-34.47
-23.73
-11.22
-5.29
-9.17
-19.09
-27.28
-27.06
-16.68
-0.61
13.83
20.07
16.25
5.95
-4.02
-7.75
-3.94
3.84
8.72
5.31
-7.14
-23.37
-34.69
-33.89
-19.63
2.00
20.81
26.98
17.05
-4.27
-26.02
-36.72
-30.51
-9.98
14.85
32.34
34.99
23.62
6.78
-4.28
-2.15
12.15
29.75
38.51
30.54
7.40
-20.01
-36.94
-33.37
-9.86
21.87
45.23
47.67
27.62
-4.18
-30.88
-38.56
-24.06
3.62
28.77
37.95
27.95
7.15
-9.24
-8.60
11.63
41.95
65.89
69.51
49.04
13.80
-19.16
-34.03
-24.91
1.17
28.55
41.28
32.14
5.46
-25.15
-44.95
-45.55
-28.87
-5.41
12.59
17.13
8.88
-5.04
-15.17
-15.57
-6.80
5.44
13.34
12.22
1.96
-12.39
-24.23
-28.27
-23.14
-12.05
-0.27
6.72
6.53
-0.22
-10.01
-18.71
-23.54
-23.55
-20.22
-15.35
-11.01
-7.79
-5.71
-3.92
-1.49
1.73
5.68
9.05
10.59
8.82
3.82
-3.02
-9.12
-11.45
-8.93
-2.40
4.93
9.95
10.76
8.19
4.86
2.92
2.82
2.63
0.41
-3.97
-7.82
-7.49
-1.45
7.66
13.66
10.96
-1.40
-17.84
-28.97
-26.96
-11.00
11.87
30.61
36.55
28.94
14.48
3.56
3.10
12.62
24.71
29.79
22.48
4.69
-14.65
-25.30
-21.40
-5.19
13.75
24.25
19.60
1.92
-18.74
-29.83
-23.37
-0.95
26.99
46.38
47.17
29.00
0.76
-23.71
-33.35
-25.64
-7.07
10.39
16.29
7.10
-12.66
-33.05
-44.55
-42.45
-29.00
-11.09
4.06
11.71
11.52
5.61
-3.19
-13.14
-23.56
-33.31
-40.42
-41.93
-36.10
-23.82
-9.04
2.32
5.78
0.58
-9.21
-16.03
-13.06
2.03
24.63
44.49
51.01
38.70
11.73
-16.96
-32.24
-24.55
3.87
39.79
65.34
67.66
46.03
11.86
-17.24
-26.75
-12.67
17.14
47.30
62.97
56.85
32.02
-0.35
-26.92
-38.59
-34.19
-20.03
-5.50
2.19
1.31
-4.61
-10.29
-12.73
-13.02
-14.77
-20.73
-29.64
-36.36
-35.27
-24.22
-6.81
9.18
15.90
10.02
-5.03
-20.78
-27.84
-20.69
-0.77
24.26
43.59
48.48
36.85
14.42
-7.22
-16.52
-8.04
14.17
37.66
48.26
37.97
10.14
-21.42
-39.93
-34.92
-8.42
25.57
49.16
50.29
29.43
-1.08
-24.59
-29.39
-15.04
8.24
26.40
29.58
17.34
-2.08
-17.75
-22.43
-16.47
-6.61
-0.83
-3.46
-12.74
-22.55
-26.88
-23.41
-14.93
-7.26
-5.14
-9.58
-17.07
-22.00
-20.55
-12.71
-2.72
3.62
2.86
-4.16
-12.02
-14.10
-6.91
7.47
21.46
26.19
17.15
-2.77
-23.46
-32.97
-24.82
-1.90
23.74
37.48
30.68
5.67
-24.54
-43.33
-40.08
-15.57
17.86
43.34
48.95
33.33
6.19
-17.78
-27.30
-19.60
-1.35
16.16
23.77
18.73
5.76
-6.61
-11.42
-6.72
3.36
11.57
12.22
4.13
-8.61
-18.93
-21.34
-14.60
-2.60
7.84
11.23
6.10
-4.31
-13.75
-17.05
-12.46
-2.70
6.54
10.32
6.89
-1.42
-9.27
-11.90
-7.48
1.71
10.35
13.62
9.90
1.65
-5.78
-7.74
-2.96
5.67
12.60
13.45
7.86
-0.38
-5.37
-3.24
5.31
15.32
20.10
15.72
3.88
-9.18
-15.91
-12.28
-0.58
11.92
16.78
9.45
-7.52
-26.17
-37.39
-35.91
-23.55
-7.52
3.65
4.74
-3.18
-14.19
-21.36
-20.65
-13.01
-2.89
4.69
6.82
4.46
1.28
1.24
6.18
14.92
24.08
29.86
30.25
26.31
21.83
21.31
27.26
38.24
48.77
52.04
43.71
25.02
2.99
-13.30
-17.52
-10.30
1.03
6.62
-0.06
-17.84
-38.12
-49.54
-44.74
-25.22
-0.87
15.26
13.98
-4.80
-31.63
-52.47
-56.09
-40.06
-12.09
13.94
25.44
17.63
-3.57
-25.26
-34.67
-26.24
-5.02
16.66
26.21
18.15
-2.37
-22.77
-30.06
-18.53
7.05
34.12
49.31
45.85
26.87
3.30
-12.64
-14.05
-2.95
11.38
18.49
12.84
-2.80
-19.16
-26.49
-20.49
-4.84
10.99
17.65
11.23
-4.21
-19.19
-24.33
-15.70
2.88
22.06
31.90
27.32
11.14
-7.31
-16.78
-10.44
10.02
34.57
49.75
46.13
23.85
-6.88
-31.49
-39.11
-28.87
-10.00
4.23
4.60
-8.29
-24.74
-31.90
-21.91
2.87
31.04
48.24
45.30
23.43
-6.52
-29.56
-34.71
-20.70
3.80
24.90
31.41
20.86
0.46
-17.13
-21.41
-10.15
9.44
25.05
26.68
12.63
-9.59
-27.57
-31.00
-17.66
5.66
26.89
35.10
26.48
5.40
-18.20
-33.81
-35.91
-25.46
-8.84
5.65
12.25
9.45
0.01
-11.06
-19.53
-23.31
-22.91
-20.35
-17.10
-13.17
-7.45
0.91
10.76
18.78
20.80
14.42
1.28
-12.50
-19.26
-13.81
2.97
23.63
37.73
37.41
22.19
-0.45
-19.29
-25.61
-18.42
-4.56
5.85
5.83
-3.89
-15.64
-19.59
-10.20
9.87
31.17
42.82
38.78
21.47
0.35
-13.52
-13.69
-1.90
13.09
20.96
16.02
0.51
-16.54
-25.19
-20.44
-5.44
10.35
17.16
10.59
-5.69
-22.55
-31.00
-27.45
-15.16
-1.81
5.46
4.00
-3.21
-9.92
-10.47
-3.11
9.33
21.09
26.48
22.89
11.96
-1.52
-11.99
-16.13
-14.35
-10.10
-7.90
-10.60
-17.43
-24.65
-27.32
-21.89
-8.68
8.26
22.66
28.88
24.91
13.57
0.99
-6.21
-4.74
3.30
11.97
14.74
8.66
-3.24
-13.93
-16.39
-7.69
8.76
25.14
33.78
31.25
20.60
9.45
5.18
10.75
22.52
32.36
32.73
21.71
4.25
-9.79
-11.76
0.33
20.98
39.71
47.65
42.70
30.22
19.46
17.80
26.01
38.09
45.50
42.02
27.92
9.62
-5.02
-11.30
-10.92
-10.90
-18.78
-37.54
-63.35
-86.23
-95.79
-87.07
-63.04
-34.06
-12.13
-4.65
-11.05
-23.99
-33.65
-33.96
-25.83
-15.69
-12.02
-19.48
-35.86
-53.50
-63.34
-59.76
-44.29
-24.24
-8.37
-2.89
-7.80
-17.45
-24.50
-23.72
-14.56
-1.43
9.70
14.81
13.53
9.98
9.75
15.97
27.77
40.02
46.09
42.04
29.20
13.27
2.43
2.43
13.20
29.33
42.16
44.44
34.57
17.19
0.31
-8.48
-6.39
3.43
14.46
20.15
17.53
9.14
1.03
-0.99
5.51
17.78
29.39
34.23
29.58
17.89
5.37
-1.54
0.09
8.26
17.23
20.99
17.26
8.29
-0.55
-4.55
-2.72
1.55
2.91
-2.71
-14.98
-29.17
-38.85
-39.27
-30.36
-17.11
-6.80
-5.22
-13.84
-28.51
-41.53
-45.78
-37.83
-19.86
1.12
17.00
22.70
18.20
8.29
-0.30
-3.19
-0.31
4.94
7.98
6.48
2.06
-1.54
-1.62
1.62
4.27
1.41
-9.34
-25.38
-40.25
-46.44
-39.97
-23.17
-3.35
10.78
13.58
5.56
-6.78
-14.95
-12.97
-0.24
17.76
32.65
37.55
30.52
15.17
-0.96
-10.64
-10.68
-2.84
7.52
14.62
15.43
11.27
6.33
5.03
9.38
17.22
23.54
23.38
14.87
0.53
-13.19
-19.68
-15.98
-4.17
9.35
17.44
16.22
7.47
-2.91
-8.22
-4.87
4.94
14.85
18.24
12.00
-1.35
-14.75
-21.04
-17.14
-5.46
7.16
13.59
10.45
-0.08
-12.03
-18.97
-17.50
-9.23
0.85
7.76
9.07
6.17
3.14
3.61
8.04
13.76
16.09
11.53
0.25
-13.29
-22.68
-22.89
-13.08
2.08
14.93
19.13
13.10
1.15
-8.75
-10.06
-1.97
10.33
18.14
14.72
-0.38
-20.43
-35.36
-37.22
-24.53
-3.59
15.15
22.85
16.96
2.20
-12.01
-17.16
-10.70
3.11
15.64
19.05
11.01
-3.65
-15.89
-17.85
-7.21
10.95
26.90
31.91
23.15
5.15
-12.50
-20.36
-14.47
1.71
19.27
28.67
24.61
9.08
-10.11
-23.69
-25.68
-16.34
-1.65
10.27
13.78
8.20
-2.27
-11.48
-14.69
-11.25
-4.22
1.65
3.08
0.26
-3.39
-3.97
0.10
6.66
10.94
8.72
-0.15
-11.02
-16.92
-12.76
1.15
18.49
30.23
29.64
16.12
-4.03
-20.85
-25.72
-15.85
4.27
25.06
36.68
33.66
17.67
-3.52
-20.46
-26.75
-22.11
-11.54
-1.87
2.78
2.82
1.96
3.55
7.25
9.00
3.77
-10.42
-29.93
-46.23
-50.33
-37.81
-11.68
18.06
38.78
41.39
25.00
-2.53
-28.21
-40.10
-33.12
-11.43
14.30
32.76
37.47
29.52
15.83
4.34
-0.89
-1.10
-0.79
-4.22
-11.71
-19.00
-19.94
-10.75
7.24
27.31
40.00
38.10
20.47
-6.50
-31.84
-44.59
-39.15
-18.40
7.76
27.34
32.26
21.75
2.58
-15.18
-23.88
-21.72
-12.46
-2.03
5.34
9.50
12.94
17.75
22.75
24.08
17.94
3.67
-14.51
-29.07
-33.18
-24.89
-7.92
10.01
20.78
20.14
9.44
-5.06
-15.86
-17.63
-9.89
2.48
11.73
11.48
0.68
-15.38
-27.27
-26.35
-10.29
14.85
37.32
45.87
35.84
12.12
-13.19
-27.22
-23.51
-4.96
18.34
34.64
36.86
25.87
9.00
-4.73
-9.62
-5.63
2.45
8.35
8.07
2.06
-6.06
-12.00
-13.77
-12.68
-12.44
-16.40
-24.74
-33.85
-38.28
-33.95
-20.99
-4.52
7.70
9.73
0.89
-13.36
-24.05
-23.74
-10.67
9.62
27.09
32.63
23.02
3.05
-16.96
-26.61
-20.89
-3.00
17.81
31.21
31.50
20.43
5.49
-4.84
-6.01
0.23
7.54
9.56
4.25
-4.34
-8.97
-4.13
9.88
26.16
34.50
27.71
6.39
-20.04
-37.98
-36.94
-15.36
17.67
46.58
57.50
45.37
16.48
-15.25
-35.49
-36.51
-20.70
1.70
18.83
23.48
16.07
2.96
-8.17
-12.65
-11.32
-8.56
-8.61
-12.16
-15.64
-13.98
-4.54
10.23
23.10
25.73
13.88
-9.41
-34.48
-49.86
-47.78
-28.17
0.82
26.90
39.58
35.02
17.12
-5.34
-23.38
-31.84
-31.29
-26.37
-21.94
-19.70
-17.06
-9.43
5.97
27.41
47.55
56.76
48.24
22.38
-12.22
-42.40
-56.46
-49.63
-26.49
1.24
20.96
25.59
17.00
4.02
-3.18
1.11
14.40
27.80
31.66
21.85
2.80
-14.76
-20.16
-8.64
15.26
39.71
52.20
45.99
23.72
-4.74
-28.06
-39.12
-38.12
-31.38
-26.31
-26.30
-28.23
-24.72
-9.78
16.31
45.32
64.44
63.70
42.23
10.22
-15.75
-21.78
-4.03
28.27
57.38
66.21
47.37
7.33
-36.90
-66.54
-69.60
-46.19
-8.05
27.86
47.44
45.47
26.48
1.29
-19.20
-29.01
-28.89
-24.37
-21.06
-20.70
-20.82
-17.36
-8.57
2.65
9.89
7.37
-5.68
-23.38
-36.01
-36.04
-22.56
-2.59
12.75
14.43
0.87
-20.87
-38.75
-42.60
-29.74
-6.10
16.96
28.70
24.56
8.13
-11.27
-23.54
-23.21
-11.95
3.46
15.20
18.97
16.06
11.57
10.65
14.75
20.54
22.16
15.64
2.12
-11.76
-17.10
-8.08
14.08
40.57
58.86
59.18
40.29
10.30
-17.00
-29.15
-21.55
0.44
24.27
36.76
31.21
10.48
-15.37
-34.88
-41.20
-34.99
-22.40
-10.54
-3.23
0.59
4.62
11.40
19.53
23.77
18.02
0.03
-26.13
-50.68
-62.59
-55.12
-29.63
4.68
34.51
48.44
42.41
21.29
-3.93
-21.91
-26.61
-19.35
-6.89
3.17
7.03
6.17
5.51
9.25
17.12
23.87
22.71
9.98
-11.63
-33.60
-45.78
-41.81
-22.62
3.50
24.83
32.45
24.29
5.98
-12.94
-24.14
-24.58
-17.16
-8.49
-4.74
-7.81
-14.30
-17.62
-12.44
1.71
19.50
32.41
33.26
20.55
-0.41
-19.93
-28.92
-23.95
-9.20
6.39
14.63
12.84
4.98
-1.73
-1.73
5.18
13.70
16.29
8.33
-8.30
-25.42
-32.75
-23.66
0.54
30.91
54.74
61.57
48.28
20.71
-9.28
-29.65
-34.18
-25.06
-10.22
1.77
6.70
6.29
5.48
8.06
13.45
16.65
11.70
-3.48
-24.47
-41.51
-44.48
-28.60
2.20
36.61
60.80
64.62
46.49
14.03
-19.46
-41.37
-45.53
-34.41
-16.44
-0.54
8.47
11.38
12.05
13.89
16.77
16.96
9.99
-5.72
-26.39
-43.78
-49.03
-37.60
-12.05
18.64
43.09
52.50
44.43
23.48
-1.07
-19.69
-27.31
-25.02
-18.57
-14.15
-13.95
-14.82
-10.70
2.68
24.13
46.19
58.67
53.90
31.43
-0.84
-30.14
-45.15
-41.88
-25.34
-6.17
6.00
8.11
4.58
3.35
9.83
22.79
34.46
35.48
20.92
-5.56
-32.67
-47.07
-40.38
-14.34
19.64
46.15
53.48
39.24
10.95
-18.12
-35.57
-35.54
-20.83
-0.75
13.98
16.96
8.57
-5.21
-17.55
-24.83
-28.17
-31.44
-36.96
-42.68
-42.49
-30.40
-5.44
25.98
51.63
59.52
44.46
12.09
-23.12
-44.85
-42.94
-18.55
16.55
46.17
57.85
48.31
24.23
-2.24
-19.73
-23.08
-14.76
-2.47
5.72
6.24
1.22
-3.75
-4.31
-0.77
1.83
-2.82
-16.96
-35.98
-49.56
-47.20
-24.58
12.77
50.91
73.87
71.46
44.73
5.35
-30.17
-48.61
-46.06
-28.80
-8.77
3.75
5.77
2.53
2.91
12.78
30.17
45.86
48.84
33.28
3.04
-29.68
-50.35
-49.77
-28.57
3.13
30.77
42.55
34.87
13.41
-10.62
-26.96
-31.78
-28.87
-25.90
-28.23
-34.58
-37.66
-29.37
-7.03
23.52
50.15
60.67
49.18
19.30
-17.54
-47.36
-59.86
-52.79
-32.24
-9.04
6.99
12.31
10.94
11.10
19.02
33.84
47.57
50.08
36.20
9.89
-17.29
-32.69
-29.42
-9.99
15.37
34.06
37.33
24.14
1.09
-21.38
-34.39
-35.16
-28.24
-22.38
-24.69
-35.19
-45.70
-44.38
-23.47
14.36
56.01
84.70
89.05
69.19
35.60
2.65
-18.92
-26.10
-22.79
-15.59
-9.43
-5.57
-1.90
4.73
16.04
30.30
42.19
44.50
31.73
4.31
-29.76
-57.44
-67.09
-55.40
-29.94
-4.84
7.66
5.28
-3.39
-5.39
7.18
30.84
52.62
58.50
42.82
12.02
-19.66
-39.01
-41.15
-30.64
-17.03
-7.97
-5.06
-4.64
-1.55
6.70
18.54
29.36
34.15
29.46
14.55
-8.07
-32.57
-50.98
-55.77
-43.89
-19.62
6.54
22.70
22.77
10.54
-2.17
-2.90
12.95
38.07
57.09
56.19
32.34
-4.38
-36.81
-51.47
-46.32
-30.95
-18.99
-18.30
-25.71
-30.21
-21.70
1.11
28.93
47.68
47.38
28.18
-0.44
-25.89
-39.83
-41.43
-35.44
-27.72
-21.36
-16.10
-10.14
-2.18
7.89
19.42
31.55
42.56
49.26
47.53
35.05
14.31
-6.78
-18.34
-14.72
0.91
17.07
20.51
5.21
-22.85
-48.60
-57.08
-42.95
-13.86
14.67
29.23
26.65
14.55
4.69
4.40
12.04
19.17
17.56
5.32
-11.75
-23.90
-23.89
-11.37
6.90
20.72
21.94
8.54
-14.21
-36.12
-46.98
-41.55
-22.43
1.39
19.21
24.38
17.75
6.82
0.95
5.37
17.99
30.46
33.10
20.59
-4.34
-31.71
-48.96
-47.34
-26.77
3.51
29.62
40.32
32.90
14.36
-3.04
-8.90
-0.52
16.27
31.05
34.77
24.61
4.88
-15.60
-28.03
-27.76
-16.57
-1.48
8.89
9.06
0.37
-9.60
-11.46
-0.70
18.06
32.69
30.87
9.00
-24.04
-51.07
-56.86
-37.67
-3.93
26.08
37.48
27.64
6.39
-11.60
-16.81
-10.56
-2.53
-2.62
-13.14
-27.01
-32.95
-23.76
-1.57
23.43
39.24
39.31
25.35
5.10
-12.85
-23.39
-25.71
-21.60
-13.30
-2.71
8.05
16.42
20.38
20.04
17.95
17.54
19.97
22.33
18.92
5.76
-14.96
-34.37
-41.12
-28.78
-1.10
28.75
45.38
40.60
18.76
-5.90
-18.27
-12.23
5.31
19.11
15.90
-6.06
-35.27
-53.95
-49.42
-22.40
13.30
39.25
43.69
27.78
3.36
-15.77
-22.68
-20.22
-17.03
-19.87
-28.31
-35.34
-32.76
-17.37
6.75
30.67
45.69
47.33
36.30
16.93
-4.79
-22.70
-31.22
-27.02
-11.13
10.17
27.21
32.02
23.50
8.65
-1.52
0.38
12.45
23.91
22.19
2.42
-27.80
-51.97
-54.91
-32.86
3.34
34.49
44.80
31.54
5.93
-14.94
-19.52
-8.82
5.28
9.11
-2.87
-24.17
-40.71
-40.48
-21.63
6.42
28.94
35.20
24.65
6.32
-7.42
-9.07
-0.09
10.80
13.81
4.52
-13.41
-30.80
-38.74
-34.00
-20.59
-6.70
0.69
0.09
-4.03
-4.29
4.42
21.37
40.01
51.69
50.54
36.72
16.15
-2.86
-14.35
-17.65
-16.89
-17.45
-21.82
-27.60
-28.84
-20.05
-0.37
24.40
44.10
49.33
36.58
10.47
-18.28
-38.03
-41.71
-29.75
-8.97
11.44
24.43
27.56
22.70
13.79
4.26
-4.24
-11.26
-16.18
-17.63
-14.16
-5.72
5.37
14.82
18.24
13.45
1.98
-11.57
-21.59
-24.19
-18.62
-7.20
6.03
17.14
23.53
24.14
19.23
9.85
-2.14
-14.22
-23.56
-27.52
-24.45
-14.53
-0.01
15.29
27.10
31.96
28.13
16.24
-0.63
-17.76
-30.16
-34.22
-28.79
-15.55
1.57
17.69
28.62
31.91
27.37
16.88
3.73
-8.46
-16.80
-19.80
-17.39
-10.62
-1.23
8.66
16.94
21.59
20.93
14.19
2.36
-11.67
-23.63
-29.37
-26.41
-15.08
1.38
17.96
29.82
34.00
30.30
21.03
9.86
0.06
-7.00
-12.13
-17.29
-23.71
-30.33
-33.85
-30.12
-16.68
4.85
28.44
45.61
49.20
36.85
12.67
-14.09
-32.96
-37.22
-27.33
-10.58
2.57
4.30
-6.06
-21.41
-30.47
-24.43
-2.72
25.82
46.89
48.26
26.73
-9.36
-43.73
-60.23
-51.39
-22.55
10.68
30.44
26.15
0.49
-31.51
-50.19
-41.58
-5.24
44.86
86.83
101.51
81.91
36.63
-14.71
-51.22
-60.56
-44.39
-16.20
6.61
12.01
-0.42
-20.05
-31.62
-23.88
3.98
41.80
73.75
86.57
75.86
47.33
12.54
-17.61
-37.71
-48.63
-54.39
-57.52
-56.83
-49.05
-32.70
-11.18
7.87
16.55
12.02
-0.85
-11.32
-8.72
11.22
43.38
75.08
91.86
84.46
53.36
8.84
-33.68
-60.82
-67.28
-57.74
-43.85
-37.63
-44.45
-59.65
-70.72
-64.21
-33.68
15.42
67.15
101.87
105.47
76.30
25.73
-26.98
-63.30
-72.81
-56.46
-24.34
10.19
36.68
50.52
52.29
44.78
30.29
10.15
-13.65
-36.53
-51.18
-50.24
-30.58
3.51
40.58
66.25
69.64
48.95
12.91
-23.33
-45.60
-47.51
-33.26
-14.65
-4.00
-7.08
-19.74
-30.67
-28.42
-8.79
21.97
49.97
61.07
48.57
17.07
-20.18
-48.04
-56.85
-46.33
-24.15
-0.74
16.52
26.17
31.13
34.23
34.46
26.71
5.51
-29.72
-71.21
-104.17
-112.71
-87.70
-32.18
38.38
101.42
136.14
131.81
92.33
34.44
-19.34
-50.03
-49.93
-25.05
8.84
34.75
42.93
34.68
19.63
8.47
6.11
9.36
10.49
3.72
-9.69
-22.26
-25.61
-16.72
-0.64
12.36
13.50
1.49
-16.13
-26.98
-21.26
2.00
33.46
57.36
59.13
32.68
-15.89
-70.32
-110.77
-122.32
-101.07
-55.46
-2.10
41.95
66.42
70.67
61.02
45.11
26.75
4.99
-22.53
-54.52
-82.97
-95.63
-82.50
-42.81
12.22
62.83
89.89
84.23
51.30
8.22
-25.18
-36.37
-25.69
-4.77
10.91
11.05
-3.91
-23.98
-36.02
-31.79
-12.68
11.44
28.33
30.58
19.74
4.51
-5.49
-6.13
-1.36
-0.22
-10.21
-30.97
-52.79
-61.15
-44.78
-2.73
53.76
105.46
133.74
128.54
92.46
38.53
-16.25
-57.98
-80.43
-85.05
-77.62
-63.49
-44.64
-19.83
12.31
49.77
85.33
108.07
107.66
79.46
28.11
-33.16
-87.02
-118.63
-121.22
-98.28
-61.04
-22.57
8.18
29.54
45.29
59.77
72.98
78.86
68.65
37.00
-12.20
-65.21
-103.35
-111.62
-86.18
-36.76
17.69
58.03
73.45
64.97
42.08
15.89
-7.12
-26.83
-46.06
-65.17
-78.64
-76.89
-52.05
-4.21
55.98
110.00
139.23
133.15
94.29
37.03
-18.83
-56.42
-68.24
-57.69
-35.47
-13.11
3.06
13.81
24.25
38.23
54.08
64.28
59.84
36.61
-0.40
-38.11
-61.76
-62.64
-42.91
-14.48
7.55
13.21
2.86
-13.79
-24.17
-20.60
-4.70
13.86
23.59
18.24
0.78
-18.55
-28.44
-23.43
-7.27
9.21
14.50
3.39
-19.59
-42.32
-51.95
-42.17
-17.03
11.12
28.28
26.48
8.20
-15.05
-29.29
-25.75
-5.57
21.04
40.73
44.41
32.15
12.49
-3.40
-8.81
-5.57
-2.49
-9.15
-28.80
-54.67
-72.61
-68.50
-36.50
16.70
73.90
114.93
125.88
105.11
62.97
15.56
-23.44
-48.40
-62.18
-71.35
-79.99
-85.67
-80.45
-56.24
-11.23
46.64
101.57
136.50
140.98
116.03
73.37
29.05
-4.49
-23.72
-33.94
-44.12
-60.01
-79.42
-93.02
-90.00
-65.29
-23.66
21.55
54.72
65.63
54.28
30.10
6.13
-8.10
-10.99
-8.57
-9.44
-18.58
-33.53
-45.32
-44.00
-25.35
5.19
34.21
46.96
35.35
2.91
-36.31
-64.59
-69.22
-48.41
-11.69
25.58
50.14
57.10
51.24
42.90
41.14
48.02
57.30
58.14
42.03
8.68
-32.55
-67.01
-82.22
-74.55
-51.01
-24.84
-7.79
-3.49
-6.06
-5.04
6.83
27.98
48.17
54.53
39.72
7.26
-29.38
-53.65
-54.41
-31.52
4.27
37.21
54.65
53.01
38.75
23.70
17.84
23.39
33.46
36.17
21.89
-10.35
-51.19
-85.22
-98.79
-87.13
-56.64
-21.07
6.09
18.60
19.72
18.34
22.04
31.55
39.99
37.68
19.14
-11.79
-42.50
-57.66
-47.45
-13.43
31.36
68.50
83.27
71.79
42.50
10.73
-10.09
-15.54
-11.74
-10.45
-20.87
-43.26
-68.33
-82.84
-77.50
-52.69
-18.28
12.17
28.92
31.14
26.43
25.23
33.79
49.95
64.01
64.51
45.09
9.16
-31.07
-60.56
-68.99
-56.11
-31.66
-9.75
-1.08
-7.14
-19.54
-25.37
-15.05
11.64
44.68
68.79
71.61
50.54
14.13
-22.75
-46.87
-53.34
-47.05
-38.27
-35.55
-40.03
-45.15
-41.42
-23.21
6.95
39.19
61.68
67.12
56.76
39.41
26.12
23.81
31.56
41.18
42.20
28.10
0.60
-30.63
-52.86
-57.09
-42.88
-18.53
3.48
13.37
9.37
-1.48
-7.79
-0.63
20.81
48.08
67.49
67.42
44.96
8.01
-28.75
-51.61
-55.10
-44.49
-31.89
-28.35
-36.74
-49.81
-55.01
-42.75
-13.06
23.58
51.88
60.29
47.60
23.42
2.30
-4.73
3.84
19.59
29.62
24.32
3.09
-25.38
-48.25
-55.71
-46.15
-26.24
-6.39
5.50
8.36
7.85
12.01
25.67
46.99
67.90
78.33
71.74
49.07
18.93
-6.47
-17.45
-12.03
2.81
14.69
12.56
-6.87
-36.84
-64.12
-76.47
-69.55
-49.40
-28.71
-19.16
-24.33
-37.77
-47.40
-43.36
-24.33
1.46
21.28
25.71
14.58
-2.62
-12.46
-5.55
17.67
46.63
66.38
65.88
44.40
12.36
-14.07
-21.69
-7.50
19.42
42.69
47.32
28.03
-7.83
-44.45
-66.32
-66.60
-50.28
-30.30
-19.30
-21.70
-31.01
-34.35
-20.96
10.24
48.94
78.51
85.19
65.84
29.85
-6.39
-28.58
-31.92
-22.79
-13.71
-15.05
-28.39
-45.55
-53.79
-43.85
-15.80
20.60
51.10
64.61
58.71
40.14
20.01
7.09
3.31
3.77
1.08
-8.99
-23.98
-35.47
-33.93
-14.70
18.46
54.38
79.52
84.48
68.57
39.94
10.89
-8.58
-15.55
-14.83
-15.07
-22.80
-37.70
-52.16
-55.41
-40.13
-7.57
31.77
62.55
72.11
56.91
24.42
-10.95
-35.57
-43.34
-38.20
-30.56
-30.27
-39.98
-53.19
-58.28
-46.00
-15.99
21.85
52.14
62.23
49.22
21.84
-4.35
-15.52
-7.12
13.58
31.59
32.72
11.90
-23.60
-58.01
-75.79
-70.12
-46.33
-18.29
0.02
2.61
-5.25
-11.10
-3.53
20.13
51.45
75.43
79.09
59.30
25.11
-7.01
-22.31
-15.84
4.70
23.50
25.82
6.51
-26.86
-58.41
-73.02
-64.78
-39.84
-12.31
4.38
5.28
-3.57
-9.49
-1.54
22.15
52.49
74.18
74.35
50.17
11.23
-25.46
-44.53
-40.43
-20.32
0.45
7.24
-5.48
-31.27
-56.09
-66.93
-59.10
-38.25
-16.03
-2.55
-0.39
-3.88
-3.78
6.18
25.00
45.08
56.93
55.15
41.79
25.45
16.26
20.19
35.57
53.74
63.65
57.78
36.41
8.07
-14.62
-21.62
-10.96
9.65
26.48
27.01
6.87
-27.28
-61.21
-80.78
-79.58
-61.97
-39.95
-25.66
-23.99
-29.80
-31.74
-19.98
6.92
40.06
64.90
69.47
51.67
21.22
-5.39
-13.83
0.03
27.55
51.88
57.34
38.08
1.52
-36.07
-58.89
-60.33
-46.00
-29.43
-23.28
-31.54
-47.43
-58.14
-53.07
-30.35
2.07
31.36
47.08
46.79
36.76
27.51
27.16
36.61
48.85
52.98
40.70
11.54
-25.97
-58.18
-73.25
-67.05
-45.26
-19.94
-2.74
1.42
-3.10
-6.04
1.86
22.38
47.57
63.62
58.57
29.75
-13.65
-54.78
-77.52
-74.53
-50.57
-18.83
6.84
19.68
22.84
25.94
37.69
59.50
83.77
97.94
91.84
63.86
22.35
-18.70
-46.98
-57.81
-55.68
-50.49
-50.85
-58.47
-66.70
-64.60
-43.96
-5.36
40.52
77.31
91.05
77.62
45.06
9.12
-15.30
-21.84
-15.30
-7.37
-8.52
-20.89
-36.79
-43.81
-33.12
-5.54
28.07
52.80
57.97
42.92
17.24
-4.96
-13.28
-6.70
5.99
11.54
0.12
-28.49
-64.06
-91.07
-96.74
-77.88
-42.16
-3.51
25.68
40.90
46.84
52.87
65.93
85.13
101.53
103.01
81.55
38.84
-13.21
-57.76
-81.23
-79.92
-61.64
-40.90
-30.63
-35.07
-47.79
-56.32
-50.26
-27.83
2.87
28.65
38.90
31.60
14.18
-1.43
-5.89
2.12
15.43
23.02
16.73
-3.40
-28.48
-45.42
-44.13
-23.43
8.05
36.31
49.59
44.48
27.20
9.03
-0.88
-0.77
3.31
2.19
-9.82
-30.55
-50.44
-57.73
-45.13
-14.25
24.82
58.33
75.63
73.97
59.28
42.03
30.97
28.21
28.28
21.86
1.89
-31.16
-68.40
-96.51
-104.52
-89.47
-57.75
-21.42
8.30
26.50
36.01
43.91
55.71
70.86
82.39
80.96
60.86
24.61
-17.03
-49.75
-62.68
-53.79
-30.63
-6.09
8.59
9.48
1.24
-6.63
-6.35
3.17
15.50
20.69
11.49
-11.64
-40.04
-61.17
-65.13
-49.79
-21.65
7.99
29.13
38.09
38.70
38.98
45.28
57.55
68.38
66.80
44.71
2.69
-48.58
-92.47
-114.12
-107.38
-77.41
-37.48
-1.90
20.66
30.01
31.89
32.41
33.28
30.99
20.17
-1.09
-27.77
-48.94
-52.95
-33.89
4.65
50.48
88.13
105.70
99.75
76.10
46.05
20.28
3.79
-5.52
-14.00
-26.98
-44.19
-59.13
-62.88
-50.19
-23.76
5.89
25.32
25.10
5.01
-25.59
-52.69
-64.74
-58.14
-38.13
-14.87
2.76
11.88
16.48
23.82
38.74
59.45
77.16
80.18
60.38
18.61
-34.22
-81.41
-107.77
-106.43
-81.29
-44.08
-7.91
18.98
36.02
48.02
59.78
71.35
76.85
67.91
39.67
-4.25
-51.58
-86.32
-96.43
-79.75
-45.00
-7.02
20.79
32.56
31.33
25.23
21.27
20.86
19.65
11.66
-5.33
-26.53
-41.52
-39.65
-16.39
23.01
64.69
91.62
91.26
61.41
11.64
-40.75
-78.42
-91.32
-80.22
-54.68
-27.02
-5.82
7.18
15.29
22.13
27.52
26.96
15.31
-8.06
-36.27
-56.65
-56.92
-31.91
12.64
61.77
97.68
107.49
88.88
50.78
9.00
-21.13
-31.20
-22.49
-3.77
14.22
24.54
26.81
25.31
24.25
23.41
17.54
0.13
-30.80
-68.69
-99.63
-108.95
-89.49
-46.52
3.56
40.61
50.19
30.31
-8.03
-46.60
-68.67
-66.05
-41.30
-4.64
31.86
59.70
76.09
82.42
81.01
72.53
55.85
30.52
-0.30
-28.70
-44.23
-38.77
-11.77
27.59
62.82
76.86
60.00
15.24
-41.83
-89.18
-108.14
-91.90
-48.79
1.40
36.66
42.97
20.30
-18.34
-54.28
-72.46
-67.93
-46.31
-18.97
3.76
17.10
21.74
20.75
16.01
7.23
-6.09
-21.51
-32.58
-31.05
-11.74
22.96
62.26
90.87
96.07
74.26
33.63
-8.94
-35.40
-35.09
-9.84
26.86
56.20
63.17
43.78
7.02
-29.89
-50.22
-46.12
-22.32
6.80
25.00
22.88
2.51
-24.32
-43.09
-44.71
-30.25
-9.66
4.34
3.57
-11.24
-31.55
-46.35
-48.30
-37.31
-19.68
-3.81
4.64
5.15
1.60
-1.18
-0.48
3.10
7.03
9.33
10.27
12.13
16.98
24.49
31.26
32.61
25.78
12.36
-1.62
-8.43
-2.91
14.15
35.85
51.98
54.22
40.48
16.42
-6.98
-18.87
-14.11
3.93
24.79
36.20
30.69
9.77
-16.46
-34.48
-34.81
-17.37
8.03
26.66
26.99
7.26
-23.14
-48.44
-55.22
-39.93
-11.28
14.30
21.73
5.75
-25.59
-55.20
-66.42
-52.34
-20.12
12.71
28.09
17.51
-12.87
-45.74
-62.61
-54.33
-26.27
4.78
20.61
12.11
-15.40
-45.22
-58.89
-46.49
-12.01
28.90
57.74
63.11
46.50
20.99
3.55
5.63
27.07
56.18
76.36
75.13
51.06
14.43
-18.47
-34.09
-28.58
-9.36
9.52
15.47
4.21
-18.30
-39.74
-48.45
-39.50
-17.06
8.36
25.70
29.15
20.70
8.27
0.96
3.91
15.46
28.17
33.21
25.74
8.01
-11.72
-23.79
-22.75
-10.80
3.12
8.36
-1.15
-22.98
-47.27
-61.86
-58.81
-38.85
-10.85
13.09
24.47
23.01
16.13
13.99
22.66
39.67
55.20
58.13
43.75
17.90
-5.62
-13.10
0.05
25.57
46.50
47.32
24.03
-12.92
-44.61
-55.48
-42.89
-18.64
-1.17
-3.20
-23.44
-47.52
-57.68
-44.85
-14.61
16.45
31.72
25.56
6.59
-8.30
-5.64
15.44
42.75
58.84
52.56
26.15
-6.42
-28.60
-31.60
-19.28
-4.70
-0.73
-11.50
-30.12
-43.70
-42.24
-25.17
-1.35
17.06
22.39
15.68
5.10
-0.09
4.58
16.55
28.72
34.18
29.73
16.56
-1.41
-19.74
-34.35
-41.96
-40.47
-30.26
-15.33
-2.66
1.01
-6.31
-19.81
-29.78
-27.76
-12.50
8.36
22.90
22.94
10.26
-4.01
-6.83
7.53
32.91
55.01
60.75
47.18
23.19
3.42
-1.90
6.45
18.05
20.50
8.12
-14.68
-36.94
-48.61
-46.70
-35.82
-23.96
-17.05
-16.15
-18.47
-20.26
-19.15
-14.49
-6.28
5.26
18.81
31.26
38.25
36.99
29.00
20.43
18.61
26.57
39.81
48.03
41.81
19.64
-9.66
-31.64
-35.52
-21.47
-1.01
10.50
4.02
-17.14
-39.85
-50.33
-43.42
-25.34
-8.54
-2.86
-9.03
-19.23
-23.27
-15.93
0.20
17.37
27.94
28.79
21.91
12.28
4.95
3.27
8.48
19.17
31.30
38.72
35.89
21.47
0.52
-17.20
-22.98
-14.99
-0.33
9.20
5.05
-12.10
-32.52
-44.13
-40.76
-25.98
-10.32
-4.06
-10.62
-25.13
-38.13
-41.65
-33.30
-16.65
1.54
14.93
20.25
18.35
13.44
10.97
14.75
24.38
34.79
38.91
32.31
16.88
0.53
-7.51
-2.75
11.58
26.35
32.51
26.62
12.67
-0.71
-5.71
0.27
13.68
27.04
32.80
27.10
11.63
-6.90
-19.92
-21.41
-11.70
2.19
10.34
5.96
-9.81
-28.44
-39.52
-37.66
-25.92
-13.72
-10.46
-19.50
-36.23
-50.95
-54.78
-44.40
-23.48
-0.55
15.11
18.01
8.82
-5.81
-16.70
-17.05
-6.54
8.43
18.58
17.84
7.31
-5.39
-11.36
-6.17
7.45
21.65
28.59
25.02
14.02
2.84
-1.32
4.73
18.73
33.98
42.87
40.96
29.46
14.92
5.39
5.60
13.96
23.77
27.57
22.32
11.28
1.60
-0.70
5.45
15.81
23.62
23.70
14.89
0.43
-13.53
-20.65
-16.99
-3.34
14.17
26.01
23.90
6.08
-20.51
-43.27
-51.34
-42.56
-25.07
-11.94
-12.31
-25.31
-41.01
-47.79
-40.56
-23.97
-8.88
-5.01
-14.60
-31.64
-45.69
-48.32
-37.23
-16.74
4.80
19.14
21.55
12.96
-0.44
-9.99
-8.94
3.30
20.23
31.67
30.16
16.22
-1.47
-11.57
-7.43
8.73
27.37
37.99
35.49
22.82
8.54
1.41
5.56
18.87
34.67
45.18
45.36
35.17
19.70
6.57
1.91
6.60
15.69
21.46
18.56
8.12
-2.95
-6.78
-0.19
12.84
23.52
24.12
12.65
-5.80
-22.11
-28.26
-21.45
-5.32
12.01
21.81
18.89
4.19
-15.60
-31.42
-36.74
-31.21
-20.66
-13.41
-14.83
-23.86
-33.60
-35.87
-26.43
-8.04
10.90
20.94
16.59
-0.46
-22.10
-37.89
-40.67
-30.01
-12.52
1.96
5.84
-2.00
-15.48
-25.05
-23.22
-9.38
9.77
23.96
25.31
13.12
-5.69
-20.43
-23.17
-13.05
3.25
15.73
17.10
7.00
-7.70
-17.11
-14.09
1.19
21.20
35.27
35.67
21.95
1.09
-16.68
-23.72
-18.61
-6.41
4.82
8.69
4.10
-4.29
-9.04
-4.61
8.64
24.14
32.79
28.57
12.40
-8.09
-22.92
-25.21
-14.75
2.28
16.84
22.11
17.11
6.78
-1.25
-1.78
4.72
12.48
14.35
6.62
-8.54
-23.96
-31.65
-27.15
-12.19
5.93
18.12
18.19
6.57
-9.85
-21.61
-22.14
-11.39
4.34
16.26
18.11
9.49
-3.88
-13.60
-13.16
-1.62
15.74
30.30
34.92
28.08
14.35
1.40
-4.61
-2.11
5.50
12.32
13.62
8.77
1.77
-1.22
4.27
17.38
31.61
38.13
31.13
11.60
-12.65
-31.12
-36.15
-26.88
-9.66
5.41
9.97
1.95
-13.37
-26.82
-31.24
-25.60
-15.37
-8.54
-10.65
-21.27
-34.18
-40.84
-35.26
-17.53
5.76
24.94
32.45
27.07
14.22
2.33
-1.89
3.14
13.72
23.51
27.25
23.57
15.81
9.62
9.32
14.98
22.21
24.81
18.63
4.18
-13.05
-25.22
-26.43
-16.18
-0.44
11.18
10.62
-3.73
-26.02
-46.31
-56.04
-52.35
-38.81
-22.65
-10.37
-4.33
-1.87
2.14
11.33
25.00
38.14
44.50
40.23
26.47
9.21
-3.29
-4.76
5.67
22.38
35.68
36.93
23.40
-0.14
-24.02
-38.79
-40.15
-30.64
-17.56
-8.81
-8.33
-14.44
-21.50
-23.88
-19.42
-10.42
-1.81
2.37
1.08
-2.80
-4.48
-0.44
9.41
21.15
28.99
28.51
19.47
6.29
-3.91
-5.42
2.69
15.72
25.69
25.65
13.88
-4.79
-21.31
-27.17
-19.52
-2.86
13.61
21.16
16.41
3.14
-10.06
-14.82
-7.73
7.57
22.65
29.36
24.05
9.61
-6.44
-15.98
-14.65
-3.94
9.81
19.09
19.47
11.74
1.17
-6.00
-6.23
-0.95
4.54
4.46
-3.48
-16.33
-27.20
-29.34
-20.45
-4.57
9.62
13.64
4.13
-14.80
-33.72
-42.88
-37.55
-20.81
-1.90
8.94
6.12
-8.20
-25.49
-35.81
-33.31
-19.34
-1.30
11.65
14.00
6.81
-3.29
-8.24
-3.34
10.07
25.52
35.30
34.90
25.51
13.06
4.38
3.20
8.15
13.96
15.04
9.15
-1.21
-10.22
-12.45
-6.25
4.94
14.36
15.86
7.60
-6.64
-19.32
-23.47
-16.71
-2.71
10.84
16.51
11.52
-0.60
-12.13
-15.49
-7.89
7.06
21.43
27.43
21.72
7.45
-7.54
-15.20
-11.57
0.80
14.29
20.65
15.56
1.15
-15.10
-24.59
-22.29
-9.70
5.88
15.57
14.24
2.97
-11.89
-22.39
-23.43
-15.05
-2.18
8.52
12.57
10.01
4.71
1.53
3.59
10.35
18.11
22.08
19.20
10.19
-0.55
-7.69
-7.99
-2.40
4.10
5.47
-1.68
-15.54
-29.65
-36.41
-31.49
-16.54
1.55
14.19
15.97
7.57
-4.78
-12.99
-11.87
-2.03
10.68
18.68
17.11
6.79
-6.28
-14.46
-12.70
-1.66
12.66
22.34
22.11
12.09
-2.43
-14.22
-18.26
-14.06
-5.61
1.42
3.39
0.68
-3.02
-3.33
1.93
11.26
20.28
24.17
20.39
10.42
-0.88
-8.15
-8.02
-1.01
8.83
15.99
16.23
9.27
-1.02
-9.00
-10.41
-4.84
4.05
10.61
10.49
3.57
-5.58
-10.55
-7.30
3.03
14.60
20.21
15.55
2.14
-13.01
-21.61
-19.08
-7.47
5.89
12.91
9.35
-2.72
-16.02
-22.66
-18.90
-7.36
4.64
9.72
4.60
-8.00
-20.86
-26.31
-20.66
-6.56
8.29
15.57
10.74
-4.34
-22.18
-33.52
-32.34
-19.40
-1.94
10.55
11.52
1.06
-14.15
-24.67
-23.69
-11.14
6.18
18.61
19.56
9.14
-5.89
-16.17
-15.07
-2.38
15.47
29.16
31.90
22.88
7.24
-6.94
-13.11
-9.37
0.81
10.92
15.04
11.39
2.83
-5.02
-6.94
-1.24
9.37
19.37
23.31
19.36
10.38
1.83
-1.37
2.05
8.95
13.78
12.07
3.59
-7.06
-13.29
-10.69
0.16
13.72
22.52
21.46
10.77
-3.76
-14.13
-14.95
-6.51
5.50
13.45
11.96
1.02
-13.68
-24.06
-24.29
-14.38
-0.28
9.70
9.29
-2.07
-18.47
-30.93
-32.45
-22.23
-6.09
7.21
10.82
3.69
-8.76
-18.10
-17.94
-7.86
6.55
17.33
18.79
10.84
-0.87
-8.59
-7.09
3.07
15.89
23.53
20.95
8.91
-6.13
-15.77
-14.62
-3.40
11.37
21.07
19.92
8.09
-8.35
-20.97
-23.87
-16.67
-4.50
5.24
6.94
-0.16
-11.65
-20.83
-22.51
-15.84
-4.63
4.90
7.41
1.60
-8.91
-17.78
-19.55
-12.60
-0.02
11.96
17.43
14.23
5.27
-3.36
-5.90
-0.16
11.23
22.40
27.70
25.07
17.08
9.30
6.99
12.06
22.03
31.33
34.41
28.85
16.58
2.97
-6.09
-7.22
-1.26
7.38
13.29
13.16
7.83
1.85
0.32
5.68
15.66
24.30
25.64
17.47
3.29
-9.48
-14.00
-8.12
3.71
12.90
11.85
-1.38
-21.43
-38.50
-43.81
-35.03
-17.80
-2.67
0.74
-10.29
-30.06
-47.70
-53.37
-44.06
-25.15
-7.17
0.62
-4.28
-16.38
-25.85
-24.79
-11.68
7.49
22.78
26.43
17.02
0.21
-14.71
-19.84
-12.87
1.84
16.09
22.62
18.91
8.00
-3.18
-8.02
-3.99
6.00
15.52
18.23
11.44
-1.83
-14.57
-19.63
-14.33
-1.83
10.30
14.18
6.43
-9.48
-25.12
-32.29
-27.12
-12.49
3.60
13.03
12.28
4.04
-4.87
-7.63
-1.58
10.37
21.60
25.94
21.13
9.98
-1.08
-5.80
-1.92
7.36
15.14
14.79
3.99
-13.29
-28.83
-34.84
-28.42
-13.28
2.32
10.36
7.84
-1.81
-10.93
-12.58
-4.46
9.77
22.76
28.07
23.70
13.03
2.80
-0.86
3.87
13.51
21.34
21.22
11.29
-4.51
-18.55
-23.79
-17.72
-3.83
10.35
17.45
14.59
4.72
-5.19
-8.55
-2.78
9.19
20.67
25.38
20.88
10.00
-0.76
-5.08
-0.55
9.82
19.26
21.30
13.57
-0.43
-13.45
-18.61
-13.59
-2.08
8.50
11.15
3.50
-10.83
-24.18
-29.43
-23.87
-10.78
2.43
8.17
3.20
-9.74
-23.39
-30.14
-26.36
-14.53
-1.93
4.06
0.32
-9.96
-19.39
-20.82
-11.82
4.08
19.92
29.59
31.27
28.20
26.06
29.09
37.48
47.16
52.43
49.29
38.09
23.64
12.93
11.48
20.39
35.43
48.95
53.67
46.48
30.26
12.49
0.99
-0.33
6.15
12.98
11.81
-1.43
-23.54
-45.57
-57.51
-54.26
-38.98
-21.87
-14.10
-21.33
-40.16
-59.85
-68.71
-61.26
-41.80
-21.69
-12.67
-19.90
-38.52
-56.67
-62.79
-52.60
-31.39
-11.26
-3.62
-12.41
-31.91
-50.21
-56.11
-45.35
-23.19
-0.51
12.49
11.77
1.65
-8.43
-9.92
-0.36
15.72
29.23
32.24
22.91
6.49
-7.73
-11.44
-2.03
15.64
32.37
39.75
34.47
20.34
5.88
-0.84
3.16
14.48
25.12
27.74
20.12
6.35
-5.75
-9.19
-2.04
11.41
23.72
28.65
24.86
16.70
11.14
13.15
22.51
33.83
39.58
34.73
19.96
1.56
-11.96
-14.34
-5.19
9.60
21.18
22.39
11.67
-5.63
-20.62
-25.98
-19.83
-6.66
5.25
9.13
3.66
-6.62
-13.90
-11.89
0.08
16.77
30.03
32.85
23.68
7.53
-6.99
-12.10
-4.70
11.53
28.29
37.04
33.09
18.35
0.29
-12.35
-14.54
-7.26
3.26
9.41
7.11
-1.73
-10.59
-12.46
-4.29
10.57
24.40
29.41
22.12
5.73
-11.70
-21.82
-20.75
-11.02
-0.06
4.37
-1.17
-13.83
-26.08
-30.17
-22.80
-7.45
7.65
13.90
7.29
-8.87
-25.85
-34.33
-29.64
-14.25
3.58
14.89
15.03
6.22
-4.02
-7.53
-0.40
14.55
29.34
35.40
28.68
12.34
-4.79
-12.89
-6.46
12.36
34.70
49.65
49.89
35.67
14.61
-2.84
-9.39
-4.85
4.24
9.01
4.15
-8.70
-21.83
-26.63
-18.97
-2.39
13.88
20.00
11.47
-7.87
-27.75
-37.08
-30.24
-10.26
12.58
26.46
24.38
8.07
-13.40
-28.87
-31.48
-22.60
-10.76
-6.05
-13.92
-31.57
-48.94
-54.85
-43.67
-18.92
8.09
24.23
22.16
4.24
-18.81
-33.92
-33.29
-19.04
-1.24
7.78
0.87
-19.28
-42.13
-55.54
-52.66
-36.00
-15.74
-3.27
-4.73
-17.78
-32.84
-39.40
-32.32
-14.30
5.16
15.56
11.58
-4.15
-22.66
-33.42
-30.47
-15.40
4.37
19.30
23.34
17.29
7.41
1.79
5.70
18.07
32.65
42.36
43.20
37.41
31.89
33.47
44.63
61.78
76.59
81.29
73.22
56.03
38.30
28.28
29.06
37.21
44.39
42.06
26.69
2.28
-21.37
-33.11
-26.63
-4.74
21.77
38.67
35.82
13.11
-19.71
-48.21
-61.03
-56.47
-42.75
-32.54
-35.47
-51.88
-72.88
-86.15
-83.41
-65.70
-42.81
-26.92
-25.20
-35.44
-47.47
-49.94
-37.24
-12.85
12.79
28.83
30.35
20.61
8.72
3.74
9.50
22.80
35.74
40.49
34.02
19.92
6.17
1.04
8.40
25.36
44.27
56.22
56.05
45.31
30.93
21.44
22.31
32.45
45.18
52.49
49.16
36.33
20.49
9.23
6.98
12.34
18.61
18.24
7.59
-10.85
-28.82
-37.44
-32.74
-18.21
-3.85
-0.82
-14.70
-41.97
-71.40
-89.39
-87.53
-67.42
-39.49
-18.04
-13.49
-26.53
-48.59
-66.96
-71.84
-62.30
-45.79
-32.47
-28.97
-33.71
-38.18
-33.03
-14.29
14.00
41.27
57.02
56.87
44.32
29.17
21.36
25.47
38.98
53.85
61.36
57.25
43.81
28.56
20.19
23.34
36.10
50.86
58.56
53.85
38.24
19.18
5.38
2.02
7.58
15.08
16.46
7.46
-9.64
-27.27
-36.96
-34.24
-20.89
-4.18
6.97
7.01
-3.53
-18.45
-29.00
-29.06
-18.20
-1.78
11.72
15.88
9.83
-1.37
-9.33
-7.76
3.85
19.79
30.92
30.21
16.99
-2.52
-18.21
-22.02
-12.50
4.68
19.59
24.11
16.64
2.69
-8.40
-9.39
0.15
13.93
22.70
20.11
7.28
-8.16
-16.66
-12.53
2.01
18.42
26.91
22.13
6.52
-11.74
-23.68
-24.54
-16.71
-7.57
-4.96
-12.64
-27.77
-42.90
-50.15
-45.50
-31.58
-16.06
-7.55
-10.98
-24.25
-39.48
-47.49
-42.67
-27.05
-9.21
0.82
-3.05
-18.66
-36.91
-47.27
-43.33
-26.98
-7.03
6.49
7.60
-1.89
-14.18
-20.68
-16.63
-3.93
10.67
20.23
21.29
15.92
9.69
7.82
12.46
21.27
29.42
32.74
29.88
23.41
17.80
16.57
20.61
27.32
32.40
32.54
27.00
18.53
11.45
9.17
12.57
18.91
23.69
23.25
16.56
6.52
-2.08
-5.10
-1.17
7.03
14.76
17.92
15.17
9.20
4.49
4.74
10.68
18.99
24.69
23.88
16.02
4.92
-3.84
-5.76
-0.25
8.36
13.54
9.88
-3.30
-20.69
-33.86
-35.44
-23.52
-3.63
14.19
20.18
10.22
-11.59
-35.20
-49.64
-48.73
-34.17
-14.13
1.20
5.07
-2.42
-14.89
-23.63
-22.56
-11.58
3.43
14.04
14.16
3.52
-12.07
-24.14
-26.57
-19.07
-7.18
1.19
0.73
-7.45
-16.75
-18.83
-9.08
9.79
28.93
38.06
31.52
12.11
-10.08
-23.14
-19.77
-1.66
21.38
36.85
36.27
19.73
-4.46
-24.67
-32.49
-26.74
-13.30
-0.98
4.11
1.40
-4.57
-7.67
-4.61
3.16
10.51
12.03
5.87
-4.51
-12.13
-10.37
2.82
23.25
41.95
49.72
41.88
20.89
-4.36
-23.43
-29.12
-20.81
-4.76
10.06
16.41
12.47
2.23
-7.59
-11.69
-9.14
-3.59
-0.54
-3.43
-10.92
-17.57
-17.18
-7.00
9.75
25.26
31.34
24.32
7.91
-8.65
-15.58
-8.04
10.74
31.08
42.12
37.54
19.09
-4.53
-22.47
-27.65
-20.02
-5.87
6.18
10.48
6.89
0.23
-3.14
0.25
9.22
18.69
22.84
19.21
10.15
2.10
1.69
11.85
30.27
49.66
61.84
61.54
49.26
31.07
14.94
7.12
8.64
15.32
21.01
21.01
15.47
8.49
5.49
9.26
17.36
23.76
21.87
8.87
-11.98
-33.09
-46.36
-47.98
-40.59
-31.77
-29.99
-39.48
-57.84
-76.57
-85.77
-79.73
-59.88
-35.15
-16.97
-13.38
-24.39
-41.63
-53.34
-50.82
-34.08
-11.87
3.47
3.23
-11.76
-32.05
-44.58
-40.72
-21.73
2.73
19.93
22.16
11.06
-3.50
-9.67
-1.04
19.83
42.37
54.41
49.06
28.33
2.44
-16.14
-19.31
-6.98
13.17
30.96
39.17
37.63
32.40
31.49
39.74
55.23
70.78
77.93
72.02
55.26
35.07
20.07
15.13
18.80
24.38
23.97
13.22
-6.09
-26.43
-38.89
-38.27
-25.85
-9.39
1.48
0.61
-10.84
-24.80
-30.76
-22.27
-1.49
21.51
34.05
28.03
5.31
-23.47
-44.48
-48.59
-36.46
-17.73
-5.12
-6.70
-21.43
-39.70
-49.70
-44.56
-26.11
-4.10
10.09
9.95
-2.27
-17.09
-23.26
-14.69
5.74
27.76
39.26
33.33
12.33
-13.39
-31.27
-33.41
-21.02
-3.36
7.49
3.50
-14.28
-36.52
-50.50
-47.50
-27.84
-0.95
19.78
24.73
13.10
-6.53
-21.76
-23.83
-12.63
3.01
11.33
4.87
-14.30
-35.83
-46.99
-40.39
-18.91
6.11
21.22
18.69
1.19
-19.89
-31.19
-25.40
-5.65
16.42
27.58
21.13
0.92
-20.99
-31.70
-25.15
-5.48
15.56
25.78
19.39
0.41
-20.05
-30.11
-23.78
-4.00
19.39
35.03
36.44
25.17
9.58
-0.10
2.48
16.55
34.62
47.30
48.38
38.55
24.55
15.20
16.40
27.56
42.89
54.60
57.95
53.53
46.54
43.10
45.95
52.88
57.72
54.64
41.82
23.22
6.45
-1.67
1.05
10.32
17.95
16.08
1.74
-21.01
-43.27
-55.67
-53.91
-41.10
-26.35
-19.61
-25.86
-41.99
-58.33
-64.57
-56.04
-36.96
-18.53
-12.60
-24.70
-50.00
-75.77
-88.12
-79.61
-53.92
-23.44
-2.75
-0.01
-12.94
-30.20
-38.54
-30.75
-9.49
14.09
27.70
24.77
8.90
-9.04
-17.27
-9.78
9.91
32.04
45.91
46.70
37.31
26.67
23.87
32.65
50.09
67.81
77.58
75.22
63.26
48.49
38.04
35.47
38.63
42.04
39.63
29.21
13.41
-1.35
-8.76
-6.48
2.56
10.93
11.12
-0.78
-21.65
-43.24
-55.93
-54.41
-40.97
-24.40
-15.46
-20.18
-36.77
-55.95
-66.88
-63.31
-47.68
-29.51
-19.58
-23.27
-36.65
-49.19
-49.80
-34.39
-8.42
15.86
26.66
19.54
-0.03
-19.79
-28.22
-20.65
-2.12
16.49
24.80
19.41
5.61
-6.19
-6.67
6.51
27.94
47.08
54.79
47.90
31.07
13.64
4.39
7.00
17.95
29.52
33.79
27.94
15.44
4.21
1.72
10.48
26.62
41.92
48.53
43.12
28.88
13.18
3.29
2.08
6.60
10.35
7.38
-3.51
-18.04
-28.88
-30.39
-22.24
-10.07
-2.38
-5.45
-19.32
-37.05
-48.39
-45.58
-28.19
-3.58
16.70
23.12
13.32
-6.86
-26.61
-36.13
-31.78
-17.90
-3.70
1.79
-4.47
-18.08
-29.80
-31.12
-19.58
-0.06
17.97
26.13
21.95
10.25
0.01
-1.15
8.53
24.00
36.73
39.84
32.34
19.54
9.77
9.33
18.40
31.25
39.02
35.15
19.29
-1.99
-18.75
-22.90
-12.91
5.14
21.52
27.94
22.85
11.58
3.08
3.82
14.12
27.45
34.65
29.09
10.62
-14.18
-35.62
-45.95
-43.89
-34.60
-27.11
-28.58
-40.05
-55.39
-64.97
-61.24
-44.13
-21.66
-6.32
-7.86
-27.24
-55.26
-77.22
-80.78
-62.46
-29.31
5.35
29.11
36.64
31.55
23.21
20.60
27.36
40.05
51.25
54.42
48.48
38.36
31.74
33.90
43.91
54.96
58.43
49.44
30.29
9.48
-3.42
-3.64
5.51
14.31
12.20
-5.85
-35.92
-66.64
-84.93
-82.94
-62.25
-33.10
-9.21
-0.84
-9.68
-28.47
-44.98
-48.78
-36.38
-12.90
11.59
27.31
30.38
24.12
16.73
15.97
24.92
40.02
53.75
59.21
54.33
43.09
33.07
30.42
35.97
43.91
45.15
32.61
6.22
-26.39
-53.12
-64.25
-57.77
-40.65
-24.73
-19.83
-27.74
-41.69
-50.54
-45.85
-27.29
-2.65
17.14
24.76
21.27
14.62
14.30
24.83
42.56
57.95
61.57
50.29
29.48
9.95
1.38
6.43
18.77
26.71
19.75
-5.20
-41.18
-74.72
-92.42
-87.81
-65.04
-35.99
-14.17
-7.19
-12.84
-21.21
-21.04
-6.71
18.05
42.79
56.50
54.50
41.44
27.95
23.82
31.74
45.09
52.18
43.23
16.74
-18.78
-49.12
-62.10
-54.20
-32.90
-12.21
-5.25
-16.82
-40.50
-62.51
-69.48
-55.72
-26.79
4.45
24.83
28.55
20.08
10.59
10.77
24.28
45.30
62.67
66.57
54.64
33.58
15.00
8.33
15.33
28.62
36.25
28.32
2.94
-32.07
-63.30
-78.68
-73.66
-53.86
-31.31
-18.01
-19.10
-30.06
-39.95
-38.15
-20.74
6.85
33.29
47.94
47.10
36.13
25.45
23.80
32.48
44.25
47.95
35.50
7.38
-26.68
-52.92
-60.93
-49.63
-27.89
-9.75
-6.53
-20.73
-44.43
-64.09
-67.86
-52.23
-23.90
3.85
18.51
14.72
-2.80
-22.36
-31.53
-23.92
-1.91
24.86
45.29
52.28
46.35
34.22
24.85
24.25
33.05
46.52
58.10
63.08
61.11
55.55
50.99
49.95
51.17
50.22
42.44
26.43
5.78
-12.44
-21.59
-19.79
-11.77
-6.71
-13.11
-33.50
-62.04
-87.01
-96.71
-85.88
-58.74
-26.88
-3.49
3.24
-5.73
-21.53
-32.36
-30.07
-13.99
9.10
29.49
40.14
40.69
36.63
35.09
39.37
46.67
49.74
42.05
22.88
-1.23
-19.71
-23.94
-12.64
6.89
22.39
23.20
5.88
-23.77
-53.74
-71.84
-71.56
-54.87
-30.50
-9.05
2.70
4.74
2.95
4.64
13.82
28.42
41.99
47.90
43.72
33.06
23.15
20.10
24.54
30.73
29.52
13.58
-17.58
-56.20
-89.40
-104.88
-96.98
-69.42
-33.50
-3.00
12.44
11.64
1.56
-6.95
-5.54
7.45
26.32
42.21
48.69
45.55
38.12
33.03
32.90
34.05
28.73
10.64
-19.83
-54.17
-79.42
-84.97
-68.43
-37.35
-5.47
14.27
15.82
2.76
-14.43
-24.33
-20.30
-3.34
19.47
39.25
50.32
52.65
50.78
50.17
53.27
57.77
57.93
48.65
29.49
6.04
-12.75
-19.71
-14.22
-3.21
2.47
-5.79
-28.53
-57.25
-78.39
-80.58
-61.08
-27.28
7.07
28.95
32.30
20.49
3.42
-8.10
-8.03
2.69
17.56
28.86
32.11
28.31
22.32
19.17
19.80
20.35
14.18
-3.13
-29.82
-57.43
-74.52
-72.78
-51.92
-20.37
8.70
24.00
22.17
8.68
-5.32
-9.67
-0.58
17.34
34.89
43.47
40.41
30.16
21.03
19.74
27.26
37.85
42.50
34.08
11.58
-18.63
-46.21
-61.90
-62.52
-52.09
-39.71
-33.85
-37.63
-46.54
-51.30
-43.51
-21.33
8.99
35.68
48.01
42.83
26.10
9.81
4.79
14.70
33.82
51.32
57.37
49.07
31.90
15.91
9.41
14.09
23.63
27.72
17.99
-6.85
-39.41
-67.35
-79.73
-73.20
-53.57
-33.24
-23.76
-29.51
-44.69
-56.95
-54.62
-34.26
-2.68
26.33
39.93
34.19
15.78
-1.91
-7.12
3.78
24.35
43.22
51.07
46.00
34.21
25.20
25.49
34.54
45.24
48.23
38.06
16.70
-7.06
-22.31
-22.29
-8.14
11.28
23.88
20.73
0.90
-27.68
-52.30
-62.14
-54.34
-35.41
-17.54
-11.69
-21.17
-39.67
-55.21
-57.46
-43.95
-21.56
-2.42
3.63
-4.98
-20.58
-30.97
-26.90
-7.74
18.26
38.88
45.09
36.51
21.15
10.52
12.69
27.90
48.56
63.97
66.53
55.62
37.65
21.63
14.05
15.42
20.92
23.56
18.89
7.59
-5.05
-12.21
-9.80
1.13
14.88
24.27
24.68
16.91
6.59
0.78
3.76
14.10
25.37
29.68
22.34
5.16
-14.21
-26.46
-26.21
-14.87
-0.71
5.88
-1.85
-23.11
-49.40
-69.28
-74.37
-64.52
-47.31
-34.23
-33.45
-44.94
-60.50
-68.72
-62.23
-42.15
-18.24
-2.63
-3.36
-18.62
-37.92
-47.82
-39.71
-15.07
15.97
39.75
47.49
39.24
23.86
12.93
13.96
26.64
43.30
54.45
53.99
43.26
29.45
21.31
23.62
34.56
47.42
54.34
51.58
40.97
29.21
23.11
25.87
35.16
44.40
47.16
40.21
26.14
11.14
2.07
2.03
8.82
16.45
18.16
10.89
-3.50
-18.84
-28.61
-29.55
-23.72
-17.42
-17.20
-26.21
-41.24
-54.56
-57.95
-47.83
-27.95
-7.74
2.26
-3.23
-21.34
-42.09
-54.12
-51.32
-36.22
-18.96
-10.84
-17.74
-36.15
-55.36
-63.67
-55.41
-34.54
-11.76
1.30
-0.81
-14.23
-28.24
-31.60
-19.42
4.29
28.32
41.17
37.64
21.98
5.63
0.44
11.92
35.96
61.48
76.78
76.05
62.43
45.36
34.73
35.09
43.51
51.97
52.70
42.92
26.50
11.17
3.67
5.47
11.84
14.53
6.60
-13.29
-39.71
-62.99
-74.38
-70.57
-55.50
-38.37
-28.80
-31.61
-44.13
-57.61
-62.00
-51.71
-28.77
-1.91
18.49
26.24
22.70
15.74
14.34
23.13
39.51
55.48
62.67
57.54
43.41
27.92
18.17
16.27
18.23
16.51
4.77
-17.80
-45.30
-67.54
-75.26
-65.06
-41.70
-15.98
0.91
3.39
-5.42
-15.60
-16.46
-3.17
20.46
44.03
56.94
54.97
42.13
27.97
20.91
22.96
28.68
28.76
16.41
-8.03
-36.30
-56.64
-60.15
-45.80
-21.59
0.06
8.54
1.27
-14.85
-27.63
-26.54
-9.21
17.63
41.74
52.82
48.62
35.18
22.96
19.68
25.56
33.85
35.32
24.45
3.16
-20.27
-35.84
-37.85
-27.70
-13.67
-6.01
-11.24
-28.58
-49.59
-62.95
-60.29
-40.96
-12.46
13.94
28.96
30.77
25.02
20.79
24.64
35.99
48.16
52.39
43.82
25.04
4.19
-9.59
-12.04
-6.09
-0.14
-2.94
-18.11
-41.80
-64.23
-75.06
-69.03
-48.39
-22.05
-0.29
10.48
10.57
6.20
4.88
10.97
23.01
35.13
41.19
38.32
29.10
19.47
15.07
17.77
24.32
28.82
25.98
14.50
-1.84
-16.49
-23.34
-20.60
-11.63
-3.49
-3.10
-13.02
-30.07
-46.40
-53.85
-48.57
-32.90
-14.77
-2.88
-2.04
-10.52
-20.84
-24.67
-17.42
-1.27
16.29
27.11
26.97
18.56
9.46
7.54
16.39
32.61
48.42
55.83
51.47
38.64
24.58
16.35
16.04
19.74
19.84
9.80
-11.25
-37.57
-59.30
-67.84
-60.91
-43.46
-25.53
-16.31
-18.97
-29.31
-38.06
-36.98
-23.38
-2.16
17.46
27.44
25.45
16.27
8.28
8.27
17.41
30.70
40.64
41.80
34.28
23.63
16.93
18.57
27.09
36.19
38.09
28.07
7.63
-16.40
-35.04
-42.06
-37.19
-25.79
-15.94
-13.38
-18.45
-26.05
-28.87
-22.31
-7.01
11.09
24.48
28.43
23.49
14.96
9.11
9.20
13.54
16.54
12.51
-0.68
-19.84
-37.70
-46.86
-43.47
-29.46
-11.34
3.28
9.52
7.71
2.58
0.17
4.12
13.59
23.84
29.14
26.09
15.73
2.68
-7.46
-11.34
-9.62
-6.28
-6.11
-11.64
-21.36
-30.56
-33.79
-28.20
-15.17
0.35
12.42
17.42
15.98
12.12
10.72
14.32
21.64
28.41
29.94
24.16
12.93
1.07
-6.46
-7.56
-4.25
-1.52
-4.57
-15.59
-31.97
-47.29
-54.35
-48.77
-31.40
-8.00
13.59
27.41
32.22
31.48
30.83
34.30
41.65
48.28
47.94
36.51
15.17
-9.63
-29.19
-37.26
-33.39
-23.51
-16.66
-19.57
-32.52
-48.61
-57.51
-51.58
-30.40
-1.35
24.55
38.73
39.86
33.88
29.81
33.63
44.45
54.87
55.61
41.53
15.42
-12.56
-30.42
-31.05
-16.51
2.37
12.13
4.02
-20.29
-49.07
-66.86
-62.97
-37.41
-0.91
31.28
47.81
46.72
35.40
24.89
23.09
30.38
40.39
44.86
38.75
23.26
4.47
-10.66
-18.45
-20.81
-23.36
-31.59
-46.96
-65.16
-77.89
-77.48
-61.07
-33.12
-3.38
17.91
25.24
21.10
14.01
13.28
23.21
39.77
52.99
52.61
34.11
2.32
-31.11
-53.74
-58.60
-48.03
-31.29
-18.99
-16.65
-21.32
-24.33
-17.10
2.75
28.78
49.43
54.31
40.87
16.72
-4.72
-11.53
-0.30
21.67
41.14
46.03
32.63
7.71
-16.09
-27.12
-21.26
-3.87
14.20
22.51
16.86
1.41
-14.78
-22.73
-18.72
-6.24
6.76
12.01
5.71
-9.25
-25.42
-34.55
-32.15
-19.99
-4.43
6.64
8.38
2.02
-6.44
-9.44
-2.54
12.47
28.83
38.23
35.87
23.97
10.23
3.37
7.78
19.99
30.98
31.46
17.59
-5.74
-28.10
-39.51
-36.15
-22.61
-8.27
-1.40
-4.46
-12.78
-18.77
-17.12
-8.19
2.15
7.02
3.12
-7.32
-17.53
-20.54
-13.59
0.69
15.47
23.73
22.17
12.63
0.81
-6.68
-6.26
1.18
10.76
16.02
12.81
1.27
-14.01
-26.02
-29.35
-22.74
-9.92
2.16
7.48
4.22
-4.29
-11.41
-11.43
-3.11
9.46
19.21
20.64
13.38
2.59
-4.34
-2.18
8.67
22.36
31.21
29.89
18.80
3.20
-10.03
-16.29
-15.63
-11.86
-9.96
-12.90
-19.74
-26.31
-27.59
-20.87
-7.71
6.42
14.59
12.35
0.50
-14.52
-23.81
-20.87
-5.46
15.73
32.82
38.19
30.82
17.08
6.21
4.89
13.21
24.66
30.99
27.36
15.39
2.48
-3.27
1.75
14.32
25.61
26.61
13.53
-9.84
-33.62
-47.36
-46.04
-32.58
-16.67
-9.09
-15.29
-32.54
-51.10
-59.66
-51.84
-29.36
-1.01
22.16
33.29
32.75
27.14
24.55
29.37
39.52
47.84
46.82
33.38
11.10
-11.49
-26.07
-29.19
-23.95
-18.17
-19.13
-28.77
-42.46
-51.13
-46.64
-27.04
2.28
30.70
47.96
49.63
39.25
25.58
17.68
19.36
27.04
32.71
28.37
11.62
-12.33
-33.63
-43.29
-37.98
-22.65
-7.33
-1.23
-7.91
-22.52
-35.09
-36.76
-24.74
-4.32
14.24
22.22
17.90
6.96
-0.48
3.31
18.69
38.92
53.61
55.25
43.58
25.64
10.95
6.51
12.17
20.94
23.67
13.87
-8.05
-34.48
-55.09
-62.27
-54.63
-38.17
-22.19
-13.68
-14.07
-18.10
-17.45
-6.58
13.87
37.05
53.07
55.08
43.14
23.58
5.69
-3.57
-3.70
0.11
0.37
-8.12
-24.55
-42.42
-53.69
-52.73
-39.58
-20.04
-1.79
9.32
11.90
9.56
7.93
10.50
16.74
22.07
20.58
9.55
-8.55
-27.04
-38.05
-36.90
-25.04
-8.40
5.46
11.55
10.55
7.47
7.83
14.57
25.64
35.34
38.40
32.81
21.01
9.12
2.96
4.62
11.76
18.09
16.97
5.52
-13.72
-33.88
-46.55
-46.57
-34.76
-16.91
-1.33
5.74
4.00
-1.52
-3.86
1.77
14.24
27.30
33.80
29.63
16.55
1.65
-7.31
-6.25
3.05
13.37
16.37
7.78
-10.26
-30.05
-42.32
-41.87
-30.10
-13.88
-1.94
0.41
-5.28
-12.16
-12.28
-1.42
17.22
35.01
43.10
37.28
20.75
2.49
-8.50
-8.22
0.40
9.08
9.64
-0.74
-17.96
-33.15
-37.81
-29.04
-11.01
7.63
18.47
18.20
10.47
3.13
3.27
12.60
25.77
33.44
28.05
8.53
-18.08
-40.14
-47.68
-37.60
-15.54
7.44
20.90
20.72
10.43
-1.26
-6.42
-2.58
6.29
12.40
9.31
-3.72
-21.08
-34.15
-35.84
-24.80
-6.41
10.72
19.25
17.05
8.20
0.14
-1.30
5.07
14.98
21.13
17.92
5.14
-11.90
-25.19
-28.19
-19.94
-5.40
7.70
12.94
9.04
0.60
-5.13
-3.06
7.09
20.13
28.49
26.69
14.83
-1.58
-14.73
-18.73
-13.36
-3.78
2.88
1.70
-6.60
-15.82
-18.24
-9.72
7.91
27.10
38.85
37.60
24.74
7.34
-5.67
-8.62
-2.60
5.74
8.62
1.82
-12.19
-25.17
-28.14
-17.07
4.83
28.00
41.86
40.55
26.43
8.11
-4.47
-5.80
1.72
9.83
9.75
-2.45
-23.33
-43.46
-52.95
-47.03
-27.89
-3.60
16.61
26.97
27.69
23.39
19.60
19.33
21.19
20.73
13.81
-0.54
-18.98
-35.11
-42.39
-37.69
-22.78
-3.59
12.91
21.88
23.17
20.48
18.38
18.93
20.02
16.45
3.85
-17.56
-41.77
-59.06
-61.13
-45.48
-17.31
12.79
33.72
39.19
30.38
14.46
0.26
-6.46
-5.89
-3.15
-4.26
-11.78
-22.61
-29.66
-26.13
-10.18
13.29
34.84
45.19
40.03
22.30
0.32
-16.84
-24.09
-22.15
-16.56
-13.66
-16.50
-22.55
-25.45
-18.91
-0.88
23.87
45.50
53.88
44.29
20.34
-7.37
-26.54
-29.84
-18.70
-1.60
11.49
15.25
12.01
9.46
14.56
28.03
43.42
50.52
41.72
17.08
-15.16
-42.86
-56.53
-53.57
-39.06
-22.25
-10.98
-7.61
-8.18
-6.04
4.01
21.44
39.28
47.55
38.72
12.71
-22.26
-52.74
-66.78
-60.24
-38.54
-13.20
4.54
10.00
7.06
4.75
10.89
26.64
46.08
59.37
58.74
43.20
19.06
-3.80
-17.73
-20.90
-17.96
-16.83
-23.57
-38.49
-55.89
-67.22
-65.67
-50.13
-26.18
-3.18
10.77
13.23
8.18
3.46
5.91
16.85
31.26
41.25
40.90
30.35
15.88
6.33
7.47
17.85
29.44
32.20
20.14
-4.60
-31.88
-49.27
-49.06
-32.57
-9.07
9.50
15.40
9.58
0.32
-2.32
6.91
25.44
44.39
53.75
48.20
30.08
7.82
-9.37
-16.39
-14.84
-11.57
-14.18
-26.16
-44.06
-59.12
-61.56
-46.23
-15.83
19.80
48.22
60.59
55.58
39.82
23.38
14.06
13.06
14.84
10.99
-4.35
-30.14
-58.27
-77.46
-79.23
-62.32
-33.58
-4.32
15.64
23.00
22.03
21.08
26.94
39.94
53.49
57.96
46.63
20.74
-10.80
-35.71
-45.19
-38.53
-23.27
-10.31
-7.10
-13.35
-21.28
-20.81
-6.32
19.51
47.13
65.46
68.37
58.07
42.77
31.35
27.24
26.47
20.66
3.05
-25.96
-57.54
-78.54
-78.58
-55.69
-17.87
21.21
49.26
61.02
59.90
54.18
51.18
52.33
52.39
43.36
20.56
-12.80
-45.74
-64.44
-58.59
-26.80
22.22
73.56
111.89
126.84
115.51
81.52
32.73
-21.93
-74.84
-120.03
-152.88
-169.68
-168.09
-148.01
-112.28
-67.30
-22.46
12.61
31.14
32.16
20.86
5.97
-4.15
-5.97
-2.29
0.38
-3.43
-13.87
-25.30
-29.76
-21.97
-3.27
17.96
30.74
27.08
6.35
-24.56
-55.16
-76.09
-83.23
-78.65
-68.08
-56.82
-46.42
-34.61
-17.66
6.51
35.68
63.20
81.17
84.50
74.00
56.11
39.17
29.17
26.70
27.13
23.88
13.27
-2.45
-15.84
-18.38
-5.49
20.52
50.44
72.25
76.99
63.34
38.20
12.87
-2.68
-4.70
3.03
12.01
14.56
8.97
0.52
-2.03
7.98
30.62
58.31
79.37
83.97
69.42
41.56
11.33
-11.23
-21.99
-23.83
-23.97
-28.40
-37.26
-44.32
-40.99
-22.58
7.62
38.98
58.26
56.57
34.30
1.31
-28.00
-42.16
-37.98
-20.87
-0.78
13.52
18.90
18.45
18.07
21.74
28.52
33.31
30.42
17.54
-2.31
-22.05
-34.43
-35.70
-27.58
-15.71
-6.48
-4.11
-9.21
-19.43
-31.45
-42.94
-53.61
-64.53
-76.68
-89.94
-103.02
-114.36
-123.11
-129.47
-134.29
-137.96
-139.60
-137.18
-128.45
-112.13
-88.76
-60.72
-31.47
-4.75
16.44
30.97
40.10
47.11
55.96
69.29
86.91
105.31
119.05
123.75
118.62
106.98
94.09
83.78
75.87
66.39
50.45
26.29
-1.89
-24.93
-33.19
-21.71
6.51
41.23
69.30
80.58
72.13
49.11
21.06
-3.55
-20.95
-32.75
-43.04
-53.95
-63.06
-64.23
-51.51
-24.17
11.17
43.01
60.27
58.08
40.18
16.75
-1.26
-7.89
-4.76
1.10
2.68
-2.24
-9.53
-11.04
-0.39
22.14
48.28
65.05
61.24
34.01
-8.83
-51.76
-78.50
-79.61
-56.46
-19.95
15.40
38.70
46.99
44.47
38.05
31.85
24.47
10.86
-12.62
-43.47
-72.08
-85.96
-76.61
-44.94
-1.69
37.29
58.69
57.82
39.65
15.19
-5.08
-16.38
-20.41
-22.39
-26.49
-32.53
-36.02
-31.44
-16.12
7.06
30.44
45.03
44.89
30.11
6.90
-15.50
-29.19
-31.01
-23.46
-12.55
-4.23
-1.28
-2.40
-3.83
-2.03
4.07
12.63
20.19
23.73
22.49
17.94
12.65
8.38
4.79
-0.23
-8.66
-20.15
-31.05
-35.20
-27.14
-5.49
25.20
55.09
72.98
71.70
51.77
21.62
-6.37
-21.72
-20.68
-7.38
8.98
19.62
21.11
16.84
14.49
20.71
36.16
54.11
63.46
54.54
25.21
-17.09
-58.21
-83.87
-86.48
-68.53
-40.25
-13.71
3.39
10.90
14.06
18.55
25.74
31.10
27.24
9.32
-20.47
-52.62
-74.47
-76.86
-59.18
-29.93
-2.23
13.26
13.81
5.43
-1.08
2.99
18.98
39.70
53.54
51.39
32.00
2.89
-23.70
-37.68
-36.43
-26.03
-17.40
-19.73
-34.71
-55.48
-70.70
-70.66
-52.71
-22.63
8.55
30.31
37.99
34.06
25.57
18.90
15.89
13.12
4.96
-11.51
-33.30
-51.64
-56.28
-41.51
-9.96
27.76
58.04
71.38
66.77
51.62
36.61
28.91
28.31
28.01
19.63
-0.97
-29.95
-56.96
-70.42
-63.44
-37.73
-2.41
30.08
49.79
53.38
44.39
30.40
18.24
10.11
2.82
-8.80
-27.47
-50.09
-68.36
-72.85
-58.75
-29.23
4.97
30.76
39.87
33.09
19.85
12.29
18.13
36.26
57.58
70.00
65.18
43.43
13.35
-12.79
-25.99
-25.57
-18.89
-16.27
-24.29
-41.23
-57.88
-62.92
-49.78
-21.13
11.84
35.50
41.44
31.37
15.79
7.49
13.70
31.89
51.47
59.65
48.84
21.05
-13.11
-40.30
-51.43
-46.83
-35.29
-28.31
-32.74
-46.22
-58.78
-58.89
-40.70
-8.09
26.71
49.79
53.13
39.12
18.88
5.64
7.23
22.23
41.81
55.19
55.63
43.79
26.43
11.87
5.00
4.23
2.94
-5.80
-24.15
-46.83
-63.48
-64.60
-47.14
-17.33
11.91
27.47
23.13
3.26
-19.30
-30.40
-22.41
1.81
31.06
52.47
58.35
49.19
31.86
14.40
1.36
-8.37
-19.25
-35.17
-55.68
-74.74
-83.21
-73.86
-45.59
-5.20
34.96
62.62
71.14
62.15
43.72
25.21
12.15
3.73
-5.11
-18.93
-37.25
-53.59
-58.71
-46.17
-16.77
20.71
53.18
69.46
65.73
46.85
23.29
5.01
-3.85
-6.42
-9.74
-19.06
-33.42
-45.53
-46.18
-30.24
-0.57
32.81
57.18
63.50
50.90
26.85
3.08
-10.57
-11.17
-3.54
3.30
2.39
-6.56
-16.72
-18.51
-5.80
19.57
48.14
67.68
69.66
54.10
29.11
6.24
-5.89
-6.08
-0.60
1.04
-7.58
-25.50
-44.45
-53.50
-45.35
-21.00
10.44
36.38
47.25
41.34
24.90
7.75
-2.65
-5.31
-5.74
-11.93
-28.59
-53.33
-76.99
-88.49
-81.16
-57.08
-26.54
-2.67
5.43
-2.61
-19.08
-33.43
-38.47
-33.70
-24.33
-17.11
-16.02
-20.12
-24.88
-25.22
-18.64
-6.60
6.36
15.23
17.19
13.20
7.27
4.02
5.88
11.74
17.81
20.14
17.21
10.97
5.66
5.32
11.53
22.58
34.56
43.44
47.14
46.49
44.53
44.62
48.37
54.37
58.40
55.16
40.66
14.12
-21.55
-60.77
-97.25
-125.69
-142.68
-146.63
-137.34
-115.74
-84.05
-45.99
-6.53
28.69
54.56
67.78
68.11
58.95
46.57
37.97
37.83
46.26
58.80
69.00
72.37
69.12
63.84
62.23
66.98
75.75
82.63
81.93
71.82
55.12
36.77
20.16
4.71
-13.47
-38.70
-72.35
-111.22
-148.41
-175.88
-187.53
-181.21
-159.31
-127.71
-93.64
-63.24
-39.63
-22.50
-9.35
2.42
13.75
23.57
29.98
32.21
31.57
30.69
31.54
34.00
36.18
36.36
35.09
35.57
41.82
55.50
74.05
91.12
99.20
93.08
72.25
41.29
8.32
-17.92
-31.06
-29.31
-16.02
1.52
14.90
17.92
8.96
-8.73
-29.26
-47.06
-59.15
-65.54
-67.79
-66.98
-62.76
-54.05
-40.49
-23.52
-6.15
8.27
17.50
21.34
21.55
20.81
21.43
24.40
29.15
33.95
36.94
36.94
34.01
29.36
24.72
21.64
20.83
22.03
24.19
25.98
26.42
25.19
22.74
20.06
18.23
18.05
19.69
22.56
25.68
27.96
28.69
27.87
26.20
24.85
24.97
27.19
31.13
35.64
39.15
40.28
38.38
33.81
27.72
21.25
15.16
9.08
1.91
-7.68
-20.85
-38.32
-60.38
-86.58
-115.14
-141.49
-160.16
-165.46
-153.90
-126.25
-88.02
-47.62
-13.18
10.47
23.02
27.42
27.77
26.95
25.76
23.73
20.48
16.62
13.51
12.51
13.77
16.26
18.31
18.30
15.65
10.95
5.63
1.21
-1.39
-2.25
-2.28
-2.74
-4.69
-8.50
-13.78
-19.61
-25.04
-29.46
-32.90
-35.85
-39.07
-43.20
-48.46
-54.57
-60.96
-66.93
-71.92
-75.68
-78.20
-79.55
-79.69
-78.40
-75.36
-70.34
-63.38
-54.85
-45.21
-34.68
-23.11
-10.01
5.26
22.87
42.17
61.75
79.95
95.83
110.15
125.21
143.46
165.39
187.72
203.97
207.16
193.66
165.64
130.46
96.84
70.39
51.45
36.64
22.81
10.45
3.28
4.69
13.15
20.89
17.53
-3.02
-37.09
-71.59
-90.64
-84.93
-57.67
-22.98
2.29
8.52
-1.39
-15.09
-19.67
-10.83
3.66
9.09
-6.23
-42.01
-84.33
-112.75
-111.91
-80.70
-33.04
9.78
31.04
27.27
8.73
-8.11
-11.49
-1.50
10.68
10.90
-7.93
-39.96
-68.80
-76.88
-56.02
-12.96
33.38
62.00
60.95
33.43
-4.53
-33.46
-41.16
-28.65
-7.84
7.03
8.51
0.24
-6.27
-0.26
20.40
46.43
62.19
55.08
23.44
-21.11
-59.20
-73.73
-58.59
-21.58
20.07
48.73
54.95
41.25
19.06
1.13
-6.03
-5.18
-5.18
-13.72
-30.89
-47.84
-51.63
-33.54
4.31
48.23
78.93
81.27
52.31
3.38
-44.86
-72.23
-68.50
-37.98
3.30
36.14
47.84
38.23
18.54
4.10
4.74
18.67
33.64
34.67
13.90
-23.24
-60.18
-77.95
-65.90
-27.99
18.78
53.34
61.18
41.18
5.22
-28.86
-46.47
-42.69
-23.29
-0.16
15.60
18.84
11.61
0.58
-7.56
-9.58
-6.73
-2.77
-1.05
-2.16
-4.02
-3.66
0.41
6.96
12.61
13.91
9.56
1.45
-6.31
-9.74
-7.29
-0.80
5.55
7.76
4.39
-2.48
-8.36
-9.13
-3.51
5.89
13.91
15.59
9.05
-3.35
-16.08
-23.37
-22.12
-13.34
-1.41
8.32
12.21
9.91
3.97
-2.00
-5.34
-5.60
-4.34
-3.72
-5.03
-7.89
-10.70
-11.84
-10.78
-8.42
-6.32
-5.57
-5.82
-5.35
-2.23
4.19
12.35
18.86
20.10
14.24
2.67
-10.22
-18.93
-19.47
-11.38
1.88
14.60
21.54
20.42
12.83
3.15
-3.96
-5.90
-3.21
1.09
3.56
2.30
-2.03
-6.85
-9.35
-8.09
-3.65
1.88
6.28
8.46
8.86
8.73
8.81
8.52
6.05
-0.25
-10.34
-21.44
-28.72
-27.43
-15.52
4.61
26.42
41.79
44.49
33.17
12.14
-10.37
-25.80
-28.73
-19.06
-1.49
16.94
30.06
34.87
31.76
23.09
11.14
-3.05
-19.16
-36.01
-50.06
-55.52
-47.04
-23.41
10.04
42.18
60.49
56.95
32.64
-2.08
-32.12
-44.87
-36.24
-12.42
13.93
30.52
31.77
20.87
6.60
-2.69
-4.17
-1.70
-2.43
-11.19
-26.26
-39.31
-40.20
-23.55
6.89
39.00
58.30
55.66
32.44
0.18
-25.32
-32.44
-19.71
3.55
22.75
26.06
10.96
-14.65
-37.19
-44.92
-34.05
-10.26
15.03
31.06
33.32
25.09
14.02
6.53
3.47
0.07
-9.90
-28.19
-49.03
-60.87
-52.51
-20.42
27.55
74.12
99.82
91.90
50.62
-10.48
-70.02
-107.77
-112.45
-85.35
-38.41
11.93
51.59
73.60
78.01
68.65
49.18
21.24
-14.23
-53.65
-88.58
-106.92
-97.84
-58.03
4.78
72.90
124.49
142.10
119.69
65.04
-3.32
-63.50
-98.50
-101.59
-77.23
-37.19
5.53
41.66
67.06
80.78
82.24
69.66
41.73
0.76
-44.84
-81.50
-95.70
-80.72
-41.31
7.11
44.97
57.87
43.71
13.62
-14.03
-23.59
-10.19
17.91
44.11
52.59
36.76
2.20
-36.80
-64.82
-72.93
-61.46
-37.82
-11.09
12.91
33.45
52.35
69.97
82.50
82.54
63.41
24.49
-25.80
-71.77
-96.58
-90.22
-54.69
-3.77
42.96
68.94
67.60
44.09
10.91
-19.38
-40.10
-51.87
-59.07
-64.41
-65.55
-56.31
-31.54
7.35
50.23
81.40
86.64
60.47
9.89
-47.39
-90.09
-102.17
-79.40
-30.93
24.92
68.76
88.16
81.69
57.51
27.52
0.93
-19.14
-34.40
-46.84
-54.72
-52.12
-32.89
3.72
49.68
89.39
106.22
90.67
45.88
-13.12
-65.84
-95.44
-95.58
-71.77
-36.91
-4.09
19.45
34.22
45.35
56.95
67.79
71.03
58.30
25.75
-21.63
-70.67
-105.36
-114.03
-94.71
-55.59
-10.65
27.25
51.64
63.81
69.19
71.85
70.81
60.43
34.85
-6.52
-55.74
-98.22
-118.61
-108.04
-68.59
-12.87
41.61
80.01
95.82
91.97
76.58
57.05
35.89
10.78
-21.37
-59.35
-95.01
-115.69
-110.22
-75.47
-19.56
40.64
86.54
105.77
96.90
68.59
33.99
3.76
-18.15
-34.13
-48.69
-63.56
-75.23
-76.87
-62.98
-34.05
2.24
33.98
50.65
48.07
30.07
6.15
-13.65
-23.38
-23.09
-17.47
-12.32
-11.03
-12.99
-14.55
-11.73
-3.02
9.53
21.19
27.09
24.83
15.83
4.56
-3.81
-5.97
-2.00
5.06
11.22
13.78
12.70
10.13
8.65
9.35
11.00
10.85
6.66
-1.45
-10.47
-15.92
-14.31
-5.28
7.85
19.63
25.02
21.88
11.89
-0.46
-10.24
-14.36
-12.76
-7.75
-2.31
1.85
5.13
9.25
15.50
23.23
29.53
30.53
23.61
9.21
-8.67
-24.07
-31.71
-29.48
-19.24
-5.81
5.59
11.67
12.32
9.96
7.51
6.49
6.04
3.82
-2.23
-12.06
-22.93
-30.49
-31.04
-23.57
-10.47
3.47
13.28
16.07
12.17
4.60
-2.70
-6.93
-7.59
-6.27
-5.25
-5.85
-7.46
-8.09
-5.87
-0.70
5.08
7.66
3.91
-6.34
-19.41
-28.99
-29.23
-17.77
2.60
25.00
41.47
46.60
39.81
25.16
8.86
-3.85
-10.88
-13.39
-14.05
-14.77
-15.22
-13.38
-7.30
2.86
14.19
22.12
22.76
15.16
2.35
-9.84
-15.51
-11.53
0.89
16.77
29.76
35.10
31.72
22.17
10.57
0.09
-8.76
-17.65
-28.20
-39.53
-47.37
-45.83
-31.07
-4.47
26.67
51.61
61.02
51.59
28.10
1.33
-16.87
-19.20
-6.20
14.47
32.21
38.94
33.11
19.63
6.10
-2.31
-6.13
-10.85
-22.48
-42.26
-64.15
-77.47
-73.10
-49.52
-14.79
16.87
32.34
26.32
4.05
-21.73
-37.55
-35.76
-17.54
9.00
33.85
50.21
56.96
57.46
55.83
53.55
48.21
35.53
13.29
-15.56
-42.31
-56.07
-49.45
-23.49
11.50
39.70
47.14
28.63
-9.23
-51.07
-80.28
-87.07
-72.65
-47.44
-24.70
-13.29
-13.65
-19.25
-21.76
-16.69
-5.83
4.52
8.18
3.34
-5.94
-12.31
-9.56
3.52
22.21
38.24
44.08
36.77
19.56
0.38
-12.06
-12.39
-1.06
15.92
29.98
34.15
26.42
10.45
-6.57
-17.53
-18.68
-10.83
2.07
15.82
28.67
41.68
56.90
74.58
91.28
100.51
95.88
74.97
41.64
4.87
-25.43
-43.32
-49.56
-50.60
-54.03
-63.59
-76.14
-83.38
-76.80
-53.50
-19.03
14.45
34.11
33.24
15.09
-8.92
-25.62
-27.42
-16.55
-3.30
0.61
-10.60
-32.56
-53.14
-59.48
-45.46
-15.08
20.03
47.33
60.05
59.82
54.39
51.59
54.11
57.92
54.94
38.48
8.07
-28.70
-59.22
-71.66
-61.04
-32.17
2.34
28.17
36.30
27.33
10.60
-1.87
-2.74
6.09
14.45
10.26
-12.69
-49.65
-86.48
-106.70
-100.47
-70.03
-28.62
6.77
24.48
23.86
14.39
8.53
13.34
25.83
34.93
28.85
3.27
-34.56
-69.03
-84.36
-73.19
-40.55
-0.88
30.02
43.38
41.21
33.73
32.05
41.11
56.81
68.82
67.33
49.17
20.40
-7.09
-21.90
-19.34
-3.42
15.77
28.15
29.40
23.07
18.03
22.51
38.66
60.65
77.39
78.57
60.41
28.34
-5.66
-29.05
-34.89
-24.75
-6.91
8.91
17.08
18.81
20.44
28.38
44.16
62.34
72.80
66.45
40.82
2.82
-34.21
-56.92
-58.90
-43.79
-23.15
-9.80
-10.87
-24.19
-40.23
-48.60
-44.77
-33.15
-24.73
-30.48
-54.54
-90.78
-125.47
-144.17
-139.27
-113.87
-79.70
-50.55
-34.61
-30.36
-28.34
-17.91
5.32
35.67
59.75
63.88
42.20
1.32
-42.42
-70.86
-73.29
-51.49
-18.00
11.37
26.42
27.37
23.45
25.68
39.04
58.60
72.07
67.36
40.51
-0.48
-39.20
-59.02
-51.87
-22.27
15.61
45.84
59.04
56.31
47.00
41.57
44.65
52.20
54.40
42.34
14.38
-21.49
-51.45
-62.92
-51.34
-22.33
11.59
37.74
49.65
49.36
44.85
44.05
49.91
58.78
63.27
57.32
40.54
18.94
1.83
-3.69
3.13
15.90
24.34
19.81
0.29
-27.92
-52.83
-62.85
-52.78
-26.81
3.54
25.37
31.25
22.97
9.85
2.49
5.94
16.39
23.37
16.42
-7.93
-42.69
-73.36
-85.46
-72.39
-39.31
-0.50
28.35
38.35
31.54
18.88
12.58
18.29
31.28
39.17
29.62
-1.51
-46.14
-87.21
-107.10
-96.88
-61.12
-15.37
21.95
39.06
36.05
23.50
14.82
17.57
28.69
36.57
28.75
0.52
-40.70
-78.64
-96.81
-87.78
-57.27
-20.90
4.78
11.46
2.93
-8.12
-8.76
6.10
30.60
51.73
57.28
43.13
15.87
-11.37
-26.45
-25.06
-12.66
-0.72
0.59
-11.44
-30.18
-43.64
-41.58
-21.60
9.40
39.08
56.57
58.31
49.44
39.81
37.54
43.90
52.89
55.09
43.84
19.52
-9.81
-32.68
-40.18
-30.60
-10.16
10.63
22.72
23.40
17.22
12.81
16.82
29.28
42.85
46.53
32.00
-0.95
-43.04
-79.50
-97.16
-91.10
-66.95
-37.72
-16.71
-10.44
-15.57
-21.68
-18.46
-2.68
18.97
33.32
28.45
1.34
-38.95
-75.15
-90.32
-76.58
-38.91
7.76
46.41
66.28
66.98
56.69
45.58
39.16
35.48
27.86
10.94
-13.80
-37.06
-46.36
-33.44
0.07
42.26
76.15
87.94
73.53
40.23
2.72
-24.50
-33.78
-26.96
-12.89
-1.48
2.07
-0.41
-2.24
2.41
13.65
24.55
24.75
6.97
-27.41
-67.08
-95.51
-98.95
-73.54
-27.56
22.36
59.04
72.48
63.66
42.40
21.12
8.23
4.75
5.70
4.95
0.04
-5.97
-6.92
1.16
16.02
28.90
28.86
9.19
-27.66
-69.81
-100.49
-105.90
-81.65
-35.03
18.23
60.89
81.47
78.52
59.54
36.01
17.17
6.15
0.09
-6.01
-14.81
-24.02
-28.14
-22.85
-9.30
4.98
9.66
-2.10
-28.49
-58.36
-75.80
-68.35
-33.87
17.32
66.45
94.56
90.98
58.13
10.01
-34.71
-61.17
-64.32
-49.39
-27.28
-7.81
5.34
14.63
24.70
37.23
48.54
51.62
41.41
19.45
-5.29
-20.74
-18.71
-0.35
23.58
37.86
30.86
0.81
-42.49
-81.68
-99.68
-87.23
-46.68
9.37
63.63
101.11
114.39
104.67
79.03
45.84
11.02
-22.62
-53.61
-78.93
-92.82
-88.93
-64.44
-23.86
20.69
53.63
63.10
47.15
15.26
-15.99
-31.37
-24.84
-2.23
22.01
32.93
22.94
-4.28
-36.19
-58.32
-61.69
-46.76
-21.82
2.81
20.80
32.72
44.06
59.96
79.87
95.96
96.58
72.67
23.93
-38.72
-96.60
-130.74
-129.98
-95.68
-40.83
15.84
57.82
77.00
75.41
61.63
44.73
29.24
13.83
-5.65
-31.10
-58.37
-77.97
-79.86
-59.71
-22.63
18.01
46.90
54.27
40.89
17.07
-3.18
-10.04
-2.78
10.62
19.03
15.15
0.12
-17.40
-26.85
-22.38
-6.65
10.62
18.42
11.17
-7.62
-26.97
-34.69
-24.40
0.68
29.13
47.48
47.36
30.07
5.57
-13.33
-18.26
-9.80
3.30
9.82
3.11
-14.30
-31.90
-37.51
-24.81
2.17
30.62
45.67
38.72
12.53
-20.04
-43.07
-46.29
-30.41
-6.16
12.31
15.68
4.69
-11.01
-19.32
-13.48
3.75
21.75
28.77
19.27
-2.18
-23.34
-31.33
-20.29
5.04
31.65
45.37
38.48
13.96
-16.33
-38.27
-43.16
-32.00
-14.04
-0.84
0.97
-6.36
-13.24
-9.10
10.54
40.46
67.80
78.62
65.35
31.23
-11.30
-46.83
-64.72
-63.76
-51.47
-38.55
-31.97
-30.80
-27.18
-12.07
17.94
56.99
91.54
106.61
93.31
53.86
0.89
-48.23
-79.20
-86.76
-75.56
-56.10
-38.15
-25.40
-14.26
2.31
28.82
62.59
93.37
107.82
96.56
60.05
9.40
-38.37
-68.21
-73.93
-60.21
-38.81
-21.46
-13.35
-11.12
-6.43
7.23
29.02
50.02
57.96
44.87
12.98
-25.35
-53.63
-60.08
-43.89
-15.39
10.03
20.50
13.90
-1.77
-14.13
-14.36
-2.49
13.01
20.92
14.63
-3.31
-22.37
-30.31
-20.61
3.25
29.28
43.30
36.67
11.12
-21.75
-46.43
-51.28
-34.14
-2.81
29.53
51.29
57.79
52.40
42.75
34.83
28.87
19.43
-0.17
-32.18
-70.64
-102.56
-113.49
-95.01
-49.56
9.66
63.98
97.14
101.84
82.07
49.82
18.55
-3.24
-14.82
-21.39
-28.84
-38.71
-46.45
-44.42
-27.90
0.25
29.00
44.15
35.99
5.53
-34.84
-66.74
-74.83
-54.13
-12.02
36.12
74.53
93.86
93.69
79.85
59.21
35.38
7.94
-24.74
-61.39
-95.39
-115.92
-112.83
-82.37
-30.78
26.63
70.80
86.69
69.78
28.31
-20.33
-57.43
-71.04
-60.51
-35.16
-8.28
10.14
17.80
19.19
20.84
25.85
31.73
32.55
24.00
7.49
-9.32
-16.87
-9.86
8.55
27.26
32.96
17.49
-16.75
-56.79
-84.59
-85.87
-57.08
-7.49
44.72
80.42
87.70
66.38
26.85
-15.59
-47.77
-63.31
-63.09
-51.92
-34.29
-11.78
16.19
49.01
81.78
104.85
107.32
82.75
34.06
-25.32
-75.77
-99.45
-88.19
-47.43
6.08
51.70
74.01
69.18
45.42
17.47
-1.69
-7.02
-2.74
2.03
-0.12
-10.00
-21.95
-28.28
-24.80
-13.82
-2.34
3.10
1.23
-2.86
-1.04
11.61
32.29
50.51
53.23
32.16
-10.67
-62.22
-103.44
-117.61
-97.75
-49.79
9.74
60.30
85.46
79.18
47.10
3.22
-36.74
-61.69
-68.27
-59.78
-42.18
-19.83
5.89
34.68
63.90
86.63
93.33
76.95
38.33
-11.67
-55.33
-76.02
-66.23
-31.64
11.41
43.84
52.99
38.28
10.54
-14.59
-24.96
-17.66
1.08
20.81
33.54
37.83
37.97
39.26
42.75
43.29
32.31
3.86
-40.11
-88.20
-123.47
-131.00
-105.15
-52.71
9.51
61.50
88.14
84.83
58.06
21.13
-12.55
-35.03
-45.56
-48.22
-47.33
-43.67
-34.58
-17.24
7.04
30.99
44.13
38.74
15.54
-15.01
-36.98
-37.17
-12.58
27.40
64.97
82.30
69.64
29.77
-23.65
-72.17
-100.25
-100.88
-76.90
-38.09
3.95
40.61
67.98
85.47
93.11
89.49
72.40
41.75
2.56
-34.49
-56.48
-54.43
-28.82
9.05
41.27
51.21
31.56
-11.88
-62.47
-99.92
-109.17
-86.51
-40.22
13.83
59.41
86.34
92.79
83.49
65.37
43.48
19.75
-5.32
-29.94
-49.18
-56.26
-46.60
-21.94
8.26
29.77
30.09
5.12
-37.65
-81.57
-108.07
-105.20
-72.99
-22.93
27.75
64.06
79.21
75.67
61.57
45.14
30.54
17.51
4.30
-8.71
-17.22
-14.95
2.01
31.00
61.74
79.69
72.56
36.67
-20.14
-80.53
-124.32
-136.78
-114.63
-67.15
-12.02
32.40
54.59
53.72
38.22
20.21
9.25
8.55
15.51
25.04
33.64
40.70
46.80
50.73
47.91
32.05
-0.40
-46.06
-93.54
-126.98
-132.93
-107.24
-58.11
-3.34
37.34
51.14
38.17
11.09
-11.57
-14.98
4.58
38.01
68.31
79.50
64.88
30.28
-9.24
-37.21
-43.96
-30.77
-8.05
10.79
16.47
8.12
-7.53
-20.89
-25.12
-19.36
-7.90
3.61
12.09
18.35
25.19
33.77
41.60
43.56
35.78
19.20
0.42
-11.23
-9.00
6.64
27.48
41.21
37.76
14.77
-20.76
-55.39
-75.45
-73.76
-53.04
-24.67
-3.22
0.66
-14.37
-39.74
-61.19
-66.29
-51.03
-22.01
7.07
22.78
19.57
2.80
-14.52
-19.07
-4.86
23.39
53.10
70.89
69.97
53.55
32.49
18.60
17.98
27.59
37.34
36.17
18.58
-11.82
-43.78
-64.21
-65.01
-47.15
-20.21
2.78
12.02
5.78
-9.26
-22.33
-24.53
-13.25
7.31
28.93
43.92
48.64
44.27
34.96
25.08
17.10
10.75
3.97
-5.40
-17.97
-31.95
-43.88
-50.05
-48.43
-39.80
-27.73
-16.85
-10.39
-8.51
-8.26
-5.36
3.44
18.00
34.59
47.50
51.91
46.50
33.96
19.45
7.55
-0.33
-6.61
-15.40
-28.82
-44.32
-55.02
-53.34
-35.93
-6.95
23.14
42.99
46.73
37.62
25.75
21.84
30.10
45.13
54.85
48.04
22.10
-14.13
-44.90
-56.46
-45.30
-20.55
1.44
7.15
-5.71
-26.58
-38.59
-29.30
0.90
38.60
65.05
67.60
47.53
18.90
-0.56
-0.90
13.80
28.08
25.28
-1.19
-43.11
-81.70
-98.85
-87.93
-57.23
-24.17
-4.06
-0.91
-6.11
-5.52
9.79
36.71
61.41
68.09
49.20
10.71
-31.20
-59.34
-64.87
-50.66
-27.80
-7.74
4.14
9.77
14.81
23.43
35.04
44.80
46.97
38.07
18.50
-7.76
-34.43
-54.46
-61.35
-51.41
-26.14
7.02
36.71
52.84
52.20
40.48
28.73
25.98
32.69
39.90
35.09
11.41
-26.22
-62.58
-81.00
-73.33
-44.79
-10.13
15.63
25.99
24.76
21.03
21.12
23.66
21.45
7.59
-18.38
-48.98
-72.44
-79.31
-67.16
-40.71
-8.89
19.57
38.99
47.60
46.98
41.27
35.53
33.95
37.56
42.93
43.37
32.74
10.21
-17.67
-39.52
-45.58
-34.08
-13.05
3.97
6.47
-6.03
-23.46
-31.64
-21.68
4.05
33.52
52.77
54.41
41.35
23.32
9.33
2.00
-2.82
-11.65
-27.57
-47.22
-62.32
-64.10
-48.11
-16.67
21.46
54.31
71.00
66.10
42.52
10.50
-16.82
-30.13
-29.04
-21.85
-19.89
-29.45
-47.01
-61.25
-60.55
-40.81
-8.24
24.38
45.27
49.84
41.79
29.64
20.82
17.93
18.41
16.85
8.52
-7.79
-28.56
-46.44
-53.19
-43.88
-20.40
8.47
30.83
38.17
30.50
16.22
6.35
6.97
14.93
20.23
13.24
-8.16
-36.35
-58.30
-63.34
-49.01
-21.71
7.23
27.92
36.22
34.54
29.74
28.76
35.05
46.29
55.15
52.81
34.14
1.93
-33.05
-56.76
-59.89
-43.68
-19.87
-3.73
-4.47
-19.42
-35.88
-39.84
-25.05
3.25
32.22
49.61
50.77
40.03
26.56
17.89
15.89
16.90
14.76
5.03
-12.70
-34.26
-52.30
-59.20
-50.50
-27.76
1.34
26.02
37.88
35.81
26.31
18.90
19.16
24.64
26.48
16.05
-8.21
-38.44
-61.42
-66.15
-49.95
-19.63
12.53
35.33
43.70
40.01
31.86
27.30
30.41
38.85
44.59
38.15
14.34
-23.68
-64.55
-94.00
-102.12
-88.45
-61.38
-32.61
-10.37
4.18
15.46
28.43
43.96
57.47
61.71
51.02
25.13
-9.80
-43.33
-64.92
-68.42
-54.59
-30.68
-6.55
10.35
18.56
22.37
27.69
36.93
46.56
48.97
37.61
11.99
-20.68
-48.50
-60.64
-52.58
-28.44
1.29
24.89
35.00
31.96
23.04
17.70
21.58
32.51
41.47
38.09
17.69
-14.67
-46.09
-62.33
-55.66
-29.05
5.63
34.01
46.80
43.85
32.95
24.04
22.61
26.31
26.50
14.26
-13.14
-48.89
-79.29
-90.31
-74.96
-37.52
8.32
46.09
64.41
61.80
46.06
28.65
17.60
13.33
9.28
-2.86
-26.55
-56.68
-81.34
-87.66
-69.01
-29.31
18.11
56.66
74.41
69.28
49.02
25.74
9.04
1.45
-1.30
-6.03
-16.44
-29.79
-38.08
-32.89
-11.09
21.92
53.76
70.89
65.50
39.76
4.38
-27.25
-45.74
-49.35
-43.22
-34.90
-29.24
-25.53
-18.73
-3.70
20.02
46.18
63.82
62.67
39.08
-1.29
-45.42
-78.43
-89.71
-77.08
-46.93
-10.76
20.38
40.46
50.03
53.56
54.89
53.68
45.50
25.62
-6.39
-43.78
-74.30
-85.46
-71.07
-35.10
9.21
45.31
61.36
55.65
36.41
15.76
2.54
-2.03
-3.65
-9.80
-23.74
-41.31
-52.72
-48.27
-24.65
11.93
48.15
70.18
70.37
50.51
20.24
-8.39
-26.80
-33.24
-32.49
-31.82
-35.91
-43.63
-48.83
-44.50
-27.50
-0.85
27.59
48.81
57.09
52.51
40.66
28.97
22.42
20.62
18.20
8.79
-10.38
-35.68
-57.76
-66.04
-54.43
-25.33
10.64
39.56
51.45
45.10
28.14
12.05
5.07
7.99
14.38
15.23
4.76
-15.57
-37.82
-52.32
-52.85
-40.05
-20.36
-2.15
8.97
12.70
13.65
17.67
27.75
41.91
53.90
56.88
47.37
27.71
5.08
-12.07
-18.76
-16.27
-11.51
-13.32
-27.04
-50.92
-76.14
-90.91
-86.67
-62.86
-27.53
6.64
28.76
35.30
31.28
26.24
27.99
37.53
48.20
49.91
35.67
6.37
-28.80
-56.63
-66.61
-56.01
-30.85
-2.25
19.56
30.30
32.77
33.83
39.48
50.69
62.52
67.09
58.17
35.57
5.81
-21.26
-37.48
-40.39
-33.98
-25.74
-21.93
-23.75
-26.55
-23.29
-9.39
13.88
39.48
57.65
61.07
48.71
26.38
3.51
-12.17
-18.48
-19.30
-21.21
-28.76
-41.01
-51.21
-50.82
-35.06
-6.74
24.22
45.65
48.97
33.67
7.41
-18.27
-34.02
-37.43
-33.33
-29.52
-31.43
-38.25
-43.24
-38.30
-19.61
8.43
34.44
45.61
35.01
5.82
-29.47
-54.83
-58.31
-37.52
-0.68
37.89
64.97
73.82
65.93
48.33
29.09
13.04
0.72
-10.07
-20.99
-30.38
-33.50
-25.40
-4.60
24.57
52.44
68.08
64.15
41.12
7.65
-23.15
-39.77
-38.01
-23.13
-7.08
-1.60
-11.55
-32.26
-52.68
-61.76
-54.34
-33.62
-8.83
10.38
19.32
20.36
20.40
25.93
38.07
51.89
59.49
55.24
39.66
19.50
3.90
-0.83
5.18
15.35
20.47
13.99
-3.81
-25.77
-41.88
-45.18
-35.89
-21.32
-11.56
-13.64
-27.38
-45.18
-56.09
-51.89
-31.70
-3.05
22.19
34.50
31.92
20.66
10.77
9.93
19.05
32.25
40.54
37.16
21.57
-0.24
-19.37
-28.82
-27.16
-18.73
-10.34
-7.13
-9.14
-11.44
-7.29
7.43
30.93
55.42
70.29
67.30
45.05
10.57
-23.69
-45.64
-49.00
-35.66
-13.69
7.43
21.76
29.18
33.54
38.27
42.71
41.49
28.09
-0.18
-38.44
-74.52
-94.04
-87.66
-56.45
-12.17
28.66
52.32
54.15
39.67
20.36
6.54
1.42
0.07
-6.46
-24.37
-52.39
-81.17
-97.79
-92.44
-64.11
-21.94
19.03
44.81
49.02
35.06
13.49
-4.06
-11.12
-9.15
-5.13
-5.55
-11.59
-17.96
-16.43
-1.48
25.06
53.47
70.52
66.27
39.66
-0.31
-38.13
-58.42
-53.03
-24.60
14.91
50.20
69.84
70.59
57.37
39.29
23.81
12.85
3.49
-8.20
-22.35
-33.93
-35.51
-22.45
2.68
29.68
45.19
39.91
13.86
-22.67
-53.74
-65.44
-52.58
-20.93
16.03
44.03
54.67
48.30
32.17
15.33
3.17
-5.28
-15.33
-31.86
-54.62
-76.68
-87.35
-78.24
-48.68
-7.53
30.70
52.79
53.32
36.97
15.43
0.37
-3.12
0.66
1.62
-9.05
-32.46
-60.06
-77.58
-73.12
-44.33
-0.39
42.25
67.89
69.20
50.10
22.39
-1.39
-14.80
-19.89
-23.84
-32.76
-46.54
-58.06
-57.38
-38.51
-3.99
35.08
63.94
71.31
55.00
22.95
-11.13
-34.39
-40.50
-31.48
-15.12
0.06
9.18
13.16
16.79
24.79
37.95
51.64
57.89
49.91
26.73
-4.98
-33.36
-46.45
-38.27
-11.88
22.32
51.50
66.57
65.57
53.41
37.68
23.97
13.32
3.30
-8.81
-22.59
-33.45
-35.09
-24.02
-3.28
17.66
26.72
15.45
-15.82
-56.51
-90.33
-102.81
-87.93
-50.77
-5.08
33.65
55.30
58.33
48.31
33.27
19.16
7.42
-3.56
-14.97
-24.71
-27.80
-19.27
1.87
30.23
54.81
63.47
48.82
12.14
-35.75
-78.04
-99.01
-90.92
-57.53
-12.37
26.87
46.36
42.16
20.78
-5.27
-24.46
-31.09
-27.03
-18.32
-10.30
-3.98
3.37
14.72
29.63
42.71
45.93
33.82
7.78
-23.23
-46.02
-49.55
-30.59
3.96
40.00
62.98
64.06
44.62
15.20
-9.95
-20.27
-13.45
4.57
23.52
35.13
37.26
33.48
29.09
26.50
23.40
14.64
-2.87
-26.44
-47.25
-54.72
-42.64
-13.51
21.23
45.78
47.44
22.53
-21.28
-67.69
-98.85
-103.05
-79.81
-39.52
1.60
29.08
36.72
27.92
12.22
-0.98
-7.19
-7.96
-7.90
-9.96
-12.24
-9.19
4.37
28.75
57.22
78.14
80.72
60.93
24.24
-15.81
-43.64
-48.75
-30.72
1.11
32.78
52.34
55.41
46.11
32.96
22.37
14.71
4.70
-14.47
-44.71
-79.73
-106.92
-113.72
-94.43
-53.98
-6.22
32.92
52.82
52.67
40.03
25.75
17.54
16.09
15.79
9.51
-6.14
-27.99
-46.94
-53.12
-41.38
-14.73
16.58
39.59
44.91
31.15
5.16
-21.89
-40.34
-46.12
-41.60
-32.68
-24.20
-16.65
-6.56
10.05
33.70
58.95
75.86
74.96
52.49
13.98
-27.17
-55.46
-60.59
-42.28
-10.00
22.37
43.71
50.78
48.56
45.51
47.45
53.69
57.62
51.05
29.83
-3.05
-38.18
-64.13
-72.88
-63.67
-43.19
-21.98
-9.25
-8.13
-14.32
-18.93
-13.94
2.93
26.50
47.07
55.71
49.53
33.02
15.17
4.03
2.11
5.33
5.83
-3.02
-22.22
-45.95
-64.51
-69.17
-56.96
-32.44
-5.54
13.91
21.12
18.51
13.64
14.19
22.72
34.76
41.51
35.04
13.42
-17.04
-44.74
-58.88
-55.19
-38.11
-18.43
-7.02
-8.48
-18.73
-27.81
-26.20
-10.80
12.73
33.65
42.55
37.15
23.34
11.41
9.43
18.23
31.32
38.92
34.14
17.23
-4.37
-20.64
-24.78
-17.02
-4.70
1.99
-3.82
-21.57
-43.32
-57.95
-57.23
-40.59
-15.26
7.82
19.84
18.58
9.35
1.16
1.39
11.68
27.31
40.03
43.26
36.06
23.51
13.65
12.65
20.75
31.79
37.07
30.36
11.93
-11.12
-28.78
-33.98
-26.67
-14.13
-6.84
-12.57
-31.28
-54.76
-70.91
-70.49
-52.48
-25.07
-1.49
7.36
-1.14
-19.92
-36.58
-40.43
-28.66
-7.34
12.60
22.37
20.16
11.82
6.34
10.19
23.18
38.97
49.43
49.61
40.99
30.40
25.63
30.54
42.90
55.23
59.48
51.18
32.01
9.04
-9.05
-16.49
-13.71
-6.64
-3.98
-12.32
-31.75
-55.28
-72.23
-73.72
-57.46
-29.84
-2.47
14.07
15.42
5.67
-5.52
-8.80
-0.76
15.01
30.69
39.18
38.52
32.76
28.55
30.50
38.34
46.45
47.47
36.63
14.80
-11.42
-32.82
-42.27
-38.98
-28.63
-20.67
-23.15
-37.51
-57.28
-71.37
-70.27
-51.53
-22.17
5.31
19.84
17.51
3.80
-10.23
-14.66
-6.51
9.66
25.01
32.50
31.29
26.51
25.28
31.69
43.86
54.61
56.02
43.97
20.78
-5.46
-25.11
-31.88
-26.27
-15.19
-8.43
-13.01
-28.72
-48.05
-59.82
-55.33
-33.49
-2.04
26.46
41.19
38.69
24.75
10.23
4.66
10.87
23.79
33.96
33.53
21.01
1.87
-14.78
-21.67
-17.85
-9.10
-4.74
-11.86
-30.43
-52.40
-65.84
-61.53
-38.57
-5.71
23.20
36.79
32.26
16.71
2.57
-0.05
10.74
28.34
41.95
43.33
31.59
13.07
-3.06
-10.33
-8.45
-2.92
-0.96
-7.47
-21.90
-38.46
-49.28
-48.34
-34.60
-12.50
10.35
26.84
33.86
33.27
30.05
28.87
30.77
32.28
27.29
11.57
-13.65
-40.80
-58.99
-59.66
-41.73
-12.49
15.90
32.70
34.33
25.52
15.83
13.61
20.97
32.46
39.16
34.16
17.38
-3.81
-18.74
-19.84
-7.05
11.56
23.74
19.94
-1.08
-31.01
-55.77
-62.79
-47.93
-17.29
15.89
38.38
44.11
36.30
24.25
17.17
18.28
22.65
21.26
6.99
-20.25
-51.94
-75.63
-81.58
-67.88
-41.62
-15.07
1.31
4.24
-1.48
-5.96
-1.02
14.58
34.75
49.34
50.14
36.30
14.57
-4.80
-13.62
-10.74
-2.19
3.41
-0.04
-11.94
-25.09
-30.39
-22.42
-2.35
21.63
39.23
43.56
34.36
18.44
5.30
1.57
7.27
15.99
18.27
8.04
-13.01
-36.02
-48.71
-42.59
-18.14
15.41
44.49
58.11
53.48
36.32
16.72
3.30
-1.65
-2.61
-6.61
-18.65
-37.61
-56.22
-65.10
-57.84
-34.51
-2.46
27.69
47.02
52.29
47.27
39.41
34.76
34.46
33.81
25.31
4.42
-26.43
-58.08
-78.32
-78.48
-58.45
-26.52
4.23
22.99
26.57
19.82
12.02
10.83
17.40
25.88
27.74
16.72
-6.39
-33.49
-53.54
-58.04
-45.58
-22.98
-1.19
10.41
8.88
-0.35
-7.33
-3.92
11.73
33.37
50.22
53.32
40.66
18.11
-3.92
-16.81
-18.62
-14.14
-12.09
-19.03
-34.70
-52.08
-60.71
-52.67
-27.44
7.47
40.39
60.73
64.39
55.25
41.49
30.70
25.30
21.34
12.29
-5.90
-31.64
-56.97
-71.99
-70.43
-52.79
-26.46
-1.90
13.10
17.02
14.66
14.19
21.80
37.54
55.41
65.59
60.05
37.56
4.70
-26.74
-45.50
-46.96
-35.27
-20.30
-12.56
-16.75
-29.26
-41.01
-42.53
-29.60
-6.04
18.97
36.16
40.87
35.87
28.60
25.93
29.88
35.64
34.56
20.12
-7.19
-38.96
-62.56
-68.16
-54.55
-29.62
-6.59
3.87
-0.36
-12.21
-19.90
-14.22
5.58
31.41
51.04
54.79
41.27
17.81
-3.71
-13.65
-9.82
1.71
10.49
8.39
-5.36
-23.42
-34.29
-29.42
-8.11
21.51
46.50
55.90
46.32
23.31
-2.05
-19.45
-24.91
-21.87
-18.37
-21.71
-33.36
-48.34
-58.05
-55.24
-38.66
-13.52
11.34
27.96
33.58
31.19
27.28
27.64
33.92
42.82
48.31
45.65
34.62
20.19
10.03
9.90
19.94
34.12
43.45
41.21
27.12
7.59
-7.96
-12.77
-6.96
2.35
5.22
-5.21
-28.10
-54.83
-73.65
-75.81
-60.68
-36.33
-15.55
-9.21
-20.24
-42.04
-61.75
-67.48
-54.68
-28.64
-1.56
14.81
15.52
5.12
-5.52
-6.31
6.07
26.44
44.42
51.20
44.84
31.21
20.08
18.61
26.92
38.20
42.47
32.89
10.09
-17.85
-39.20
-44.90
-33.63
-12.07
7.78
15.08
6.01
-14.65
-35.58
-45.26
-38.39
-17.97
6.23
23.99
30.54
28.51
25.76
29.45
40.69
54.06
60.38
52.97
32.22
5.89
-14.90
-22.04
-14.93
-0.58
9.95
8.20
-7.11
-29.04
-46.05
-48.25
-32.67
-4.91
23.57
41.48
43.48
32.52
17.61
8.12
8.34
15.07
19.86
14.86
-1.99
-24.97
-43.77
-49.67
-40.91
-23.92
-9.61
-6.72
-16.46
-31.45
-40.25
-34.48
-13.57
14.47
37.76
47.40
41.87
27.70
14.64
9.70
12.76
16.67
11.91
-7.29
-38.51
-71.48
-92.78
-92.98
-71.20
-35.49
1.46
29.06
43.32
47.66
49.00
52.04
56.04
55.01
41.89
13.98
-24.23
-61.62
-85.37
-87.15
-66.71
-32.67
2.02
25.88
34.10
30.26
22.77
20.08
25.01
33.31
36.72
27.96
6.45
-20.98
-43.10
-50.48
-41.04
-20.36
1.26
15.32
19.65
18.90
20.57
29.03
42.28
52.18
49.36
29.46
-3.86
-39.27
-63.45
-67.87
-52.64
-26.65
-2.05
11.89
13.63
9.52
8.88
18.34
36.90
56.44
66.36
59.48
36.72
6.12
-21.27
-37.45
-41.62
-38.92
-36.89
-39.73
-45.79
-48.12
-39.24
-16.46
16.22
48.69
69.88
73.16
59.18
35.31
11.28
-5.70
-14.27
-18.49
-24.20
-34.53
-47.10
-55.28
-51.92
-33.89
-4.76
26.47
49.41
57.32
50.10
33.75
16.72
5.42
1.31
1.23
0.40
-3.78
-9.66
-11.96
-5.03
12.83
37.26
58.81
66.81
54.91
24.76
-14.06
-48.37
-67.30
-67.19
-52.62
-33.18
-17.90
-10.49
-8.63
-6.74
-0.92
7.53
12.33
6.25
-13.48
-41.87
-67.30
-76.76
-62.75
-27.49
17.62
57.28
79.49
80.65
66.04
45.64
28.01
15.95
6.28
-6.44
-25.03
-46.39
-62.30
-64.09
-47.76
-17.18
16.95
41.98
49.12
37.41
13.54
-12.10
-30.74
-39.14
-39.90
-38.30
-37.90
-37.54
-32.00
-15.88
11.88
45.24
72.84
83.11
70.23
38.17
-0.44
-29.82
-38.63
-25.03
2.96
32.36
52.02
57.52
52.24
42.80
34.27
26.69
15.95
-1.84
-26.16
-50.04
-63.26
-57.38
-31.59
5.57
39.40
55.09
45.37
13.54
-27.14
-60.09
-72.59
-61.31
-33.16
-0.61
24.21
35.65
35.21
29.30
23.74
19.62
13.61
0.64
-20.51
-45.44
-64.42
-67.87
-51.80
-20.34
15.19
42.27
52.72
46.80
31.49
16.61
8.82
8.07
9.00
4.17
-9.94
-30.97
-50.71
-59.80
-52.72
-30.71
-1.80
23.64
37.58
38.72
31.66
24.25
22.23
25.35
28.23
23.15
6.22
-20.08
-46.42
-61.55
-58.24
-36.85
-5.98
22.49
38.86
40.92
33.48
25.43
23.57
28.12
33.28
30.14
13.47
-15.14
-46.41
-68.25
-71.93
-56.30
-28.85
-1.11
16.89
22.14
18.70
14.97
17.67
27.34
38.57
42.51
33.24
10.78
-17.52
-41.07
-51.35
-45.88
-29.66
-11.41
0.80
4.63
3.52
4.76
13.73
29.82
46.39
53.37
43.95
18.03
-16.12
-46.19
-61.88
-59.45
-43.55
-23.25
-7.43
0.67
3.60
7.75
18.07
34.23
50.77
59.50
54.90
36.90
11.99
-10.60
-23.72
-25.81
-22.05
-20.21
-26.28
-39.47
-52.85
-56.48
-43.62
-15.34
19.87
49.60
64.35
61.37
45.92
27.10
12.33
3.78
-2.57
-12.45
-29.37
-50.22
-66.87
-69.76
-53.67
-21.56
16.67
48.18
63.78
61.42
47.04
29.87
16.97
9.79
3.56
-7.82
-27.57
-51.76
-71.26
-75.89
-60.36
-27.94
11.10
43.89
61.49
62.22
51.89
38.97
29.30
23.06
14.84
-1.13
-26.85
-56.70
-80.02
-85.66
-68.55
-33.07
8.64
41.84
56.24
50.03
30.22
7.64
-8.88
-16.84
-20.20
-25.39
-36.44
-50.97
-61.28
-58.15
-36.97
-0.96
39.21
70.40
83.35
76.84
57.64
36.05
20.08
11.22
4.98
-5.07
-21.96
-42.34
-57.84
-59.67
-44.13
-15.02
17.88
43.66
55.31
52.66
41.44
29.43
21.72
17.92
13.02
1.01
-20.37
-47.15
-70.26
-79.75
-70.30
-44.22
-10.70
18.56
35.23
38.19
33.04
27.89
28.05
32.78
35.99
30.34
12.42
-14.35
-40.71
-56.20
-54.53
-36.93
-11.39
11.72
25.04
27.81
25.05
23.89
28.65
37.62
44.04
39.97
21.90
-6.41
-34.58
-50.90
-48.05
-27.27
2.30
28.22
40.85
38.26
26.63
16.42
15.72
26.00
40.66
49.32
43.39
21.39
-10.34
-40.94
-60.71
-66.28
-61.37
-54.11
-51.02
-52.98
-54.40
-47.48
-27.52
3.07
35.59
59.38
67.71
61.14
46.99
34.68
29.99
31.99
33.42
25.92
5.11
-25.50
-55.95
-74.12
-71.98
-49.52
-14.64
20.67
46.11
57.48
57.27
51.27
44.24
36.21
23.42
1.34
-30.19
-65.19
-92.59
-101.53
-87.05
-52.85
-10.57
25.91
46.52
49.43
40.53
29.59
23.95
24.96
27.60
24.51
10.57
-13.19
-39.83
-59.98
-66.63
-59.50
-44.66
-31.55
-27.15
-31.98
-39.45
-40.18
-27.80
-3.17
25.33
46.33
51.71
41.30
22.98
8.24
5.46
15.88
32.91
46.92
50.59
43.17
30.02
19.29
16.75
22.64
32.00
37.86
35.69
26.20
14.72
7.37
7.31
11.85
14.20
6.85
-13.34
-42.84
-72.16
-90.32
-90.24
-72.21
-44.00
-16.92
-0.41
2.54
-3.79
-10.66
-10.45
-0.55
15.02
28.90
34.88
32.07
25.10
20.96
23.83
31.69
36.94
30.75
8.84
-24.77
-58.81
-80.14
-80.42
-60.67
-30.53
-3.30
10.70
9.06
-2.38
-13.42
-15.14
-4.52
14.85
35.22
49.44
54.32
51.72
46.34
42.21
39.82
35.80
25.42
6.41
-18.28
-40.80
-52.14
-47.37
-28.95
-6.40
8.25
7.12
-9.06
-30.93
-45.41
-42.88
-22.34
8.25
36.58
52.35
52.56
42.01
29.59
22.61
22.56
24.73
21.50
7.69
-15.41
-39.91
-55.39
-54.67
-38.26
-14.40
5.70
14.11
10.94
3.97
3.30
14.50
34.57
53.14
58.48
44.84
15.98
-16.60
-39.91
-46.71
-38.85
-25.58
-17.74
-21.87
-36.64
-54.09
-64.28
-60.39
-42.71
-17.77
4.89
18.24
20.97
17.78
15.89
20.42
31.31
43.33
49.52
45.44
32.29
16.48
5.99
5.74
14.65
25.89
30.45
22.14
1.35
-24.79
-45.68
-52.92
-44.35
-25.56
-6.05
5.79
7.95
5.16
5.35
13.92
29.60
44.82
50.18
40.72
19.14
-5.44
-22.77
-27.57
-22.45
-16.11
-17.77
-31.74
-54.15
-75.04
-83.41
-72.93
-45.28
-9.09
24.30
46.24
54.34
52.58
48.18
46.79
49.50
52.04
47.98
32.51
6.42
-23.67
-47.86
-58.07
-51.99
-34.50
-14.89
-1.65
2.44
1.13
2.10
11.30
28.71
47.76
59.22
56.73
41.21
20.29
3.69
-2.58
0.00
3.75
-0.25
-16.19
-40.29
-62.62
-72.46
-64.55
-42.38
-16.24
2.26
6.70
-0.68
-10.85
-13.58
-3.52
16.49
37.67
50.42
49.99
39.21
26.22
19.19
21.25
28.19
31.29
22.28
-1.26
-33.64
-63.28
-78.69
-74.23
-53.78
-28.51
-11.54
-10.68
-24.28
-42.12
-51.34
-43.57
-20.02
9.89
33.27
41.53
34.69
21.09
12.04
15.29
30.39
49.71
62.71
62.19
48.29
28.45
12.60
7.64
12.85
20.69
20.76
6.34
-20.92
-51.18
-71.51
-72.80
-55.32
-28.12
-4.04
7.87
7.29
1.84
1.48
11.60
29.28
45.39
50.38
40.66
20.84
0.90
-9.84
-8.42
0.15
6.21
1.47
-16.14
-40.76
-61.68
-68.88
-58.06
-32.85
-2.76
21.66
33.81
33.99
28.22
24.24
26.78
34.95
42.88
43.37
32.01
10.16
-15.81
-37.06
-47.04
-44.30
-33.36
-21.87
-16.89
-20.68
-30.00
-37.58
-36.40
-23.37
-1.37
22.64
41.04
49.75
49.81
46.02
43.21
43.19
43.01
37.50
22.63
-0.82
-26.73
-46.11
-52.00
-43.13
-25.13
-7.29
2.92
3.93
0.67
0.92
9.63
25.15
39.70
44.09
33.37
10.58
-14.66
-31.44
-33.61
-23.18
-8.97
-1.51
-6.85
-23.29
-42.01
-52.01
-46.11
-24.56
4.98
31.76
47.40
50.12
44.19
36.48
30.96
26.26
16.70
-2.85
-32.07
-63.56
-85.71
-88.71
-70.00
-36.21
0.05
26.38
36.18
31.25
19.80
11.33
11.78
20.65
32.29
39.15
36.53
24.96
10.04
-1.13
-3.90
0.69
6.86
7.10
-2.78
-20.55
-38.44
-46.82
-39.92
-18.85
8.56
32.39
45.61
47.74
43.63
39.75
39.13
39.66
35.28
20.68
-4.87
-35.87
-62.60
-75.81
-71.17
-51.63
-25.64
-3.35
8.75
10.38
7.34
7.29
15.17
29.67
44.37
50.94
44.55
27.05
6.02
-9.15
-13.07
-7.28
0.40
0.95
-10.69
-31.98
-54.23
-66.92
-63.52
-44.79
-18.54
4.51
16.54
16.20
8.96
3.09
4.75
14.06
25.66
31.77
27.29
12.98
-4.88
-17.89
-20.76
-14.38
-5.38
-1.78
-8.17
-22.38
-36.68
-41.98
-33.13
-11.93
13.88
34.73
44.39
42.94
36.01
30.63
30.78
34.92
37.00
30.30
11.86
-14.85
-41.20
-57.40
-57.74
-43.84
-23.90
-8.18
-3.17
-8.35
-16.57
-18.60
-8.73
11.80
35.45
52.76
57.37
49.52
35.03
21.82
14.82
13.43
12.38
5.49
-9.84
-30.57
-48.66
-55.65
-46.92
-24.74
3.08
26.87
39.91
41.85
37.43
33.62
34.46
39.26
42.46
37.37
20.53
-6.05
-34.67
-55.94
-62.83
-55.14
-38.91
-24.01
-18.31
-23.22
-33.42
-39.50
-34.51
-17.56
4.70
22.72
29.39
24.36
14.20
7.51
9.85
19.34
28.56
28.32
13.80
-12.05
-40.03
-58.77
-61.14
-47.07
-24.07
-2.65
8.85
8.27
0.53
-6.09
-4.34
7.26
24.42
39.12
44.60
39.16
26.49
13.57
5.63
3.55
3.26
-0.83
-11.88
-28.04
-42.56
-47.70
-38.83
-17.54
9.01
31.54
43.20
43.08
36.06
29.63
29.25
34.98
41.19
39.65
24.63
-3.34
-36.79
-64.53
-77.04
-71.20
-51.69
-28.08
-9.55
-0.16
2.63
5.29
13.43
27.38
41.33
46.74
37.60
14.81
-13.32
-35.00
-41.29
-30.70
-9.78
10.86
22.61
23.30
17.73
13.62
16.47
25.89
35.98
38.88
29.73
9.88
-13.66
-31.73
-37.95
-31.83
-18.98
-7.74
-4.32
-9.17
-16.47
-17.75
-7.00
14.88
39.91
56.62
55.92
36.35
4.77
-26.90
-47.84
-53.45
-46.77
-35.75
-28.01
-26.23
-26.83
-23.12
-10.15
11.05
33.02
45.24
40.18
17.89
-13.25
-40.30
-52.46
-46.38
-27.66
-7.09
5.57
6.75
0.76
-3.55
1.62
17.88
39.93
58.38
65.07
57.91
41.61
24.82
14.65
12.62
14.13
11.72
0.22
-19.55
-40.20
-51.84
-47.40
-26.80
2.66
30.05
46.11
47.86
39.01
26.97
18.10
13.91
10.69
2.18
-15.58
-41.20
-67.67
-85.55
-87.57
-72.54
-45.79
-16.48
6.97
20.85
27.05
31.05
37.49
46.80
54.23
52.46
36.17
6.07
-29.77
-59.09
-70.99
-61.31
-34.79
-2.78
22.55
34.37
33.95
28.80
27.26
33.00
42.69
48.28
42.31
23.13
-3.50
-27.48
-39.73
-37.86
-27.19
-17.83
-18.73
-32.10
-52.17
-67.95
-69.77
-54.41
-27.01
1.94
22.23
29.24
25.86
19.97
19.14
26.02
36.95
44.16
40.78
25.12
2.03
-19.19
-29.74
-25.83
-11.00
6.44
17.73
18.91
13.08
7.75
10.35
22.79
40.36
54.15
56.50
45.81
27.13
9.33
-0.58
-1.35
2.01
1.27
-9.63
-31.00
-56.39
-75.33
-78.76
-63.29
-33.64
-0.17
26.02
38.32
37.87
31.47
27.31
29.26
34.44
35.34
24.42
-0.25
-33.14
-63.48
-80.42
-78.83
-60.99
-35.62
-12.86
0.62
4.33
3.72
5.96
15.76
32.07
48.62
57.65
54.18
39.63
20.88
6.63
2.26
6.39
12.24
11.33
-0.98
-22.12
-43.99
-57.04
-56.13
-42.89
-25.00
-11.46
-7.24
-11.13
-16.31
-15.10
-3.61
16.24
37.70
53.68
60.33
59.00
54.83
52.96
55.47
59.68
60.45
53.16
36.98
15.92
-3.37
-14.91
-16.96
-12.76
-8.97
-12.02
-24.49
-43.28
-60.98
-69.73
-65.62
-51.24
-34.77
-25.92
-30.18
-45.46
-62.71
-70.67
-62.56
-40.15
-13.46
5.06
7.44
-5.25
-23.41
-34.81
-31.35
-13.70
9.87
28.72
35.90
32.14
24.69
22.44
30.35
46.50
63.31
71.97
67.71
52.48
33.65
19.73
15.42
19.12
24.09
22.39
9.65
-12.23
-35.94
-52.49
-56.02
-46.91
-31.90
-20.33
-19.14
-28.84
-42.88
-51.31
-46.70
-28.89
-5.31
13.08
18.06
9.33
-5.67
-16.26
-15.06
-2.27
14.82
26.53
26.94
17.38
5.39
-0.08
5.96
21.85
40.29
52.81
54.28
45.54
32.61
22.72
20.05
22.88
25.03
19.66
3.78
-18.90
-39.72
-49.28
-42.77
-22.84
1.79
20.75
27.69
23.35
14.51
9.31
11.93
20.03
25.77
21.15
3.10
-23.88
-49.15
-61.67
-55.64
-34.06
-6.97
13.80
20.95
15.47
5.07
-0.59
3.86
16.06
27.68
28.89
14.52
-12.73
-43.38
-65.85
-72.37
-62.29
-42.31
-22.26
-9.84
-6.87
-8.47
-6.94
3.45
22.42
43.04
55.74
53.28
35.65
10.54
-10.87
-19.71
-14.69
-1.76
9.21
10.89
3.07
-8.10
-13.72
-8.31
6.74
23.98
34.23
32.18
19.43
3.54
-6.59
-6.29
2.47
11.72
12.56
0.63
-21.23
-43.42
-54.94
-49.00
-26.66
3.46
30.34
45.70
48.17
43.11
38.18
38.67
43.51
46.36
39.26
17.96
-14.22
-47.53
-69.98
-73.55
-58.70
-33.84
-11.29
-0.68
-3.84
-14.70
-23.00
-21.03
-7.89
9.81
22.19
22.60
11.18
-4.48
-14.03
-10.45
6.48
29.45
48.24
55.13
48.71
34.40
20.29
12.37
10.70
9.70
2.14
-16.00
-41.54
-64.95
-75.19
-65.78
-39.51
-7.14
17.45
24.57
14.19
-5.02
-20.43
-22.55
-10.01
10.72
29.47
38.86
37.89
31.56
26.89
27.46
31.22
31.60
21.47
-1.98
-34.81
-67.54
-89.13
-92.30
-76.97
-50.14
-22.39
-2.79
5.57
6.13
6.31
12.67
26.55
43.47
55.25
54.80
40.70
17.87
-4.66
-18.67
-21.10
-14.91
-7.20
-4.47
-8.40
-15.48
-18.50
-11.51
6.15
29.12
47.84
53.60
43.53
21.65
-2.49
-19.28
-23.93
-18.38
-9.98
-6.38
-10.36
-18.63
-23.04
-16.27
3.25
29.84
52.42
60.47
49.94
24.92
-3.97
-25.40
-33.10
-28.03
-17.36
-9.28
-7.62
-10.45
-11.35
-4.53
10.52
28.20
39.34
36.65
19.76
-4.58
-25.59
-34.62
-30.24
-18.37
-8.74
-8.63
-17.82
-29.29
-33.37
-23.80
-2.04
23.83
43.61
50.50
44.73
32.18
20.09
12.94
9.92
6.71
-1.15
-15.24
-32.60
-47.44
-54.04
-49.61
-35.91
-18.40
-3.57
3.84
3.39
-0.88
-2.86
2.36
15.28
31.35
43.18
44.44
33.87
16.49
0.67
-6.50
-3.70
3.25
4.85
-6.08
-29.25
-55.81
-72.70
-69.64
-45.32
-8.21
27.80
50.71
56.28
49.14
38.73
33.08
33.89
36.11
31.66
14.79
-13.55
-45.26
-68.79
-74.75
-60.81
-33.13
-2.92
19.09
28.06
26.99
23.48
24.33
31.03
38.53
38.75
26.06
1.43
-27.39
-49.63
-57.16
-48.48
-29.00
-7.85
7.14
13.13
12.97
12.81
17.43
26.76
35.46
35.64
21.87
-4.42
-34.76
-57.07
-61.72
-46.94
-19.58
8.36
26.36
30.75
26.18
21.29
23.16
31.99
40.76
39.68
22.14
-10.42
-48.09
-77.12
-86.56
-72.96
-42.20
-5.90
24.25
41.25
45.31
41.79
36.78
33.29
29.70
21.41
5.43
-16.05
-35.64
-43.74
-34.44
-10.05
19.37
39.64
39.41
16.44
-20.75
-56.92
-76.61
-71.67
-44.56
-6.25
28.99
50.41
55.46
48.91
38.44
29.68
22.49
12.39
-4.50
-27.05
-47.51
-54.68
-40.76
-6.92
35.73
69.87
80.23
61.41
20.66
-25.15
-57.53
-65.41
-49.26
-19.36
10.10
28.94
35.48
35.06
34.73
37.53
39.52
32.64
11.20
-22.85
-58.70
-81.18
-78.79
-50.06
-4.78
40.23
69.48
76.00
63.46
42.80
25.14
15.29
10.18
2.46
-13.47
-36.30
-57.13
-64.47
-51.14
-19.38
19.14
48.80
58.07
44.93
17.64
-10.47
-28.23
-32.02
-26.75
-22.01
-26.18
-41.16
-61.37
-76.73
-78.12
-62.25
-33.31
-0.78
25.36
39.48
42.60
40.81
40.99
45.94
52.28
52.41
39.38
12.11
-22.35
-51.49
-63.52
-53.37
-25.49
8.38
35.36
47.75
46.45
39.03
34.22
36.03
41.08
41.18
28.88
2.98
-29.66
-56.96
-68.20
-59.83
-37.46
-13.13
1.19
0.08
-12.86
-27.47
-32.93
-23.92
-3.06
21.06
38.64
44.17
39.23
30.80
26.36
28.93
34.37
33.61
18.61
-11.87
-49.70
-80.06
-88.77
-70.16
-30.51
14.37
47.19
58.18
49.18
31.32
17.34
13.82
18.02
20.84
13.33
-7.19
-35.06
-59.59
-70.90
-65.06
-45.38
-19.99
2.96
18.86
27.89
33.16
37.64
41.77
42.76
36.29
19.48
-6.43
-35.29
-58.02
-66.51
-57.78
-35.66
-9.13
12.09
22.39
22.83
19.67
20.12
27.50
38.54
45.07
38.71
16.32
-17.14
-50.21
-70.48
-70.73
-52.25
-24.19
1.83
17.78
23.05
23.67
27.69
39.15
54.90
66.37
64.73
46.67
17.48
-11.74
-30.07
-32.35
-22.06
-8.69
-1.80
-5.57
-16.45
-25.45
-23.93
-9.14
14.37
37.01
49.24
46.57
31.77
12.49
-2.78
-9.36
-8.79
-7.24
-11.36
-24.20
-42.67
-58.65
-63.44
-52.78
-29.22
-1.30
20.97
31.25
30.14
23.74
19.74
22.25
28.73
32.05
24.92
4.94
-22.93
-48.20
-60.47
-54.92
-35.05
-11.23
5.24
8.33
0.48
-9.28
-10.55
1.79
24.18
46.68
58.60
54.81
38.71
19.82
7.58
6.03
11.54
15.25
8.87
-10.27
-37.44
-62.92
-76.99
-75.01
-59.53
-38.41
-20.67
-11.59
-10.14
-10.40
-5.64
7.96
28.42
48.83
61.15
60.73
48.73
31.54
17.09
10.02
9.33
9.44
3.63
-11.09
-31.33
-48.79
-54.81
-44.98
-22.07
5.19
26.85
37.17
37.09
33.21
32.99
39.32
48.26
51.25
39.77
11.40
-27.13
-62.53
-81.04
-75.04
-47.18
-9.05
25.04
45.21
50.33
47.61
46.92
53.85
65.90
74.16
68.55
44.93
8.63
-27.70
-50.66
-53.03
-37.75
-16.19
-1.75
-2.88
-18.67
-40.06
-55.35
-56.62
-44.21
-25.62
-11.04
-7.78
-16.21
-30.41
-42.51
-47.00
-43.79
-37.57
-33.91
-35.52
-40.43
-43.02
-37.70
-22.55
-0.75
20.93
35.46
39.53
35.15
29.06
28.63
37.88
54.90
72.32
81.19
75.89
57.75
34.54
16.44
10.47
16.27
26.80
32.41
26.72
10.53
-8.70
-21.88
-23.34
-14.78
-4.39
-1.79
-12.56
-34.79
-59.72
-76.62
-78.83
-67.26
-49.96
-37.46
-36.33
-45.50
-56.46
-58.53
-45.16
-17.81
14.16
38.73
47.79
41.33
26.86
15.27
14.38
24.57
39.81
51.21
52.70
44.51
32.61
24.44
24.58
32.08
40.95
44.24
38.22
24.81
10.42
2.51
4.94
15.25
26.10
28.91
18.82
-2.19
-25.88
-42.45
-45.82
-37.04
-24.22
-17.53
-23.17
-39.27
-56.93
-64.83
-56.25
-33.73
-7.59
9.17
8.39
-8.44
-30.93
-45.82
-44.29
-26.98
-3.62
13.09
14.96
3.03
-13.30
-22.09
-16.45
1.23
20.82
30.51
24.06
4.64
-16.90
-28.52
-23.63
-4.54
18.94
35.57
39.09
31.35
20.44
15.86
22.63
38.18
54.58
62.81
58.18
42.97
24.92
12.37
9.81
15.51
22.38
22.54
11.96
-7.05
-26.84
-38.43
-36.91
-24.45
-9.24
-1.30
-6.83
-24.27
-44.89
-57.80
-56.12
-40.95
-20.98
-7.41
-7.03
-18.22
-31.93
-36.92
-26.17
-1.24
28.70
51.84
60.10
52.96
37.47
23.80
19.22
24.34
33.06
36.55
28.88
11.09
-9.35
-22.61
-22.66
-11.22
2.60
7.63
-2.87
-26.62
-52.87
-68.08
-63.49
-40.26
-8.75
17.16
27.88
23.51
13.03
8.00
15.14
32.35
50.14
57.92
50.85
32.52
12.52
0.20
-0.55
6.40
12.39
9.12
-6.58
-31.14
-56.11
-72.32
-74.50
-63.61
-46.32
-31.48
-25.57
-29.01
-36.05
-37.94
-28.18
-6.60
20.10
41.97
51.13
46.31
33.41
21.88
19.42
27.76
41.92
53.42
55.55
47.22
33.50
22.28
19.50
25.12
33.10
35.15
25.89
6.71
-14.56
-28.07
-28.00
-16.50
-2.51
3.13
-5.87
-27.21
-51.06
-65.72
-64.20
-47.90
-26.13
-10.85
-10.24
-24.09
-44.37
-59.72
-61.59
-49.09
-29.12
-12.11
-5.58
-9.89
-18.02
-20.16
-10.13
10.37
32.86
47.42
48.53
38.78
27.00
22.55
29.40
44.18
58.60
64.39
58.45
44.29
29.69
21.89
23.67
32.28
40.65
41.45
30.95
11.25
-10.79
-26.99
-31.89
-26.27
-16.84
-12.34
-18.47
-34.40
-52.82
-63.91
-61.30
-46.25
-26.82
-13.34
-12.29
-22.11
-34.00
-37.28
-26.23
-3.55
21.48
38.42
41.94
34.87
25.84
23.44
30.70
43.79
54.63
56.12
46.61
30.60
15.85
8.40
9.44
15.09
18.35
13.14
-2.54
-25.22
-47.55
-61.57
-62.35
-51.11
-34.90
-22.96
-21.93
-32.03
-46.71
-56.26
-53.36
-37.76
-16.49
0.43
5.89
0.20
-9.08
-11.72
-1.44
19.99
43.99
60.06
62.28
52.45
38.63
29.70
29.21
33.38
33.52
22.05
-2.05
-31.62
-54.58
-60.80
-47.51
-21.10
6.37
23.68
26.06
17.37
7.11
4.35
12.78
28.88
44.46
51.56
47.17
34.42
20.23
10.96
8.60
9.74
7.95
-2.35
-22.00
-46.00
-65.70
-72.85
-64.27
-43.71
-20.41
-4.55
-1.93
-10.92
-23.32
-28.95
-21.37
-1.60
22.41
40.23
44.62
35.56
20.09
7.84
5.34
12.39
22.09
25.05
14.96
-7.30
-33.63
-52.97
-57.41
-46.24
-26.32
-8.32
-0.40
-3.67
-11.85
-15.21
-6.86
13.38
38.09
56.31
59.63
47.07
25.44
5.20
-5.45
-4.92
1.07
3.35
-4.92
-23.85
-46.36
-62.24
-63.88
-50.45
-28.72
-8.95
1.11
0.72
-3.72
-2.96
8.94
30.58
53.35
66.31
62.84
44.94
22.42
7.06
5.62
15.88
27.47
28.26
11.69
-19.01
-52.23
-74.30
-76.65
-59.83
-32.99
-8.26
6.15
10.03
10.31
15.72
30.85
52.64
71.18
75.36
59.35
26.64
-11.20
-40.36
-51.68
-44.95
-28.80
-15.15
-12.32
-20.46
-32.00
-36.91
-28.63
-8.04
16.85
35.55
41.16
34.30
22.27
14.62
17.28
29.34
43.25
49.39
41.90
22.20
-1.43
-18.75
-23.42
-16.22
-5.01
-0.04
-7.73
-26.64
-47.97
-60.45
-56.92
-38.10
-12.54
7.91
14.79
7.76
-5.73
-14.98
-12.44
2.28
22.28
37.49
40.63
31.53
16.99
6.44
6.52
17.43
32.89
43.95
44.03
32.77
16.24
3.19
-0.19
6.33
16.93
23.04
18.35
2.83
-17.03
-32.03
-35.89
-29.16
-18.90
-14.78
-22.98
-41.98
-62.87
-74.38
-69.98
-52.12
-31.08
-19.18
-23.38
-40.95
-60.80
-69.95
-61.30
-37.74
-9.81
10.89
18.52
15.76
11.47
14.25
27.01
44.97
59.09
62.37
54.16
40.88
32.05
34.35
47.68
64.62
74.35
68.86
47.48
17.30
-10.30
-25.54
-25.16
-13.89
-1.77
1.47
-8.05
-26.41
-44.25
-51.73
-44.15
-24.28
-1.24
14.35
16.32
6.10
-8.40
-17.40
-14.46
-0.03
18.92
32.93
35.40
26.56
12.95
3.03
2.24
9.67
18.23
18.92
6.31
-17.83
-44.75
-63.38
-66.79
-55.70
-38.11
-24.36
-20.81
-26.12
-32.21
-29.70
-14.26
10.29
33.98
46.73
44.38
31.31
17.34
11.61
16.71
27.35
33.65
27.38
7.21
-19.99
-42.54
-50.05
-38.60
-12.71
17.01
38.81
45.55
37.24
20.37
3.99
-5.67
-8.31
-8.92
-13.78
-25.34
-39.69
-48.09
-42.43
-20.34
12.18
43.38
62.47
65.40
56.73
46.40
42.93
47.96
55.58
55.67
40.31
8.84
-30.98
-66.44
-85.76
-83.40
-62.20
-31.68
-3.55
13.86
18.81
16.00
13.09
16.08
25.69
37.09
42.59
36.35
18.06
-6.56
-28.80
-41.78
-44.41
-41.70
-40.81
-46.11
-55.84
-62.59
-58.09
-38.72
-8.41
22.39
42.38
45.86
35.94
22.57
16.41
22.16
35.98
47.62
46.30
27.13
-5.68
-40.54
-64.56
-69.91
-57.85
-37.49
-20.64
-15.33
-21.57
-32.03
-36.66
-29.32
-11.65
7.92
19.39
17.56
5.19
-8.51
-13.67
-5.84
11.39
28.70
37.33
34.55
25.30
18.97
23.44
39.79
61.50
77.68
79.18
63.91
38.19
13.69
1.03
4.32
18.85
33.55
36.83
22.62
-6.38
-40.09
-66.25
-76.92
-72.32
-59.66
-48.41
-44.23
-46.00
-47.06
-40.31
-23.22
-0.34
18.98
26.65
21.18
9.06
1.01
5.34
22.60
45.17
61.03
60.10
39.83
6.65
-26.89
-48.43
-51.79
-39.53
-20.78
-6.09
-1.75
-6.91
-14.50
-15.95
-6.55
11.15
28.78
37.48
33.61
21.33
10.06
8.64
19.87
38.71
54.93
58.97
47.54
25.37
2.54
-11.51
-13.27
-6.89
-1.23
-4.46
-18.94
-39.59
-56.61
-61.14
-50.51
-30.43
-12.01
-5.36
-13.49
-30.35
-44.23
-44.73
-28.47
-1.21
25.26
39.44
36.29
19.76
0.16
-11.77
-11.27
-1.74
7.87
9.12
-0.44
-15.40
-25.59
-22.00
-2.33
26.94
53.80
66.85
61.79
43.76
24.23
14.06
17.53
29.99
40.91
40.01
23.06
-5.28
-33.99
-51.67
-52.83
-41.13
-27.25
-22.40
-31.14
-48.50
-62.85
-62.59
-42.89
-8.83
26.99
51.01
55.68
43.27
23.72
8.67
4.29
7.99
10.77
3.51
-16.69
-43.86
-65.93
-71.17
-54.74
-21.99
14.25
40.05
47.70
39.42
25.04
15.28
15.18
21.36
24.88
17.55
-2.23
-27.58
-46.60
-48.75
-31.09
-0.21
30.98
49.93
51.28
39.05
23.40
14.10
14.76
20.91
23.21
13.66
-8.85
-36.91
-58.05
-61.43
-44.27
-13.62
17.37
36.83
40.74
34.20
27.39
28.47
38.32
49.78
52.10
37.43
5.99
-33.07
-65.83
-80.43
-73.29
-50.68
-25.18
-8.82
-6.44
-13.63
-19.83
-15.02
4.19
31.97
56.53
66.34
56.65
32.07
3.96
-15.93
-21.96
-17.13
-10.84
-13.01
-27.68
-50.29
-69.96
-75.78
-63.28
-37.20
-8.58
11.87
19.71
18.55
16.65
20.84
32.05
44.82
51.01
44.84
26.44
2.33
-17.85
-26.10
-20.11
-4.97
9.26
12.78
1.70
-19.30
-39.12
-46.53
-36.63
-13.38
13.12
32.95
41.73
41.97
40.01
41.02
45.54
49.25
45.70
30.36
3.67
-27.92
-54.04
-64.81
-55.89
-31.48
-3.01
16.60
20.08
10.11
-2.63
-6.45
3.95
24.22
43.41
50.84
42.28
21.43
-3.17
-23.60
-36.34
-42.85
-47.44
-53.79
-62.48
-70.15
-70.65
-58.11
-30.70
6.70
43.25
66.61
69.52
54.38
32.12
15.65
11.73
16.87
20.26
12.03
-8.77
-32.59
-45.32
-37.49
-10.58
23.57
49.78
57.89
47.12
24.41
-0.69
-21.46
-35.81
-45.14
-51.73
-56.72
-59.51
-58.00
-49.50
-31.91
-5.71
24.59
50.73
63.69
58.75
39.44
16.60
2.62
3.75
15.87
26.64
23.64
3.32
-25.90
-48.29
-50.46
-29.49
5.61
39.72
60.47
64.10
54.97
40.51
25.46
9.77
-9.20
-32.87
-58.56
-79.93
-89.69
-82.73
-58.35
-20.64
22.03
58.77
78.93
75.97
51.37
15.20
-17.64
-34.58
-31.94
-16.37
-0.19
7.20
5.47
2.95
9.59
28.53
52.00
65.14
55.73
23.12
-20.04
-54.30
-64.42
-47.39
-12.95
22.98
47.40
55.66
50.97
40.16
28.24
16.28
2.16
-16.55
-40.20
-65.90
-87.87
-99.09
-93.84
-70.89
-35.39
2.15
30.04
41.23
37.36
27.43
21.72
25.01
33.33
37.03
27.87
5.39
-22.38
-43.73
-50.33
-41.63
-24.03
-6.56
4.54
8.26
8.02
9.09
15.44
27.99
43.67
56.46
59.69
49.60
28.36
4.42
-11.21
-11.39
2.18
18.78
24.58
11.55
-16.61
-45.95
-60.81
-53.57
-29.65
-3.95
8.99
4.18
-11.53
-25.00
-26.13
-14.22
2.70
14.04
14.10
5.08
-5.25
-9.12
-3.36
9.72
24.42
34.95
37.72
32.04
20.13
6.75
-2.22
-2.41
6.05
17.11
21.00
9.73
-16.80
-49.10
-72.45
-75.37
-57.05
-28.25
-4.89
2.26
-5.62
-16.37
-15.36
4.24
36.50
66.28
79.01
70.06
47.42
25.88
17.24
23.21
35.26
41.07
32.93
12.16
-12.54
-30.54
-35.55
-28.27
-15.51
-6.29
-7.63
-21.62
-43.84
-65.05
-74.87
-67.17
-44.04
-15.76
4.15
6.76
-6.70
-25.41
-35.84
-30.51
-12.64
6.46
15.33
9.89
-4.39
-16.92
-19.19
-9.83
5.42
17.79
21.09
14.91
4.36
-2.57
0.73
16.36
40.09
62.73
74.04
68.07
47.53
23.14
8.32
10.76
27.10
44.03
46.32
27.03
-7.30
-40.31
-56.06
-49.05
-27.48
-7.25
-1.25
-11.06
-26.95
-35.43
-28.84
-10.09
10.22
21.45
19.97
10.38
1.08
-2.16
0.31
3.43
1.66
-7.21
-21.33
-36.85
-49.90
-57.58
-57.66
-48.63
-30.91
-8.43
11.60
21.92
19.87
10.03
2.15
5.33
21.29
42.39
55.81
52.04
31.84
6.64
-8.39
-4.31
15.25
35.72
40.68
22.73
-11.03
-42.78
-54.60
-39.52
-5.63
28.94
47.15
43.07
24.60
7.12
2.63
11.73
23.45
23.12
3.04
-31.22
-63.19
-75.22
-59.20
-21.40
21.19
50.92
59.09
49.35
33.35
21.94
18.21
16.63
8.10
-12.63
-42.64
-71.89
-88.96
-87.24
-67.97
-38.73
-8.78
15.27
31.22
40.21
44.10
43.38
37.00
23.77
4.10
-19.26
-41.95
-59.43
-68.56
-68.48
-60.28
-46.16
-28.57
-9.86
7.45
20.84
28.21
28.77
23.97
17.44
13.39
14.29
19.26
24.62
26.45
23.62
19.01
17.75
23.17
33.52
42.18
41.81
30.08
12.30
-1.16
-1.44
12.14
30.64
40.65
33.12
10.11
-15.73
-28.60
-19.77
6.13
33.26
43.95
29.61
-3.48
-37.94
-55.74
-49.24
-25.88
-3.30
1.82
-15.55
-45.41
-68.86
-69.91
-45.57
-7.85
23.69
33.80
20.73
-3.19
-19.77
-16.52
5.65
33.43
49.79
44.79
21.63
-5.40
-20.09
-14.43
6.32
26.91
31.42
13.26
-20.44
-52.35
-65.00
-50.93
-17.15
18.82
39.13
35.74
14.82
-7.64
-15.88
-4.02
20.82
43.53
51.00
40.19
19.73
3.79
2.57
15.72
32.61
39.28
27.44
-0.39
-32.16
-53.51
-56.13
-42.12
-22.27
-9.36
-10.85
-25.06
-42.88
-53.50
-50.61
-35.40
-14.97
2.51
12.64
16.54
18.99
24.44
33.52
42.54
46.15
40.97
27.83
11.20
-3.47
-12.65
-16.30
-17.00
-17.81
-20.31
-24.06
-27.40
-28.57
-26.71
-22.12
-15.68
-8.10
0.29
9.50
19.22
28.67
36.57
41.56
42.94
41.18
37.63
33.75
30.01
25.78
19.97
12.11
3.14
-5.03
-11.02
-15.33
-20.39
-28.60
-39.96
-50.94
-55.72
-49.40
-31.41
-6.66
16.52
30.63
32.92
26.42
18.01
14.26
17.93
26.85
35.64
39.16
35.32
25.72
14.18
4.31
-2.56
-7.75
-13.87
-22.58
-33.06
-42.27
-46.67
-44.30
-36.21
-26.06
-18.09
-14.79
-15.78
-18.46
-19.94
-18.47
-14.09
-7.84
-0.62
7.41
16.19
24.53
29.85
29.24
21.77
9.86
-1.15
-5.40
0.06
12.83
25.60
29.53
18.77
-5.93
-36.85
-62.14
-70.88
-58.46
-29.23
4.93
29.66
34.82
19.59
-6.60
-28.36
-31.80
-12.05
23.97
60.51
80.87
75.99
49.15
14.43
-10.75
-14.61
2.74
29.63
48.95
47.16
21.31
-19.32
-58.20
-79.78
-77.05
-54.42
-24.49
-0.84
8.94
6.16
-1.67
-6.48
-4.76
0.92
4.90
3.36
-2.28
-5.69
0.22
17.82
41.89
60.85
62.12
38.87
-5.33
-56.72
-96.62
-109.21
-88.60
-41.51
15.67
64.08
90.28
90.85
71.65
42.99
13.95
-11.05
-31.63
-48.26
-59.00
-58.95
-43.30
-11.88
28.03
62.87
78.64
68.15
35.63
-4.19
-32.70
-36.53
-14.05
23.80
59.10
75.75
66.99
37.46
-0.54
-34.06
-55.62
-65.17
-67.50
-67.32
-65.33
-57.83
-40.38
-12.59
19.02
42.42
45.95
25.16
-13.07
-52.32
-73.96
-66.30
-30.47
19.93
65.43
90.02
87.94
65.01
33.55
5.18
-14.69
-27.83
-39.33
-52.32
-64.28
-67.61
-54.31
-21.61
24.37
69.64
98.10
98.99
72.40
29.62
-12.17
-37.94
-41.57
-27.62
-7.58
7.11
11.35
8.22
5.43
8.87
17.71
24.00
17.62
-6.79
-44.84
-82.70
-103.34
-95.03
-57.52
-2.68
50.97
86.97
97.91
87.27
65.19
41.56
20.63
0.25
-24.31
-54.78
-86.16
-107.66
-107.98
-81.79
-33.98
21.32
66.59
88.77
84.72
61.77
32.78
8.93
-5.44
-13.64
-22.60
-37.00
-54.95
-68.19
-66.57
-44.44
-4.90
40.66
77.51
94.59
89.46
68.85
44.07
24.47
12.56
3.56
-10.33
-33.81
-63.93
-90.34
-100.33
-85.91
-48.76
-0.04
44.54
72.11
78.21
67.76
50.92
36.58
27.53
19.73
6.20
-17.15
-47.11
-73.40
-83.49
-69.66
-33.95
11.80
51.32
71.69
69.32
50.89
28.57
12.75
6.56
5.27
0.46
-13.51
-35.03
-55.31
-63.36
-52.47
-24.87
8.97
35.52
45.25
37.46
20.32
5.86
2.72
11.29
23.37
27.10
14.01
-15.34
-50.94
-78.09
-84.93
-68.37
-35.34
1.47
30.35
46.20
52.03
55.42
62.56
73.45
81.22
75.85
50.66
7.40
-42.96
-84.69
-104.65
-98.61
-73.05
-41.13
-15.56
-2.03
2.82
7.98
21.09
42.71
64.95
75.61
65.46
34.22
-8.41
-47.45
-70.10
-71.90
-58.12
-39.57
-25.77
-19.36
-15.26
-4.78
17.75
50.19
82.21
99.99
93.31
61.27
13.27
-35.47
-70.93
-86.43
-84.49
-73.56
-61.94
-52.44
-41.24
-21.40
11.16
53.14
93.42
117.53
114.67
83.47
33.23
-20.34
-62.21
-84.36
-88.00
-80.64
-70.30
-60.01
-46.44
-23.11
13.70
60.33
105.31
133.90
135.10
107.48
60.24
8.59
-33.45
-59.16
-70.61
-75.34
-80.07
-85.68
-86.15
-72.62
-39.76
9.33
62.74
104.47
121.79
111.24
79.85
40.72
5.94
-19.02
-36.50
-52.75
-72.04
-92.06
-104.12
-97.81
-67.59
-17.25
40.58
89.55
116.91
118.78
100.97
74.59
49.54
29.54
11.54
-10.62
-40.39
-74.50
-103.03
-114.09
-100.33
-63.53
-14.66
31.06
61.15
71.27
66.28
56.36
50.63
52.01
55.87
53.36
37.27
7.14
-29.52
-60.90
-77.00
-75.04
-60.79
-44.83
-36.25
-37.25
-41.84
-39.87
-23.99
4.71
35.74
54.08
48.33
17.60
-26.97
-67.33
-87.27
-80.10
-51.37
-14.72
15.87
33.36
40.14
44.62
54.44
70.73
86.76
91.77
77.73
44.69
1.85
-36.97
-60.17
-64.03
-54.06
-41.05
-34.39
-36.48
-41.36
-38.69
-20.74
11.90
49.33
76.85
82.72
64.78
31.91
-0.82
-20.26
-21.90
-11.58
-0.99
-0.15
-11.28
-27.86
-39.22
-37.66
-23.35
-4.43
8.16
7.29
-5.79
-21.68
-28.12
-16.98
10.82
45.23
71.84
79.26
64.92
36.23
6.03
-14.55
-21.99
-21.37
-22.16
-31.56
-49.19
-66.77
-72.90
-60.13
-29.89
7.33
37.34
49.59
42.79
25.46
10.87
9.48
22.99
43.25
57.00
53.56
31.14
-1.91
-31.72
-46.62
-43.30
-28.02
-12.28
-5.73
-10.53
-20.13
-23.66
-12.92
11.92
41.30
60.82
58.95
33.88
-4.94
-41.46
-61.52
-60.09
-43.30
-23.91
-13.11
-13.78
-19.35
-18.99
-5.33
20.10
47.20
63.02
59.39
37.92
9.56
-11.19
-14.09
1.31
25.20
42.79
42.20
21.16
-11.60
-41.35
-55.60
-50.88
-34.01
-17.08
-9.50
-12.11
-17.29
-14.73
1.05
26.48
50.63
61.68
54.10
32.15
8.01
-4.76
1.68
25.26
54.69
74.67
73.15
47.27
4.81
-39.59
-71.44
-83.16
-76.97
-62.29
-49.45
-43.21
-40.20
-32.07
-12.15
18.35
48.92
64.43
53.46
15.95
-35.25
-79.96
-100.85
-92.26
-62.86
-30.44
-11.76
-13.33
-28.68
-43.30
-43.95
-26.44
2.78
31.43
49.42
54.74
53.64
55.44
65.79
82.79
97.98
101.59
88.68
62.41
32.96
12.05
6.68
15.07
27.18
30.00
14.57
-18.52
-58.51
-89.64
-99.47
-85.88
-58.68
-34.60
-28.01
-42.65
-69.43
-91.85
-95.72
-77.39
-45.50
-15.43
0.21
-1.20
-11.50
-17.71
-10.56
10.09
35.82
55.61
62.91
59.49
53.72
54.74
66.41
84.88
100.65
104.19
91.34
65.81
37.51
17.26
11.14
17.26
26.64
28.08
14.41
-12.98
-44.03
-65.12
-66.48
-48.18
-20.98
-0.98
-1.02
-23.02
-56.52
-84.29
-92.06
-76.41
-46.51
-18.27
-4.85
-9.10
-22.60
-31.78
-26.85
-7.79
15.97
31.84
32.11
18.64
1.63
-7.05
-1.10
16.39
34.71
41.94
31.91
8.09
-18.07
-33.42
-30.32
-10.84
14.23
31.47
32.10
16.97
-4.11
-18.04
-15.97
1.79
26.21
44.98
49.71
40.66
26.28
17.88
22.81
40.24
61.92
77.24
79.48
69.76
56.15
48.54
52.72
66.77
82.25
89.06
81.42
61.43
38.16
22.39
20.39
30.05
41.66
43.31
27.74
-2.98
-37.75
-62.44
-67.77
-55.13
-36.44
-27.81
-40.42
-73.41
-113.80
-143.33
-148.84
-129.86
-98.79
-73.46
-66.73
-79.14
-99.27
-111.66
-106.61
-86.07
-61.98
-48.30
-52.25
-69.84
-88.30
-94.09
-80.93
-53.54
-24.99
-9.33
-13.65
-34.03
-57.29
-68.13
-57.28
-26.65
11.74
42.43
55.02
49.96
37.71
32.09
41.83
65.40
92.16
109.01
108.12
91.30
68.29
50.34
43.48
45.38
47.43
40.72
21.89
-4.35
-27.41
-36.78
-28.15
-6.17
17.69
31.06
27.42
9.91
-10.33
-20.35
-12.59
10.85
39.63
61.19
67.68
60.09
46.62
36.77
35.17
38.85
39.54
29.55
7.25
-21.08
-44.31
-52.70
-43.46
-22.30
-0.37
11.80
9.89
-2.00
-14.11
-16.83
-6.47
12.67
30.72
38.21
31.66
15.71
0.01
-6.94
-3.25
5.24
8.61
-0.55
-22.19
-47.88
-65.27
-64.96
-45.78
-15.44
13.69
31.18
33.83
26.83
19.93
21.32
32.73
48.56
59.40
57.77
42.59
20.03
-0.11
-10.05
-8.36
-0.52
4.61
0.19
-14.44
-32.90
-45.39
-44.16
-28.13
-3.67
18.55
29.24
25.29
11.47
-2.73
-8.74
-4.06
6.28
12.80
7.39
-11.53
-37.25
-58.28
-64.59
-53.36
-30.75
-8.66
1.83
-3.52
-19.68
-35.48
-40.23
-29.89
-9.32
10.67
19.79
14.16
-1.47
-16.89
-22.74
-16.10
-2.01
9.89
11.40
0.82
-15.79
-28.28
-28.51
-15.26
4.85
21.07
24.56
13.40
-6.13
-23.15
-28.30
-18.79
0.18
18.73
28.01
25.18
14.91
6.11
6.46
17.76
34.96
49.26
53.39
45.71
31.09
17.64
11.73
14.23
20.06
21.39
12.53
-6.42
-28.89
-45.28
-48.20
-36.55
-16.28
2.73
12.18
9.78
0.48
-6.79
-4.66
8.28
26.44
40.52
42.86
31.85
12.90
-4.86
-13.95
-12.71
-6.14
-2.57
-8.43
-24.03
-42.72
-54.47
-51.58
-33.20
-6.25
18.25
31.12
29.92
20.12
11.38
11.58
22.14
37.40
48.25
47.83
35.65
18.02
4.02
-0.02
5.67
14.36
16.78
6.79
-14.66
-39.36
-56.20
-57.30
-42.65
-20.45
-2.76
1.12
-10.01
-28.42
-42.09
-41.97
-27.24
-5.83
10.68
14.09
4.60
-9.37
-16.52
-9.62
10.32
34.85
53.37
59.29
53.69
44.15
39.85
45.92
60.68
76.86
86.02
83.32
70.03
52.57
38.33
31.21
29.33
26.11
14.46
-8.76
-39.97
-69.90
-87.98
-87.92
-71.13
-46.42
-25.49
-16.97
-21.77
-32.84
-39.37
-33.25
-13.77
11.99
33.39
42.44
38.47
28.24
21.45
24.57
36.87
50.77
56.39
47.48
25.32
-1.50
-21.73
-27.75
-19.92
-6.67
-0.04
-8.95
-33.77
-65.28
-89.21
-93.76
-76.18
-44.57
-13.44
4.25
4.54
-5.57
-12.75
-5.72
17.63
48.82
73.91
81.92
71.58
52.12
37.49
37.86
53.40
74.26
86.54
80.89
58.20
29.44
9.15
6.59
20.06
37.41
42.84
26.16
-10.81
-54.47
-86.50
-93.82
-75.71
-44.21
-17.20
-8.56
-20.53
-43.13
-60.67
-61.29
-43.82
-18.21
0.74
2.00
-15.35
-41.95
-64.14
-71.92
-64.49
-49.91
-39.73
-41.59
-54.73
-70.63
-78.57
-72.40
-54.28
-33.15
-18.95
-16.33
-21.47
-24.80
-17.17
3.95
32.39
56.37
65.13
54.90
31.02
4.96
-12.06
-15.22
-8.54
-2.49
-8.16
-31.02
-67.24
-105.06
-130.30
-133.51
-114.81
-83.80
-54.32
-36.85
-32.83
-34.51
-30.34
-12.61
17.46
50.21
73.25
78.82
68.38
51.26
38.55
36.34
42.41
48.32
45.46
31.17
10.92
-4.65
-6.08
8.99
33.82
55.78
63.07
50.95
24.49
-4.47
-23.89
-28.25
-21.02
-11.79
-9.51
-16.37
-25.74
-26.43
-10.04
22.73
61.13
89.44
95.21
76.02
41.06
6.50
-12.56
-9.15
13.04
42.48
66.04
75.00
68.22
51.12
31.68
16.17
6.87
2.35
-0.24
-2.50
-3.41
0.01
10.60
28.86
52.15
75.74
94.85
106.72
111.70
112.57
113.00
115.61
120.83
126.76
130.33
128.58
119.93
104.72
84.50
61.29
36.67
11.34
-14.96
-42.77
-72.36
-103.18
-133.83
-162.45
-187.18
-206.74
-220.58
-228.96
-232.60
-232.58
-229.86
-225.24
-219.27
-212.30
-204.70
-195.55
-184.32
-169.40
-149.80
-124.90
-94.63
-59.58
-20.81
19.85
60.50
99.20
134.45
165.09
190.49
210.59
225.73
236.67
243.64
247.07
247.24
244.40
238.60
229.83
218.01
202.98
185.32
164.20
139.09
109.77
76.54
40.05
1.23
-38.89
-79.35
-117.19
-151.43
-181.49
-207.06
-227.79
-243.17
-252.48
-255.12
-253.59
-247.98
-239.07
-227.27
-212.56
-194.25
-171.08
-141.56
-104.71
-60.79
-9.65
44.38
95.79
139.54
172.41
193.58
204.43
207.22
204.45
197.57
185.74
167.59
142.06
108.95
69.18
25.13
-18.84
-56.89
-82.59
-92.02
-85.72
-69.61
-53.74
-49.16
-63.95
-100.75
-156.07
-221.83
-286.13
-337.25
-366.48
-370.03
-349.26
-309.00
-254.83
-191.08
-120.49
-45.84
28.26
94.43
144.55
173.42
181.65
175.78
165.13
157.12
154.09
153.19
149.64
140.03
124.81
107.98
94.99
89.93
93.82
103.52
115.07
125.65
135.05
144.96
157.21
171.99
187.08
198.57
202.64
197.36
183.34
163.28
140.83
119.86
103.65
94.04
90.65
90.64
89.59
82.74
66.28
39.31
2.49
-40.76
-84.35
-120.98
-143.94
-149.15
-137.57
-115.02
-95.00
-92.72
-117.43
-167.15
-228.60
-282.89
-313.61
-313.77
-287.61
-246.49
-201.25
-157.09
-114.30
-69.62
-24.08
15.34
38.20
36.53
9.21
-36.20
-86.29
-126.76
-147.27
-144.62
-122.34
-88.97
-54.59
-28.24
-14.86
-14.66
-23.47
-34.42
-40.82
-37.99
-24.33
-1.52
25.57
50.71
67.87
72.11
63.93
49.63
39.80
45.12
72.47
122.46
190.23
267.14
343.51
410.90
462.56
493.83
502.64
490.22
460.61
419.54
371.82
320.40
267.48
215.51
168.26
129.73
102.28
81.93
63.21
39.71
7.35
-32.95
-75.92
-114.72
-144.80
-165.48
-179.29
-189.17
-196.86
-201.94
-202.61
-197.44
-186.64
-172.25
-157.45
-145.13
-136.49
-131.24
-127.78
-124.05
-118.57
-111.09
-102.56
-94.56
-88.59
-85.20
-84.17
-84.56
-85.30
-85.62
-85.42
-85.19
-85.64
-87.49
-90.98
-96.01
-102.18
-109.00
-116.11
-123.39
-130.86
-138.41
-145.84
-152.66
-158.21
-161.73
-162.53
-160.13
-154.39
-146.11
-135.53
-123.05
-109.22
-94.68
-80.10
-66.05
-52.94
-40.95
-30.03
-19.87
-10.18
-0.66
8.90
18.63
28.49
38.32
47.86
56.75
64.66
71.16
75.88
78.54
78.98
77.09
72.86
66.37
57.70
47.02
34.47
20.21
4.47
-12.40
-29.97
-47.72
-65.02
-81.29
-96.04
-108.94
-119.77
-128.42
-134.84
-139.05
-141.15
-141.24
-139.54
-136.42
-132.32
-127.67
-122.72
-117.44
-111.53
-105.42
-99.19
-92.94
-86.90
-81.37
-76.62
-72.66
-69.09
-65.12
-59.75
-52.07
-41.64
-28.71
-14.07
1.28
16.60
31.73
47.09
63.36
81.10
100.15
119.53
137.81
153.73
166.71
177.15
186.14
194.95
204.67
216.14
230.16
247.49
268.28
291.22
312.91
328.47
333.21
324.88
304.98
278.38
251.21
228.18
210.74
197.20
184.58
171.06
157.44
146.74
142.02
144.04
150.04
154.80
153.40
144.05
129.32
114.86
106.20
105.45
110.24
115.24
115.56
109.73
100.32
92.03
88.51
90.10
93.85
95.63
92.79
85.64
76.83
69.25
63.93
59.34
52.46
41.08
25.80
10.42
0.29
-0.72
7.19
19.08
27.17
24.67
9.23
-15.52
-41.70
-60.96
-68.51
-65.22
-56.64
-49.70
-48.75
-53.29
-58.47
-57.87
-47.26
-27.13
-2.98
17.12
26.54
23.76
13.67
5.60
8.96
28.88
63.85
106.73
148.35
180.35
198.86
204.17
198.11
181.60
153.82
113.79
62.56
4.26
-54.52
-109.18
-158.75
-205.15
-250.06
-291.43
-322.64
-335.45
-325.27
-295.16
-255.87
-221.04
-200.57
-195.97
-200.40
-203.44
-197.27
-180.50
-157.78
-135.97
-119.61
-108.81
-100.21
-89.93
-76.43
-61.29
-48.23
-40.71
-39.91
-43.98
-48.82
-50.10
-45.24
-34.59
-21.28
-9.63
-3.08
-2.62
-6.33
-10.40
-11.17
-6.92
1.28
10.26
16.42
17.78
15.03
11.23
10.11
14.07
22.81
33.52
42.34
46.35
45.31
41.73
39.56
41.96
49.36
59.02
66.25
66.55
57.82
41.51
21.87
4.02
-8.29
-14.03
-14.94
-14.33
-15.91
-23.29
-39.29
-65.94
-103.83
-151.21
-203.43
-253.56
-293.69
-317.56
-323.26
-313.55
-294.26
-271.48
-249.28
-228.91
-210.18
-191.83
-172.85
-152.46
-129.32
-101.28
-66.11
-22.92
26.46
77.34
123.41
158.43
178.24
181.99
172.19
153.91
133.38
116.36
106.89
106.33
113.01
122.79
130.55
132.03
125.39
111.68
94.30
77.25
63.68
55.06
51.51
52.82
59.07
70.36
85.88
103.07
117.80
125.86
124.83
115.55
101.86
89.00
81.18
79.94
84.04
90.69
97.41
103.22
108.63
114.68
121.75
129.03
134.81
137.27
135.29
128.66
117.70
102.70
83.70
60.88
35.35
9.74
-12.12
-26.51
-31.58
-28.55
-21.68
-16.51
-17.40
-25.54
-38.38
-50.88
-58.03
-57.29
-49.88
-40.34
-34.46
-36.62
-47.79
-65.00
-82.55
-94.44
-96.89
-89.81
-76.66
-62.75
-52.91
-49.62
-52.37
-58.55
-65.22
-70.58
-74.64
-78.61
-83.64
-89.67
-95.20
-98.18
-97.40
-93.48
-88.72
-85.87
-86.55
-90.07
-93.79
-94.50
-90.39
-82.15
-72.69
-65.42
-62.32
-62.54
-62.66
-58.40
-46.86
-28.42
-7.18
10.51
18.97
16.09
5.06
-6.26
-8.56
4.78
34.13
72.91
110.30
136.12
145.80
141.29
128.71
114.61
103.23
95.95
92.53
92.90
97.72
106.79
117.98
127.09
128.28
116.73
91.82
57.80
21.85
-9.65
-34.18
-53.63
-72.10
-92.20
-112.25
-126.24
-126.71
-108.81
-73.23
-26.39
21.89
61.95
87.45
96.94
93.53
83.15
72.32
66.25
67.81
77.61
94.36
115.85
139.20
160.84
176.25
180.14
167.81
137.03
89.75
32.23
-26.54
-78.15
-117.26
-142.66
-156.72
-163.28
-165.68
-165.48
-162.61
-156.38
-146.42
-133.70
-120.29
-108.64
-100.47
-95.99
-93.83
-91.71
-87.68
-81.07
-72.86
-65.02
-59.34
-56.26
-54.66
-52.61
-48.63
-42.72
-36.46
-31.98
-30.62
-31.96
-33.93
-33.98
-30.58
-24.21
-17.30
-12.99
-13.49
-18.77
-26.48
-33.10
-35.68
-33.25
-26.97
-19.16
-11.83
-5.62
-0.05
5.40
10.09
12.13
9.38
1.11
-10.86
-22.37
-28.51
-25.82
-13.97
4.04
23.23
38.84
48.30
52.02
52.53
52.73
54.16
56.43
58.03
57.75
56.03
55.06
57.78
66.24
80.41
97.97
115.40
129.34
137.86
140.96
140.06
137.07
133.36
129.28
124.23
117.32
108.23
97.70
87.42
79.11
73.50
69.68
65.44
58.44
47.58
33.70
19.21
6.75
-2.35
-8.76
-14.72
-22.57
-33.19
-45.26
-55.91
-62.41
-63.92
-62.22
-61.02
-64.06
-73.06
-86.73
-101.19
-111.82
-115.35
-111.21
-101.47
-89.55
-78.48
-69.70
-63.02
-57.56
-52.90
-49.67
-49.03
-51.59
-56.41
-60.88
-61.86
-57.19
-47.01
-33.93
-21.88
-14.23
-12.22
-14.41
-17.53
-18.34
-15.37
-9.63
-3.88
-0.88
-1.68
-5.00
-8.08
-8.38
-5.18
0.01
4.44
5.90
4.12
1.05
-0.37
2.01
8.21
15.95
21.87
23.29
19.74
13.13
6.72
3.33
3.84
6.86
9.67
9.93
7.04
2.41
-1.58
-3.15
-2.24
-0.57
-0.52
-3.72
-10.01
-17.48
-23.61
-26.67
-26.65
-25.19
-24.59
-26.44
-30.66
-35.54
-38.71
-38.56
-35.21
-30.42
-26.59
-25.30
-26.26
-27.29
-25.43
-18.58
-6.81
7.37
20.09
27.94
29.76
27.25
24.18
24.63
31.14
43.71
60.10
77.04
91.69
102.67
110.08
114.71
117.24
117.61
115.28
109.90
101.92
92.89
84.84
79.42
76.99
76.42
75.42
71.71
64.04
52.78
39.57
26.35
14.36
3.63
-6.76
-17.81
-29.72
-41.59
-51.78
-58.88
-62.54
-63.70
-64.11
-65.26
-67.52
-69.87
-70.60
-68.41
-63.36
-56.96
-51.38
-48.21
-47.53
-47.81
-46.87
-43.22
-36.99
-29.93
-24.35
-21.82
-22.16
-23.58
-23.79
-21.34
-16.54
-11.25
-7.74
-7.32
-9.45
-12.04
-12.68
-9.98
-4.46
1.77
6.19
7.22
5.11
1.75
-0.49
-0.08
2.84
6.59
9.05
8.96
6.63
3.77
2.33
3.36
6.39
9.66
11.16
9.77
6.00
1.73
-0.79
-0.13
3.48
8.23
11.80
12.52
10.40
7.02
4.55
4.51
6.79
9.72
11.00
9.14
4.45
-0.98
-4.41
-3.99
0.18
6.15
11.17
13.18
11.88
8.71
5.80
4.70
5.44
6.55
6.08
2.88
-2.48
-7.97
-11.20
-10.81
-7.27
-2.64
0.58
0.86
-1.53
-4.74
-6.48
-5.42
-1.99
1.86
3.89
2.87
-0.60
-4.48
-6.53
-5.60
-2.39
1.06
2.50
0.84
-3.20
-7.49
-9.74
-8.78
-5.35
-1.60
0.16
-1.23
-4.98
-8.89
-10.64
-9.14
-5.16
-0.92
1.18
-0.05
-3.91
-8.25
-10.69
-10.09
-7.14
-3.93
-2.64
-4.25
-7.93
-11.58
-13.11
-11.75
-8.62
-6.16
-6.81
-11.51
-19.00
-26.49
-31.22
-31.91
-29.46
-26.39
-25.29
-27.38
-31.81
-36.23
-38.22
-36.75
-32.73
-28.42
-26.00
-26.23
-27.96
-28.82
-26.62
-20.54
-11.63
-2.15
5.70
11.07
14.88
19.27
26.22
36.31
48.19
59.13
66.33
68.42
66.18
62.17
59.38
59.54
62.26
65.36
66.27
63.72
58.56
53.28
50.44
51.07
53.93
56.18
55.08
49.55
40.86
31.76
24.93
21.52
20.69
20.33
18.58
14.96
10.76
8.22
9.07
13.44
19.59
24.76
26.64
24.50
19.53
13.98
9.87
7.74
6.47
4.06
-0.99
-8.54
-16.74
-23.03
-25.68
-24.83
-22.60
-21.92
-24.96
-31.82
-40.41
-47.61
-50.96
-49.88
-45.83
-41.27
-38.23
-37.16
-36.85
-35.37
-31.36
-25.03
-18.13
-12.92
-10.90
-11.82
-13.80
-14.35
-11.74
-6.03
0.96
6.63
9.03
8.02
5.25
3.12
3.29
5.60
8.16
8.46
4.92
-1.99
-9.88
-15.68
-17.28
-14.65
-9.76
-5.45
-3.79
-5.04
-7.69
-9.50
-8.91
-6.04
-2.44
-0.17
-0.41
-2.71
-5.24
-5.90
-3.66
0.76
5.15
7.09
5.27
0.38
-5.21
-8.74
-8.50
-4.78
0.34
4.13
4.74
2.22
-1.62
-4.31
-4.16
-1.25
2.72
5.44
5.44
2.98
-0.15
-1.75
-0.60
2.70
6.10
7.27
5.02
0.13
-5.10
-8.13
-7.67
-4.44
-0.76
0.80
-1.13
-5.85
-10.97
-13.81
-12.94
-8.96
-4.23
-1.45
-2.14
-5.78
-10.12
-12.46
-11.27
-7.07
-2.04
1.18
1.15
-1.56
-4.72
-5.82
-3.58
1.23
6.22
8.78
7.66
3.71
-0.56
-2.48
-0.78
3.68
8.36
10.60
9.10
4.75
0.05
-2.34
-1.12
2.92
7.37
9.66
8.54
4.81
0.75
-1.28
-0.27
2.83
5.76
6.31
3.71
-0.81
-4.72
-5.69
-3.00
1.93
6.31
7.53
4.60
-1.16
-6.92
-9.82
-8.58
-4.14
0.88
3.71
3.02
-0.38
-4.09
-5.58
-3.73
0.51
4.67
6.25
4.29
-0.06
-4.14
-5.40
-2.87
2.28
7.33
9.62
8.08
3.80
-0.62
-2.70
-1.44
2.12
5.58
6.58
4.27
-0.26
-4.62
-6.63
-5.56
-2.52
0.21
0.63
-1.77
-5.63
-8.51
-8.44
-5.10
-0.11
3.86
4.66
1.91
-2.67
-6.23
-6.42
-2.79
2.99
8.05
9.97
8.13
4.06
0.52
-0.14
2.73
7.65
11.94
13.29
11.07
6.69
2.73
1.42
3.32
6.97
9.72
9.41
5.64
0.11
-4.35
-5.41
-2.64
2.22
6.19
6.78
3.41
-2.26
-7.38
-9.47
-7.87
-3.98
-0.44
0.45
-1.89
-6.08
-9.66
-10.62
-8.52
-4.79
-1.89
-1.80
-4.79
-9.26
-12.64
-12.93
-9.83
-4.99
-1.10
-0.34
-3.13
-7.85
-11.83
-12.87
-10.51
-6.25
-2.68
-1.96
-4.58
-9.06
-12.93
-14.17
-12.43
-9.18
-6.83
-7.35
-11.06
-16.43
-21.04
-23.02
-22.12
-19.86
-18.58
-20.14
-24.82
-31.19
-37.03
-40.73
-42.14
-42.62
-44.03
-47.47
-52.45
-57.11
-59.29
-57.86
-53.20
-46.64
-39.26
-31.10
-21.02
-7.79
8.68
26.43
42.00
51.38
51.48
41.00
21.42
-2.37
-22.48
-30.08
-18.98
11.29
54.12
98.46
133.40
152.71
156.65
150.18
139.10
126.65
112.85
95.82
75.52
54.95
38.96
31.29
31.94
36.76
39.62
35.73
24.21
8.49
-5.73
-13.67
-13.88
-8.70
-2.70
-0.03
-2.28
-7.95
-13.71
-16.68
-16.24
-14.24
-13.57
-16.10
-21.36
-26.74
-29.11
-26.77
-20.64
-13.86
-9.98
-10.82
-15.44
-20.76
-23.31
-21.31
-15.64
-9.40
-6.04
-7.33
-12.30
-17.91
-20.69
-18.72
-12.64
-5.26
0.07
1.32
-1.03
-4.43
-5.71
-2.90
3.75
11.92
18.61
22.08
22.71
22.72
24.67
29.75
37.03
43.95
48.10
49.02
48.73
50.65
57.35
68.72
81.57
91.05
93.23
87.36
76.46
65.67
59.66
60.16
65.12
70.03
70.47
64.67
54.22
42.81
33.72
27.89
23.57
17.35
6.50
-9.10
-26.82
-42.80
-54.30
-61.19
-66.33
-73.07
-83.21
-95.75
-107.32
-113.88
-112.78
-104.16
-90.92
-77.14
-66.55
-60.89
-59.12
-58.18
-54.56
-46.16
-33.26
-18.35
-4.65
5.67
12.75
18.85
27.25
40.57
59.33
81.84
104.61
123.60
135.28
137.49
129.43
111.61
85.62
54.10
20.61
-10.82
-36.51
-54.15
-63.83
-68.18
-71.58
-78.35
-90.90
-108.61
-128.31
-145.93
-158.54
-165.61
-168.82
-170.91
-174.24
-180.13
-189.11
-201.59
-218.11
-238.51
-260.98
-281.29
-293.56
-292.30
-274.68
-241.33
-195.69
-142.11
-84.70
-27.07
27.15
74.06
110.50
135.66
151.71
162.59
171.40
178.22
180.25
174.46
161.04
144.56
131.97
128.39
133.58
141.92
145.93
141.08
128.64
114.72
106.06
106.07
113.09
121.76
