1544027347.00
64.000000
-0.00
-0.00
-0.00
-0.00
-0.00
-0.00
-0.00
-0.00
-0.00
-0.00
0.00
0.01
0.01
-0.00
-0.03
-0.05
-0.05
0.00
0.13
0.36
0.66
1.01
1.37
1.72
2.06
2.40
2.79
3.24
3.80
4.43
5.08
5.71
6.29
6.83
7.41
8.09
8.92
10.01
11.28
12.61
13.90
15.08
16.21
17.44
18.99
21.00
23.70
26.90
30.32
33.68
36.82
39.81
42.99
46.79
51.55
57.65
64.74
72.32
79.82
86.91
93.70
100.70
108.62
117.99
129.32
142.11
155.59
168.92
181.62
193.76
206.02
219.73
233.59
249.85
269.10
291.50
315.95
339.60
358.15
366.98
362.65
344.23
314.06
275.98
234.41
192.72
152.56
114.22
77.47
42.36
9.39
-20.39
-46.72
-69.65
-89.57
-106.87
-121.72
-134.11
-144.00
-151.67
-157.50
-162.33
-166.91
-171.46
-175.98
-180.39
-184.65
-188.96
-193.67
-198.98
-204.94
-211.17
-217.10
-222.32
-227.00
-231.79
-237.56
-245.01
-254.03
-264.27
-275.28
-287.41
-301.28
-317.05
-333.18
-346.18
-351.95
-347.43
-332.78
-311.04
-286.78
-263.42
-241.44
-219.00
-193.74
-165.30
-136.16
-110.58
-91.97
-80.53
-73.14
-64.83
-51.80
-33.52
-13.25
3.94
13.88
15.77
12.85
10.43
13.18
22.07
34.21
44.27
47.87
44.34
37.15
31.89
32.64
39.66
49.00
55.04
53.88
45.71
34.80
26.85
25.63
30.80
38.25
42.36
39.39
29.85
17.79
9.04
7.72
14.19
25.01
34.74
39.18
37.24
31.68
27.11
27.37
33.22
41.70
47.87
47.38
39.20
26.32
14.22
8.00
9.55
16.76
24.65
28.32
25.75
18.93
12.54
10.90
15.23
22.96
28.90
28.45
20.72
8.63
-2.21
-7.02
-4.54
2.44
8.48
9.13
3.19
-6.33
-14.06
-15.64
-10.06
-0.69
6.86
7.73
0.47
-11.78
-23.19
-28.36
-25.39
-17.10
-9.16
-7.12
-12.83
-23.34
-32.77
-35.55
-30.08
-19.40
-9.64
-6.37
-11.07
-20.63
-28.94
-30.69
-24.47
-13.51
-3.85
-0.54
-4.90
-13.63
-20.85
-21.67
-14.86
-3.81
5.83
9.25
5.40
-2.36
-8.46
-8.32
-1.26
9.12
17.13
18.22
11.87
1.93
-5.72
-6.41
0.45
11.22
19.99
22.09
16.92
8.10
1.51
1.66
9.17
20.36
29.35
31.77
27.20
19.45
14.37
16.23
25.43
37.93
47.90
50.84
46.25
37.94
31.70
32.01
39.37
50.06
58.38
59.69
53.34
42.94
34.23
31.84
36.39
44.40
50.00
48.55
39.50
26.66
16.13
12.62
16.80
25.03
31.20
30.67
22.77
11.21
2.02
-0.26
5.17
14.50
21.81
22.45
15.61
5.02
-3.43
-5.02
1.23
11.67
20.57
22.97
17.71
8.10
-0.26
-2.56
2.12
10.58
17.26
17.39
10.17
-0.96
-10.13
-12.44
-6.93
3.22
11.94
14.21
8.74
-1.39
-10.40
-13.45
-9.19
-0.64
6.67
8.14
2.56
-6.90
-14.68
-16.14
-10.01
0.42
9.66
12.83
8.48
-0.35
-8.14
-9.92
-4.20
6.14
15.73
19.34
15.33
6.30
-2.37
-5.56
-1.74
6.61
14.07
15.62
9.78
-0.72
-10.22
-13.64
-9.38
-0.10
8.51
11.44
6.99
-2.13
-10.31
-12.69
-7.58
1.99
10.40
12.76
7.49
-2.31
-10.89
-13.11
-7.32
3.39
13.41
17.31
13.26
4.02
-4.91
-8.19
-4.15
4.61
12.58
14.47
8.67
-2.01
-11.75
-15.05
-10.11
0.53
10.84
15.14
11.08
0.81
-10.05
-16.04
-14.43
-6.90
1.56
6.01
3.90
-2.96
-9.80
-11.80
-6.69
3.28
12.99
17.02
12.83
2.63
-8.06
-13.18
-9.82
0.10
11.21
17.27
15.12
6.31
-4.00
-9.91
-8.62
-1.55
6.22
9.18
4.99
-4.37
-13.48
-16.93
-12.46
-2.18
8.22
13.25
10.30
1.37
-8.15
-12.96
-10.38
-2.42
5.93
9.66
6.44
-1.58
-9.43
-12.03
-7.13
3.05
13.63
19.23
17.30
9.40
-0.03
-5.87
-5.57
-0.19
6.09
8.36
4.11
-5.55
-16.00
-21.79
-19.63
-10.09
2.16
11.36
13.42
8.39
0.46
-4.75
-3.13
5.03
15.52
22.51
21.94
14.06
3.06
-5.15
-6.51
-1.21
6.72
11.69
9.85
1.57
-8.97
-16.11
-16.17
-9.44
-0.18
5.75
4.47
-3.77
-14.53
-21.79
-21.36
-13.29
-2.10
6.16
7.36
1.73
-6.32
-10.94
-8.43
0.42
11.00
17.61
16.96
10.15
1.98
-2.08
0.77
8.94
17.35
20.39
15.08
3.13
-10.00
-17.98
-17.13
-8.62
2.42
9.48
8.52
0.21
-10.72
-18.06
-17.93
-10.54
-0.28
7.28
8.55
3.81
-2.91
-6.40
-3.40
5.39
15.61
21.72
19.99
10.83
-1.17
-9.68
-10.08
-2.27
9.51
18.62
19.80
12.18
-0.58
-12.22
-17.64
-15.37
-8.30
-1.56
0.65
-2.64
-8.60
-12.64
-11.19
-3.93
5.81
13.26
14.66
9.64
1.51
-4.77
-5.38
-0.08
7.74
13.01
11.91
4.49
-5.36
-12.15
-11.98
-5.14
4.37
10.86
10.50
3.70
-5.49
-11.57
-11.17
-4.83
3.26
7.78
5.66
-2.29
-11.54
-16.70
-14.38
-5.16
6.36
14.40
14.70
7.09
-4.41
-13.81
-16.36
-11.16
-1.58
6.75
9.14
4.52
-3.82
-10.50
-11.23
-5.46
3.24
9.41
8.97
2.01
-7.43
-13.57
-12.43
-4.27
6.60
14.19
14.25
6.78
-3.84
-11.36
-11.22
-3.03
9.03
18.62
20.74
14.62
4.19
-4.51
-6.72
-1.80
6.39
12.07
11.09
3.51
-6.38
-12.72
-11.66
-3.69
6.63
13.34
12.46
4.33
-6.77
-15.02
-16.22
-10.21
-0.72
6.76
8.08
2.74
-5.77
-12.07
-11.74
-3.94
7.87
17.99
21.30
16.15
5.39
-5.37
-10.80
-8.91
-2.01
4.92
7.17
3.30
-4.09
-10.04
-10.44
-4.68
3.93
9.99
9.52
2.42
-7.38
-14.16
-13.85
-6.49
3.77
11.02
10.99
3.56
-6.93
-14.33
-14.10
-5.86
6.22
15.76
17.75
11.26
-0.06
-10.10
-13.67
-9.30
0.19
9.28
13.07
9.75
1.50
-6.94
-11.25
-9.84
-4.77
-0.31
-0.31
-5.77
-14.02
-20.28
-20.41
-13.59
-3.07
5.73
8.20
3.44
-5.11
-11.67
-11.44
-3.60
8.29
18.28
21.52
16.93
7.84
0.15
-1.26
4.86
15.44
24.80
27.87
23.04
12.80
2.32
-3.57
-3.12
1.66
6.17
6.13
0.33
-8.62
-15.75
-16.74
-10.61
-0.46
8.00
9.82
3.67
-7.34
-17.38
-21.29
-17.50
-8.99
-1.48
0.20
-5.11
-14.24
-21.52
-22.42
-16.16
-6.31
1.41
2.40
-4.11
-14.62
-23.46
-25.92
-20.90
-11.56
-3.28
-0.98
-6.44
-17.16
-28.06
-34.14
-33.33
-27.61
-21.74
-20.66
-26.44
-37.14
-48.10
-54.91
-56.24
-54.71
-55.11
-61.35
-73.65
-88.15
-99.17
-102.83
-99.64
-94.32
-93.45
-101.15
-116.49
-133.33
-143.07
-138.98
-119.27
-88.29
-54.13
-24.77
-4.71
6.74
14.07
22.81
36.68
56.15
79.08
102.29
123.02
139.96
153.08
162.38
167.27
166.21
158.18
143.43
124.12
103.63
85.92
74.21
69.94
72.79
80.69
91.42
103.20
115.07
126.56
137.06
145.23
148.54
144.39
128.60
97.14
48.27
-15.33
-85.71
-151.13
-199.89
-224.41
-224.16
-206.20
-181.95
-162.29
-153.40
-155.31
-163.37
-171.89
-176.80
-176.72
-172.08
-163.40
-150.46
-133.12
-112.44
-90.67
-70.03
-49.76
-25.21
10.20
61.27
127.27
201.08
271.98
330.50
370.87
393.85
404.33
407.09
403.35
390.09
362.06
315.61
254.37
184.83
115.79
55.58
9.82
-19.20
-31.74
-29.40
-14.60
9.60
37.90
63.25
77.84
75.09
51.99
10.84
-41.09
-93.30
-134.47
-155.40
-150.18
-117.68
-62.72
3.28
64.17
103.12
108.46
78.52
22.36
-43.55
-102.18
-142.57
-163.11
-169.69
-171.66
-176.82
-188.49
-205.69
-225.43
-245.31
-264.81
-284.50
-304.28
-322.37
-335.37
-339.75
-333.65
-318.30
-296.35
-271.00
-244.52
-217.61
-189.49
-158.76
-124.39
-86.60
-46.91
-7.44
29.79
63.76
95.03
125.33
156.99
191.61
228.70
265.11
295.72
315.16
320.00
310.23
289.19
262.12
233.84
207.16
182.48
158.87
135.60
113.14
93.20
77.66
67.50
62.13
59.70
57.95
55.22
50.83
45.07
38.62
32.05
25.62
19.45
13.81
9.23
6.30
5.06
4.70
3.79
1.01
-3.84
-9.58
-14.16
-15.96
-14.90
-12.57
-11.17
-12.01
-14.53
-16.76
-16.81
-14.37
-11.13
-9.61
-11.34
-15.63
-20.00
-21.80
-19.94
-15.58
-11.20
-8.93
-9.31
-11.19
-12.80
-12.96
-11.68
-9.79
-8.18
-7.26
-6.88
-6.70
-6.55
-6.42
-6.32
-6.15
-5.81
-5.37
-5.13
-5.38
-6.13
-6.98
-7.41
-7.13
-6.36
-5.67
-5.53
-5.91
-6.33
-6.16
-5.13
-3.50
-1.86
-0.78
-0.46
-0.71
-1.17
-1.61
-2.06
-2.74
-3.85
-5.43
-7.24
-8.81
-9.58
-9.18
-7.65
-5.60
-4.04
-3.99
-6.06
-10.10
-15.28
-20.41
-24.27
-26.01
-25.20
-22.00
-17.03
-11.36
-6.23
-2.69
-1.19
-1.53
-3.19
-5.60
-8.60
-12.30
-16.66
-21.04
-24.33
-25.26
-23.11
-18.56
-13.77
-11.66
-14.21
-21.18
-29.80
-36.00
-36.39
-30.11
-19.19
-7.34
2.14
7.84
10.64
12.58
15.34
19.22
23.18
25.78
26.26
24.98
23.07
21.72
21.52
22.41
23.83
25.04
25.48
25.15
24.45
23.82
23.49
23.19
22.35
20.47
17.59
14.42
12.01
11.22
12.35
15.02
18.25
20.96
22.27
21.84
19.82
16.70
12.92
8.81
4.52
0.19
-3.89
-7.37
-9.93
-11.53
-12.48
-13.32
-14.53
-16.16
-17.82
-18.93
-19.09
-18.38
-17.34
-16.57
-16.35
-16.46
-16.28
-15.13
-12.68
-9.12
-5.16
-1.67
0.60
1.38
0.93
-0.09
-0.95
-1.19
-0.84
-0.31
-0.06
-0.33
-0.91
-1.33
-1.17
-0.42
0.42
0.66
-0.22
-2.15
-4.51
-6.47
-7.44
-7.36
-6.74
-6.23
-6.28
-6.79
-7.23
-6.95
-5.64
-3.60
-1.59
-0.52
-0.87
-2.40
-4.29
-5.55
-5.65
-4.77
-3.76
-3.58
-4.73
-6.90
-9.19
-10.58
-10.63
-9.68
-8.67
-8.59
-9.87
-12.11
-14.30
-15.40
-14.82
-12.75
-9.88
-7.03
-4.64
-2.61
-0.49
2.17
5.42
8.79
11.51
12.89
12.66
11.20
9.39
8.21
8.31
9.66
11.62
13.25
13.85
13.36
12.43
12.00
12.75
14.67
17.11
19.09
19.94
19.63
18.79
18.20
18.38
19.22
20.07
20.15
19.02
16.87
14.38
12.39
11.45
11.58
12.37
13.22
13.67
13.59
13.04
12.11
10.69
8.43
5.05
0.56
-4.57
-9.51
-13.50
-16.23
-17.97
-19.38
-21.06
-23.03
-24.62
-24.75
-22.57
-18.13
-12.56
-7.68
-5.15
-5.59
-8.19
-11.12
-12.42
-11.05
-7.36
-2.81
0.80
2.31
1.60
-0.45
-2.61
-3.97
-4.32
-4.11
-4.07
-4.86
-6.72
-9.54
-12.88
-16.10
-18.29
-18.52
-16.16
-11.26
-4.86
1.34
5.37
5.95
3.01
-2.35
-8.53
-14.31
-19.32
-24.02
-29.06
-34.70
-40.39
-44.95
-47.04
-45.79
-41.18
-34.06
-25.83
-17.88
-11.06
-5.22
0.41
6.77
14.24
22.39
30.12
36.46
41.09
44.28
46.35
47.11
45.84
42.21
36.92
31.95
29.72
31.60
36.83
42.69
45.87
44.28
38.21
30.03
22.82
18.63
17.51
17.79
17.40
15.08
11.14
7.07
4.50
4.21
5.58
7.03
6.94
4.79
1.30
-1.81
-2.88
-1.37
1.84
4.89
5.87
3.89
-0.56
-5.97
-10.63
-13.46
-14.52
-14.76
-15.38
-17.22
-20.29
-23.90
-27.09
-29.14
-29.91
-29.81
-29.55
-29.66
-30.23
-30.87
-30.99
-30.12
-28.23
-25.70
-23.13
-20.96
-19.23
-17.61
-15.69
-13.30
-10.63
-8.11
-6.06
-4.43
-2.78
-0.61
2.26
5.48
8.28
9.92
10.11
9.20
7.97
7.23
7.44
8.58
10.32
12.28
14.29
16.40
18.72
21.18
23.43
24.97
25.28
24.22
22.11
19.74
18.05
17.75
18.90
20.88
22.64
23.21
22.23
20.01
17.36
15.09
13.60
12.80
12.16
10.80
7.77
2.38
-5.53
-15.13
-24.76
-32.50
-37.04
-38.30
-37.32
-35.57
-33.93
-32.33
-29.96
-26.17
-21.26
-16.52
-13.61
-13.42
-15.53
-18.37
-20.20
-20.01
-17.97
-15.18
-12.71
-11.08
-9.97
-8.57
-6.37
-3.58
-1.13
0.13
0.29
0.69
3.14
8.59
16.14
23.23
27.26
27.32
25.10
24.05
27.24
35.36
46.26
56.09
61.65
62.19
59.59
56.99
56.83
59.49
63.37
65.74
64.15
57.21
45.37
30.64
16.01
4.42
-2.36
-4.41
-3.70
-3.06
-4.74
-9.35
-15.68
-21.70
-25.73
-27.43
-27.64
-27.62
-28.14
-29.03
-29.63
-29.43
-28.48
-27.42
-26.99
-27.50
-28.67
-29.68
-29.69
-28.29
-25.58
-22.22
-19.02
-16.67
-15.52
-15.41
-15.78
-15.95
-15.41
-14.09
-12.31
-10.67
-9.60
-9.15
-8.94
-8.39
-7.11
-5.17
-3.06
-1.46
-0.84
-1.19
-2.01
-2.63
-2.52
-1.57
-0.13
1.21
1.94
1.90
1.34
0.75
0.61
1.15
2.18
3.26
3.90
3.77
2.92
1.71
0.61
0.03
0.09
0.67
1.56
2.47
3.22
3.73
3.95
3.79
3.11
1.81
0.11
-1.33
-1.64
-0.16
3.16
7.54
11.66
14.22
14.57
13.02
10.58
8.28
6.62
5.35
3.89
2.03
0.50
0.68
3.93
10.58
19.45
28.28
34.60
36.95
35.62
32.31
29.34
28.71
31.76
39.29
51.26
66.35
81.16
90.30
87.88
70.08
37.69
-3.13
-42.74
-71.97
-85.77
-84.82
-74.39
-60.95
-48.94
-39.54
-31.37
-22.73
-13.20
-4.06
2.86
6.41
6.80
5.24
2.82
-0.29
-4.87
-11.78
-20.98
-31.10
-39.84
-44.84
-44.90
-40.29
-32.64
-24.11
-16.63
-11.38
-8.80
-8.71
-10.41
-12.97
-15.35
-16.61
-16.29
-14.49
-11.82
-9.19
-7.37
-6.71
-7.13
-8.11
-9.02
-9.32
-8.70
-7.24
-5.29
-3.43
-2.22
-2.00
-2.68
-3.80
-4.68
-4.70
-3.67
-1.92
-0.11
1.11
1.43
1.02
0.40
0.09
0.34
0.97
1.56
1.67
1.17
0.33
-0.34
-0.38
0.38
1.69
3.01
3.72
3.43
2.19
0.44
-1.17
-2.04
-1.88
-0.92
0.23
0.80
0.20
-1.70
-4.49
-7.41
-9.73
-11.10
-11.64
-11.71
-11.66
-11.63
-11.70
-12.22
-13.89
-17.37
-22.48
-27.50
-29.35
-24.98
-13.33
3.36
19.93
30.51
31.58
23.92
12.26
2.77
-0.07
4.54
13.95
23.88
30.93
33.94
33.82
32.29
30.57
28.77
26.00
21.37
14.56
5.99
-3.24
-11.76
-18.39
-22.50
-23.85
-22.09
-16.60
-6.64
7.64
24.48
40.22
50.61
52.59
45.73
32.35
16.33
1.27
-10.56
-18.36
-22.22
-22.44
-19.42
-14.07
-7.95
-3.06
-0.95
-1.95
-4.95
-8.25
-10.37
-10.66
-9.40
-7.28
-5.03
-3.19
-2.17
-2.26
-3.57
-5.85
-8.47
-10.67
-11.68
-11.20
-9.37
-6.80
-4.39
-2.94
-2.77
-3.71
-5.13
-6.23
-6.45
-5.61
-4.02
-2.22
-0.74
0.17
0.62
0.87
1.19
1.55
1.75
1.57
0.94
0.17
-0.28
0.01
1.06
2.48
3.58
3.77
2.85
1.20
-0.45
-1.35
-1.09
0.16
1.79
3.02
3.25
2.35
0.69
-1.05
-2.18
-2.28
-1.38
0.15
1.75
2.83
3.08
2.30
0.49
-2.36
-6.16
-10.58
-14.77
-17.51
-17.66
-14.77
-9.59
-3.85
0.56
2.59
2.59
2.17
3.31
7.24
13.75
21.28
27.60
30.90
30.55
27.13
22.02
16.67
11.93
7.93
4.19
0.16
-4.32
-8.85
-12.68
-15.18
-16.23
-16.27
-16.10
-16.37
-17.34
-18.77
-20.24
-21.25
-21.56
-21.23
-20.49
-19.61
-18.79
-18.03
-17.22
-16.24
-15.10
-13.97
-13.18
-12.97
-13.43
-14.36
-15.42
-16.29
-16.81
-17.10
-17.53
-18.61
-20.55
-22.99
-24.71
-24.02
-19.57
-11.30
-0.82
9.06
15.57
17.32
14.97
10.77
7.22
5.83
6.62
8.53
10.40
11.68
12.58
13.50
14.59
15.56
16.02
15.85
15.34
14.97
15.11
15.71
16.40
16.70
16.35
15.36
13.94
12.32
10.65
9.00
7.43
6.00
4.82
3.91
3.21
2.57
1.79
0.73
-0.60
-2.07
-3.38
-4.16
-4.06
-2.91
-0.82
1.79
4.31
6.12
6.82
6.46
5.53
4.72
4.67
5.59
7.19
8.69
9.29
8.54
6.67
4.55
3.38
4.09
6.83
10.76
14.39
16.19
15.43
12.50
8.87
6.35
6.28
8.86
13.25
18.07
22.14
25.12
27.36
29.43
31.62
33.92
36.26
38.86
42.08
45.75
48.55
48.14
42.29
30.40
14.64
-0.48
-9.80
-9.87
-0.42
15.65
33.73
49.66
61.26
68.67
73.52
77.61
81.92
86.31
90.02
92.39
93.65
94.95
97.85
103.47
111.83
121.69
131.09
138.38
142.86
144.96
145.75
146.48
148.29
152.04
158.05
165.38
171.39
172.17
164.07
145.67
119.18
90.17
65.55
50.89
48.36
56.56
71.95
90.84
110.84
130.90
150.45
168.27
182.07
188.95
186.36
172.92
149.12
117.12
80.10
41.29
3.10
-33.02
-66.21
-95.65
-120.39
-139.65
-153.49
-163.28
-171.43
-180.51
-192.23
-207.15
-224.96
-245.57
-269.80
-299.36
-335.62
-377.99
-422.76
-463.36
-492.20
-503.16
-493.68
-465.46
-423.54
-374.10
-322.17
-270.18
-217.66
-162.34
-102.10
-37.10
28.84
88.43
133.04
156.09
156.10
137.54
108.70
77.46
47.74
18.90
-11.59
-44.34
-75.86
-99.85
-111.14
-109.27
-99.30
-88.93
-84.08
-86.06
-92.01
-98.14
-102.70
-106.89
-112.77
-119.86
-123.92
-118.66
-99.79
-68.58
-32.40
-1.80
14.50
13.45
-1.29
-21.71
-39.13
-47.47
-44.24
-29.78
-5.76
25.96
63.36
104.10
145.56
185.28
221.44
252.88
278.48
296.31
303.85
298.60
279.46
247.35
204.85
154.66
97.88
33.80
-38.67
-118.25
-199.24
-271.78
-324.70
-349.95
-345.74
-316.91
-272.34
-220.98
-169.24
-120.46
-76.36
-38.95
-10.73
6.32
12.57
11.35
8.16
8.31
14.69
26.91
41.81
55.18
63.62
65.83
62.74
56.76
50.78
46.86
46.00
47.93
51.96
57.68
65.09
74.31
84.61
94.27
100.85
102.34
98.36
90.49
81.70
74.76
71.07
69.82
68.76
65.71
59.72
51.89
44.55
40.04
39.21
40.98
43.03
42.93
39.71
34.14
28.39
24.49
23.22
23.56
23.05
19.36
11.38
0.32
-11.04
-19.63
-23.90
-24.90
-25.66
-29.88
-39.44
-53.28
-67.37
-76.89
-78.79
-73.62
-65.50
-59.75
-60.04
-65.84
-72.75
-74.51
-66.40
-47.78
-22.37
3.13
21.98
29.10
21.96
-0.23
-37.13
-86.74
-144.82
-203.76
-253.76
-285.06
-291.39
-272.30
-232.97
-182.16
-128.19
-76.28
-27.20
21.40
72.77
128.80
188.87
250.38
309.88
364.03
409.83
444.62
465.74
470.98
459.24
431.32
389.85
338.35
279.61
214.45
142.57
64.63
-15.06
-87.69
-142.48
-171.52
-174.26
-158.75
-138.57
-126.87
-131.09
-150.37
-177.10
-201.37
-215.25
-215.04
-201.00
-175.98
-143.99
-109.61
-77.47
-51.13
-31.55
-15.97
1.25
25.79
59.84
99.75
136.64
160.27
164.30
149.71
125.19
102.92
92.45
96.23
108.67
119.49
119.08
102.96
73.16
36.49
0.27
-31.00
-56.69
-78.73
-98.87
-116.52
-128.41
-130.59
-121.17
-102.33
-80.13
-62.07
-53.76
-56.30
-65.90
-76.00
-80.62
-77.09
-66.80
-53.87
-42.47
-34.98
-31.07
-28.75
-25.91
-21.74
-17.15
-14.09
-14.16
-17.37
-21.66
-23.49
-19.32
-7.18
12.32
36.16
60.15
80.34
94.36
101.79
103.79
102.22
99.21
96.63
95.88
97.57
100.87
103.11
99.95
86.80
61.11
24.38
-17.31
-54.87
-79.54
-86.55
-76.96
-57.03
-35.26
-18.82
-11.19
-11.86
-18.03
-26.81
-36.64
-47.18
-58.31
-69.13
-77.74
-82.10
-81.30
-76.20
-69.27
-63.84
-62.42
-66.01
-73.91
-84.18
-94.64
-103.61
-110.10
-113.74
-114.37
-111.71
-105.48
-95.50
-82.02
-65.94
-48.66
-31.77
-16.87
-5.25
2.31
5.81
6.32
5.72
5.87
7.51
9.61
9.66
5.41
-3.22
-13.35
-20.16
-19.31
-9.47
6.90
24.67
38.58
45.77
46.48
43.21
38.79
34.82
31.23
26.96
21.00
13.26
4.76
-2.93
-8.47
-11.58
-13.12
-14.79
-18.21
-24.17
-32.10
-40.30
-46.57
-48.58
-44.56
-33.64
-16.62
3.82
23.23
36.54
39.91
32.38
16.72
-1.35
-14.74
-17.18
-5.23
20.65
55.80
92.11
119.91
130.84
120.84
92.09
52.45
12.34
-19.45
-39.25
-48.87
-53.38
-57.10
-61.08
-62.70
-58.21
-45.78
-27.12
-7.11
8.94
18.13
21.51
23.27
28.06
38.25
52.48
66.49
75.20
75.57
68.18
56.79
46.59
41.53
42.43
46.95
50.96
50.81
45.29
35.94
26.02
18.69
15.40
15.40
16.52
16.66
14.87
11.77
8.62
5.98
2.91
-2.93
-13.97
-30.83
-51.35
-70.76
-83.40
-85.13
-75.19
-56.51
-34.48
-14.56
-0.23
7.88
11.57
13.55
15.91
19.32
23.20
26.57
28.77
29.81
29.69
28.17
24.73
19.14
12.02
5.06
0.04
-2.29
-2.86
-3.77
-6.67
-11.51
-16.12
-17.42
-13.29
-4.03
7.62
17.77
23.30
23.28
18.81
12.21
5.68
0.68
-2.17
-2.80
-1.33
2.05
7.03
13.21
20.12
27.54
35.19
42.76
49.85
56.13
61.56
66.49
71.52
77.11
83.20
89.02
93.46
95.57
95.12
92.74
89.75
87.67
87.71
90.32
95.06
100.90
106.66
111.64
115.80
119.66
123.76
128.00
131.56
132.97
130.92
124.81
114.82
101.42
85.10
66.70
48.22
33.19
25.90
29.35
42.83
61.27
76.63
81.09
70.67
46.38
12.73
-25.58
-66.46
-110.47
-158.06
-206.52
-248.91
-276.58
-283.88
-271.58
-246.34
-216.45
-186.62
-155.57
-118.24
-71.54
-19.30
27.31
55.03
56.13
33.27
-1.76
-34.56
-55.67
-63.99
-64.49
-62.68
-59.73
-52.11
-35.68
-10.25
18.31
40.72
49.74
44.25
29.67
14.53
5.49
4.08
6.99
8.97
6.10
-2.47
-14.81
-27.67
-38.14
-44.64
-46.84
-45.19
-40.59
-33.90
-25.70
-16.43
-6.76
1.95
7.51
7.70
1.57
-9.39
-21.29
-29.28
-29.78
-22.40
-9.98
2.87
12.40
17.36
18.98
19.59
20.99
23.87
28.13
33.53
39.49
44.52
45.76
39.82
24.42
0.11
-29.18
-57.20
-77.99
-88.20
-88.18
-81.41
-72.59
-65.66
-62.47
-62.62
-64.16
-64.88
-63.40
-59.84
-55.48
-51.89
-49.53
-47.41
-43.55
-36.26
-25.52
-12.86
-0.62
9.37
16.75
22.56
28.27
34.61
40.92
45.46
46.35
42.66
34.95
24.94
14.69
5.59
-1.98
-8.24
-12.98
-15.15
-13.25
-6.36
4.79
17.62
28.80
35.63
37.15
34.20
28.56
21.71
14.35
6.78
-0.46
-5.96
-8.03
-5.79
-0.11
6.46
11.00
11.91
10.11
8.59
10.44
16.80
25.86
33.89
37.70
36.68
32.92
29.30
27.32
26.04
23.25
17.74
10.64
4.78
2.50
3.73
5.92
5.85
2.07
-4.22
-10.17
-13.45
-13.82
-12.86
-12.50
-13.51
-15.22
-16.35
-16.14
-14.77
-12.85
-10.79
-8.54
-5.85
-2.94
-0.51
0.83
1.19
1.66
3.64
7.86
13.75
19.51
23.13
23.30
20.03
14.35
7.69
1.11
-5.02
-10.84
-16.73
-23.01
-29.79
-36.84
-43.82
-50.27
-55.56
-58.89
-59.31
-56.01
-48.71
-38.40
-27.52
-19.46
-17.04
-20.89
-28.79
-36.47
-39.90
-37.32
-29.89
-20.63
-12.20
-5.38
0.84
7.76
15.40
22.05
25.41
24.29
19.54
13.79
9.92
9.65
12.73
17.60
22.36
25.53
26.63
25.98
24.48
23.30
23.68
26.46
31.76
38.59
44.85
48.01
46.08
38.60
27.09
14.54
4.28
-1.65
-3.35
-2.90
-3.01
-5.50
-10.39
-16.18
-21.13
-24.48
-26.99
-30.26
-35.49
-42.58
-50.12
-56.51
-61.22
-65.20
-69.94
-76.00
-81.84
-84.27
-80.36
-69.83
-55.96
-44.58
-41.00
-47.10
-60.19
-74.82
-86.05
-92.04
-94.48
-96.33
-99.35
-102.80
-104.37
-102.34
-97.17
-91.16
-86.68
-84.09
-81.22
-74.93
-63.63
-48.98
-35.35
-27.59
-28.37
-36.74
-48.80
-59.89
-66.98
-69.91
-70.93
-72.59
-75.76
-79.08
-79.84
-75.84
-66.42
-52.52
-35.24
-14.92
8.79
36.11
65.69
93.74
114.47
122.74
115.87
95.26
65.75
33.76
5.31
-15.55
-27.30
-30.68
-27.52
-20.63
-12.00
-2.30
9.23
24.30
44.74
71.80
105.51
144.98
187.25
228.62
264.94
292.44
308.96
315.01
314.21
310.44
312.25
322.44
339.33
356.26
363.81
353.20
319.54
263.73
192.35
115.77
44.35
-13.05
-51.27
-69.32
-70.13
-59.29
-44.08
-30.51
-21.88
-18.66
-18.20
-16.66
-11.65
-3.25
3.73
2.65
-10.80
-35.32
-64.10
-87.13
-96.49
-89.78
-71.01
-48.31
-29.38
-18.18
-14.52
-16.25
-21.56
-30.18
-42.50
-58.04
-74.55
-88.27
-95.70
-94.75
-85.68
-70.78
-53.78
-39.04
-30.47
-30.12
-36.94
-46.96
-54.93
-56.98
-52.32
-42.92
-31.59
-19.85
-7.41
6.74
21.93
34.59
39.49
32.98
16.03
-5.20
-22.34
-29.28
-25.32
-15.10
-5.19
-0.06
0.16
-1.22
-0.48
3.92
10.44
15.64
16.67
13.04
6.69
0.57
-3.03
-3.48
-1.57
1.31
4.00
6.02
7.48
8.79
10.13
11.61
13.14
14.55
15.66
16.30
16.32
15.77
14.82
13.81
13.30
13.78
15.53
18.41
21.80
24.80
26.60
26.92
26.14
25.11
24.80
25.79
28.06
31.10
34.26
37.19
39.95
42.84
46.05
49.29
51.95
53.44
53.66
53.22
53.25
54.71
57.77
61.36
63.52
62.24
56.59
47.36
36.85
27.78
21.83
18.77
16.47
12.06
3.43
-9.42
-23.97
-35.88
-40.59
-34.97
-18.49
6.44
35.12
61.65
80.16
85.92
76.44
52.27
17.28
-22.09
-58.37
-85.17
-98.77
-98.75
-87.61
-69.55
-49.32
-31.41
-19.54
-16.04
-21.34
-33.51
-48.74
-62.70
-72.38
-76.91
-77.06
-73.43
-65.08
-49.84
-26.66
1.78
28.44
44.03
41.44
19.71
-14.70
-50.53
-76.68
-86.72
-80.61
-63.32
-41.43
-20.18
-2.46
10.30
16.89
15.93
6.81
-8.88
-26.82
-41.06
-46.62
-41.77
-29.08
-14.18
-3.13
0.46
-3.17
-10.30
-15.80
-15.44
-7.75
5.68
20.95
33.54
40.02
39.23
32.53
23.01
13.90
7.16
2.63
-1.65
-8.16
-18.38
-32.02
-47.45
-62.70
-76.44
-88.15
-97.58
-104.02
-106.06
-102.40
-92.93
-79.41
-65.15
-53.91
-48.58
-50.15
-57.27
-66.63
-73.77
-74.54
-66.40
-49.48
-26.66
-2.45
18.76
34.46
44.64
51.07
55.89
60.17
63.61
65.19
64.38
61.75
58.58
55.78
52.96
48.55
40.91
29.55
16.05
3.48
-4.95
-7.55
-4.91
0.62
6.39
10.80
13.92
16.84
20.54
24.91
28.73
30.50
29.38
25.70
20.73
15.94
12.29
9.97
8.56
7.42
6.14
4.71
3.51
3.01
3.47
4.51
5.03
3.47
-1.43
-9.70
-19.62
-28.18
-32.27
-30.27
-22.97
-13.14
-4.25
1.31
3.12
2.48
1.19
0.28
-0.56
-2.39
-5.97
-10.93
-15.81
-18.82
-18.96
-16.55
-13.01
-10.07
-8.75
-8.99
-9.75
-9.73
-8.13
-5.02
-1.15
2.60
5.79
8.66
11.93
16.16
21.15
25.67
27.75
25.54
18.35
7.25
-5.07
-15.33
-21.04
-21.49
-17.97
-12.93
-8.81
-6.91
-7.02
-7.74
-7.49
-5.31
-1.41
2.96
6.13
6.76
4.59
0.59
-3.31
-5.06
-3.46
1.34
7.84
13.97
18.06
19.31
17.82
13.95
7.88
-0.42
-10.67
-21.68
-31.26
-36.78
-36.38
-29.99
-19.53
-8.11
1.36
7.37
10.18
11.09
11.08
9.97
6.44
-0.90
-12.05
-24.85
-35.41
-39.78
-35.93
-24.76
-9.75
4.75
15.49
21.45
23.74
24.36
24.79
25.26
24.96
22.79
18.34
12.26
6.01
1.29
-0.73
0.12
2.88
5.94
7.77
7.67
6.22
4.86
4.72
5.43
4.63
-1.01
-13.76
-32.78
-53.46
-68.93
-73.06
-63.45
-42.78
-17.60
4.57
18.52
23.06
20.60
15.10
9.75
5.79
2.61
-0.93
-5.36
-10.05
-13.64
-14.95
-13.66
-10.42
-6.48
-2.99
-0.67
0.04
-1.45
-6.07
-14.91
-28.44
-45.74
-63.88
-78.17
-83.11
-74.07
-49.31
-11.46
32.21
71.47
96.57
102.00
88.77
63.93
37.34
17.30
7.56
6.75
10.16
12.46
10.10
2.45
-8.39
-18.75
-24.88
-24.40
-17.40
-6.37
4.85
12.89
16.37
16.14
14.09
11.29
7.04
-0.42
-11.86
-25.30
-36.03
-38.68
-30.10
-11.40
12.32
34.05
47.88
51.25
45.56
34.94
24.00
16.07
12.20
11.73
13.35
16.21
20.22
25.40
31.06
35.40
36.04
31.19
20.73
6.60
-7.87
-19.39
-25.92
-27.21
-24.48
-19.46
-13.59
-7.70
-2.26
2.25
5.22
6.12
4.90
2.12
-1.22
-4.40
-7.40
-10.99
-16.03
-22.73
-30.03
-35.82
-37.85
-34.80
-27.03
-16.43
-5.58
3.33
9.37
12.94
15.28
17.54
20.14
22.50
23.47
22.04
18.11
12.79
8.08
6.00
7.60
12.39
18.56
23.88
26.67
26.32
23.28
18.35
12.12
4.82
-3.25
-11.32
-18.11
-22.43
-23.68
-22.25
-19.21
-15.72
-12.43
-9.37
-6.26
-3.02
0.02
2.24
3.21
3.04
2.38
2.02
2.45
3.56
4.69
5.07
4.21
2.15
-0.51
-2.96
-4.57
-5.29
-5.62
-6.24
-7.51
-9.24
-10.74
-11.17
-10.00
-7.22
-3.28
1.02
4.88
7.49
8.19
6.55
2.67
-2.56
-7.66
-10.85
-10.86
-7.43
-1.38
5.74
12.39
17.62
21.22
23.35
24.07
23.03
19.54
13.29
4.82
-4.23
-11.60
-15.39
-14.93
-11.25
-6.53
-3.13
-2.39
-4.03
-6.41
-7.46
-5.80
-1.42
4.24
8.87
10.04
6.16
-3.00
-15.96
-29.79
-40.93
-46.36
-44.65
-36.43
-23.94
-9.97
3.11
13.88
21.66
25.95
26.23
22.26
14.72
5.59
-2.26
-6.13
-4.78
0.96
8.62
15.26
18.83
18.93
16.75
14.05
12.11
10.91
9.25
5.58
-0.97
-9.77
-18.85
-25.84
-29.14
-28.79
-26.32
-23.77
-22.46
-22.42
-22.58
-22.01
-20.81
-20.23
-21.67
-25.17
-28.78
-29.22
-23.73
-11.79
4.21
19.96
31.30
36.10
34.95
30.47
25.67
22.55
21.58
22.06
23.04
24.05
25.20
26.93
29.43
32.30
34.54
34.81
32.01
25.76
16.73
6.47
-3.09
-10.36
-14.56
-15.90
-15.37
-14.09
-12.80
-11.54
-9.81
-7.09
-3.35
0.74
3.96
5.22
4.22
1.65
-1.15
-2.88
-3.05
-2.13
-1.22
-1.25
-2.38
-3.81
-4.22
-2.59
1.20
6.05
10.08
11.56
9.77
5.44
0.46
-3.18
-4.42
-3.70
-2.56
-2.63
-4.51
-7.37
-9.48
-9.34
-6.72
-2.88
0.17
0.82
-1.12
-4.31
-6.73
-6.85
-4.46
-0.81
2.11
2.71
0.65
-2.96
-6.19
-7.41
-6.18
-3.41
-0.89
-0.17
-1.61
-4.25
-6.37
-6.58
-4.59
-1.46
1.18
1.97
0.71
-1.68
-3.76
-4.49
-3.87
-2.83
-2.64
-3.93
-6.34
-8.53
-9.01
-6.95
-2.69
2.37
6.50
8.46
8.19
6.65
5.23
4.95
5.82
6.99
7.28
6.01
3.47
0.74
-0.97
-1.10
-0.06
0.95
0.77
-1.03
-3.81
-6.16
-6.74
-5.04
-1.75
1.62
3.41
2.73
-0.11
-3.77
-6.57
-7.32
-5.90
-3.28
-0.86
0.21
-0.21
-1.34
-1.96
-1.22
0.76
3.04
4.34
3.95
2.17
0.18
-0.66
0.31
2.60
4.77
5.20
3.04
-1.25
-6.08
-9.47
-10.07
-7.84
-4.00
-0.38
1.56
1.44
0.05
-1.15
-0.96
0.90
3.67
6.00
6.78
5.76
3.60
1.51
0.47
0.69
1.60
2.18
1.60
-0.29
-2.90
-5.29
-6.74
-7.17
-7.16
-7.51
-8.71
-10.56
-12.12
-12.30
-10.46
-6.94
-2.91
0.13
1.20
0.45
-0.92
-1.34
0.18
3.34
6.73
8.53
7.65
4.44
0.54
-2.06
-2.14
0.11
3.18
5.20
4.95
2.38
-1.51
-5.37
-8.22
-9.78
-10.33
-10.23
-9.54
-7.97
-5.15
-1.10
3.60
7.82
10.46
10.88
9.25
6.50
3.82
2.14
1.76
2.31
3.17
3.98
4.91
6.56
9.61
14.18
19.61
24.57
27.66
28.09
26.20
23.44
21.73
22.56
26.18
31.43
36.36
39.19
39.33
37.64
35.97
36.13
38.92
43.73
48.76
51.80
50.84
44.53
32.19
13.96
-8.93
-33.80
-56.63
-72.91
-79.11
-74.25
-60.52
-42.62
-26.02
-14.87
-10.70
-12.41
-17.29
-22.49
-26.05
-27.23
-26.08
-23.01
-18.46
-12.89
-6.89
-1.23
3.33
6.06
6.52
4.73
1.15
-3.22
-7.04
-9.05
-8.50
-5.48
-0.97
3.59
7.03
8.88
9.55
9.90
10.57
11.51
12.05
11.37
9.18
6.08
3.40
2.58
4.40
8.47
13.19
16.34
15.90
10.93
2.03
-8.78
-18.81
-25.69
-28.21
-26.69
-22.54
-17.61
-13.30
-10.17
-8.04
-6.38
-4.84
-3.47
-2.52
-2.09
-1.86
-1.18
0.59
3.47
6.67
8.87
8.80
6.04
1.46
-3.04
-5.38
-4.35
-0.16
5.66
11.05
14.31
14.58
12.04
7.56
2.41
-2.04
-4.66
-4.91
-3.07
-0.38
1.38
0.61
-3.33
-9.74
-16.85
-22.45
-24.84
-23.35
-18.43
-11.23
-3.10
4.75
11.36
16.01
18.20
17.69
14.64
9.76
4.11
-1.16
-5.24
-7.87
-9.28
-9.88
-9.87
-9.21
-7.76
-5.54
-3.02
-0.94
-0.04
-0.65
-2.57
-5.16
-7.70
-9.71
-11.17
-12.41
-13.79
-15.31
-16.46
-16.30
-13.87
-8.66
-0.86
8.58
18.28
26.88
33.45
37.70
39.87
40.57
40.53
40.40
40.66
41.51
42.61
42.90
40.60
33.74
21.13
3.41
-16.58
-34.42
-45.85
-48.66
-43.81
-34.92
-26.41
-21.31
-20.03
-20.67
-20.60
-18.24
-13.86
-9.19
-6.15
-5.71
-7.40
-9.75
-11.22
-10.90
-8.84
-5.88
-3.03
-1.02
-0.06
0.19
0.31
0.72
1.33
1.61
0.84
-1.30
-4.44
-7.62
-9.76
-10.29
-9.44
-8.09
-7.26
-7.49
-8.59
-9.78
-10.14
-9.01
-6.28
-2.37
2.03
6.08
9.16
10.85
11.12
10.23
8.62
6.72
4.81
2.98
1.20
-0.57
-2.30
-3.88
-5.16
-6.05
-6.54
-6.76
-6.92
-7.20
-7.70
-8.36
-9.03
-9.60
-10.09
-10.60
-11.20
-11.70
-11.60
-10.26
-7.33
-3.02
1.84
6.09
8.85
9.91
9.83
9.55
9.83
10.84
12.13
12.90
12.48
10.69
7.88
4.81
2.27
0.76
0.20
0.04
-0.45
-1.73
-3.67
-5.54
-6.42
-5.71
-3.56
-0.80
1.52
2.71
2.75
2.26
2.02
2.43
3.38
4.37
4.93
4.96
4.79
4.88
5.50
6.52
7.47
7.83
7.31
6.00
4.31
2.67
1.26
-0.09
-1.78
-4.13
-7.09
-10.18
-12.61
-13.68
-13.04
-10.90
-7.89
-4.79
-2.18
-0.25
1.12
2.18
3.00
3.44
3.25
2.29
0.77
-0.74
-1.56
-1.27
0.04
1.74
2.95
3.02
1.83
-0.10
-1.89
-2.74
-2.40
-1.23
-0.06
0.31
-0.57
-2.49
-4.73
-6.40
-6.84
-5.89
-3.92
-1.59
0.53
2.30
4.01
6.16
9.10
12.63
16.04
18.40
19.07
18.11
16.39
15.19
15.67
18.16
21.96
25.62
27.71
27.58
25.74
23.62
22.81
24.35
28.27
33.89
40.30
46.86
53.34
59.74
66.01
72.09
78.01
84.11
91.00
99.46
109.93
121.96
133.80
142.61
145.32
140.27
128.69
115.11
106.00
106.91
119.46
139.88
160.25
171.88
169.25
152.26
125.64
96.07
68.72
45.25
23.99
1.89
-23.30
-51.76
-81.68
-110.26
-134.97
-154.33
-167.96
-176.19
-179.51
-178.20
-172.33
-162.02
-147.92
-131.44
-114.61
-99.57
-87.78
-79.42
-73.27
-67.30
-59.55
-49.01
-36.07
-22.17
-9.11
1.87
10.56
17.83
25.09
33.70
44.39
57.03
70.80
84.53
97.15
108.09
117.49
126.04
134.84
144.94
156.80
170.22
184.09
196.67
205.90
209.87
207.35
198.23
183.88
167.09
151.53
140.77
137.10
140.77
150.00
161.81
173.29
182.61
189.35
194.12
197.63
200.03
200.76
198.88
193.59
184.65
172.32
157.18
139.86
120.80
100.41
79.12
57.24
35.06
12.73
-9.76
-32.49
-55.44
-78.54
-101.60
-124.43
-146.96
-169.29
-191.73
-214.88
-239.69
-267.25
-298.25
-332.08
-366.30
-396.69
-418.31
-427.32
-422.41
-405.44
-380.62
-352.78
-325.69
-301.11
-279.12
-259.03
-240.27
-222.77
-206.59
-191.52
-176.89
-161.95
-146.38
-130.67
-116.02
-103.86
-95.09
-89.55
-86.03
-82.67
-77.85
-70.78
-61.94
-52.85
-45.44
-41.13
-40.22
-41.71
-43.77
-44.65
-43.52
-40.94
-38.60
-38.52
-41.88
-48.69
-57.62
-66.86
-74.95
-81.20
-85.68
-89.05
-92.53
-97.65
-106.07
-118.55
-133.78
-147.95
-155.32
-149.92
-127.93
-89.53
-39.22
15.58
66.93
108.74
138.10
155.25
162.43
162.17
156.16
144.97
128.86
109.05
88.40
70.96
60.95
60.56
68.48
80.01
88.81
89.72
80.52
62.76
40.86
20.97
9.45
9.65
20.15
34.56
44.17
41.06
22.56
-7.86
-41.56
-67.87
-80.74
-81.70
-78.11
-77.19
-83.38
-95.73
-110.60
-124.17
-133.13
-138.04
-143.21
-154.15
-172.97
-201.50
-241.06
-294.20
-362.85
-443.24
-528.66
-612.03
-687.66
-749.56
-796.66
-820.94
-818.07
-802.55
-781.58
-751.85
-705.79
-657.91
-614.37
-582.84
-567.20
-560.14
-550.25
-521.28
-460.02
-361.34
-229.17
-70.69
103.02
281.61
455.63
616.74
759.95
880.40
972.82
1033.11
1062.44
1064.12
1045.31
1013.06
972.55
928.31
882.56
835.19
785.16
733.23
680.76
630.03
583.01
540.60
503.34
470.56
440.47
411.85
384.36
358.03
333.49
311.22
291.23
273.36
257.02
241.37
225.53
209.13
192.09
174.71
157.33
140.22
123.57
107.50
92.06
77.38
63.53
50.65
38.93
28.47
19.30
11.32
4.34
-1.85
-7.44
-12.60
-17.41
-21.83
-25.86
-29.56
-33.15
-36.92
-41.16
-46.04
-51.55
-57.49
-63.57
-69.58
-75.55
-81.69
-88.38
-95.88
-104.23
-113.18
-122.27
-131.09
-139.56
-147.92
-156.67
-166.24
-176.72
-187.93
-199.73
-212.37
-226.53
-242.79
-260.70
-278.16
-291.59
-297.12
-292.20
-276.47
-251.66
-220.09
-183.56
-143.06
-99.97
-57.64
-21.78
1.20
7.33
-2.33
-21.50
-41.49
-55.20
-59.93
-57.78
-53.22
-50.46
-51.60
-56.82
-65.48
-77.07
-91.07
-106.14
-119.61
-127.99
-128.46
-120.45
-106.24
-90.13
-76.64
-68.59
-65.84
-65.32
-61.94
-50.79
-29.16
2.15
38.98
75.42
106.19
128.28
141.07
145.44
142.26
131.85
114.62
91.88
66.19
40.54
16.80
-5.18
-27.09
-50.55
-75.45
-99.73
-120.39
-135.20
-143.54
-145.90
-142.36
-131.41
-110.59
-78.44
-36.70
9.17
51.87
85.29
107.05
118.84
124.54
127.14
127.03
122.10
109.79
89.62
64.14
38.08
16.12
1.02
-7.06
-9.49
-7.81
-2.85
4.91
14.51
24.10
31.07
33.32
30.12
22.30
11.75
0.68
-8.62
-13.52
-10.84
2.40
27.51
62.55
102.08
138.43
164.29
175.13
170.29
152.61
126.76
97.58
69.05
44.16
24.81
11.77
4.64
1.67
0.39
-1.50
-5.04
-9.76
-14.16
-16.95
-18.01
-18.49
-20.05
-23.82
-29.42
-35.02
-38.23
-37.33
-32.21
-24.27
-15.63
-8.11
-2.44
1.60
4.58
6.70
7.47
6.02
1.54
-6.13
-16.53
-28.63
-41.32
-53.84
-65.64
-76.23
-84.96
-91.01
-93.78
-93.46
-91.48
-90.61
-93.93
-103.58
-119.36
-138.14
-154.52
-162.57
-157.66
-137.65
-103.35
-57.94
-6.24
45.98
92.74
128.50
149.36
154.17
144.98
126.77
105.86
87.82
75.62
68.98
65.13
60.37
51.99
39.57
25.01
11.65
2.84
0.57
4.89
14.09
25.61
37.06
46.86
54.40
59.83
63.62
66.16
67.53
67.43
65.22
60.17
51.77
40.09
25.80
10.10
-5.53
-19.75
-31.51
-40.17
-45.56
-47.87
-47.67
-45.77
-43.20
-40.88
-39.24
-37.66
-34.41
-27.14
-13.99
5.25
28.75
53.10
74.60
90.54
99.65
101.85
97.55
87.31
72.02
53.43
34.27
17.70
6.04
-0.14
-2.20
-2.60
-3.61
-6.45
-11.06
-16.48
-21.54
-25.24
-27.03
-26.80
-24.96
-22.34
-19.87
-18.06
-16.72
-14.93
-11.61
-6.24
0.76
8.21
14.79
19.83
23.38
25.98
28.03
29.33
29.00
25.82
18.79
7.54
-7.41
-24.81
-42.89
-59.68
-73.34
-82.56
-86.94
-87.09
-84.37
-80.13
-75.02
-68.53
-59.28
-45.74
-27.30
-4.92
18.89
40.75
57.65
67.89
71.56
70.08
65.27
58.65
50.95
42.37
33.11
23.75
15.31
8.84
4.89
3.09
2.30
1.11
-1.41
-5.23
-9.41
-12.74
-14.64
-15.68
-17.44
-21.57
-28.48
-36.48
-41.97
-40.73
-29.84
-9.26
17.74
45.54
68.14
81.08
82.75
74.30
58.73
39.59
19.88
1.81
-13.10
-23.77
-29.54
-30.53
-27.96
-24.02
-21.18
-21.06
-23.81
-28.09
-31.92
-33.82
-33.51
-31.75
-29.46
-26.91
-23.40
-17.82
-9.56
0.80
11.60
20.90
27.45
31.26
33.43
35.41
38.01
40.99
43.00
42.35
37.77
29.04
17.16
3.92
-8.75
-19.28
-26.84
-31.36
-33.24
-33.26
-32.28
-31.17
-30.62
-30.91
-31.75
-32.19
-30.93
-26.86
-19.67
-10.21
-0.21
8.33
14.08
16.93
17.89
18.43
19.71
21.84
23.88
24.29
21.74
15.83
7.33
-2.24
-11.17
-18.31
-23.30
-26.45
-28.28
-29.21
-29.38
-28.81
-27.59
-25.95
-24.04
-21.73
-18.50
-13.78
-7.33
0.40
8.30
15.07
19.84
22.52
23.68
24.11
24.21
23.84
22.49
19.76
15.81
11.33
7.27
4.32
2.62
1.78
1.20
0.47
-0.40
-1.06
-1.15
-0.71
-0.32
-0.82
-2.85
-6.27
-9.95
-12.11
-10.93
-5.43
4.02
15.73
27.19
36.01
40.58
40.61
37.02
31.57
26.07
21.68
18.37
14.97
9.79
1.54
-9.90
-23.21
-36.15
-46.51
-52.94
-55.29
-54.45
-51.79
-48.74
-46.41
-45.20
-44.48
-42.41
-36.31
-23.74
-3.86
21.56
48.17
70.40
83.54
85.44
77.20
62.39
45.38
29.62
16.76
6.79
-1.07
-7.54
-12.84
-16.86
-19.62
-21.68
-23.88
-26.84
-30.44
-33.74
-35.46
-34.84
-32.13
-28.53
-25.37
-23.27
-21.71
-19.37
-14.94
-7.97
0.99
10.50
19.01
25.18
28.12
27.33
22.64
14.50
4.15
-6.43
-15.12
-20.38
-21.97
-21.00
-19.25
-18.34
-19.15
-21.86
-26.22
-31.78
-37.60
-41.83
-41.71
-34.41
-18.45
5.01
31.98
56.93
74.82
82.85
81.07
71.68
57.65
41.64
25.57
10.94
-0.69
-7.79
-9.50
-6.32
-0.43
4.79
5.94
0.85
-10.71
-27.13
-45.60
-63.00
-76.45
-83.44
-81.95
-70.68
-49.69
-20.99
11.51
42.88
68.74
86.70
96.80
100.70
100.28
96.48
89.11
77.76
62.81
45.91
29.46
15.50
4.73
-3.63
-11.32
-19.98
-30.51
-42.89
-56.11
-68.16
-75.78
-74.90
-61.67
-34.19
5.79
52.43
96.97
130.32
146.11
142.73
123.42
94.84
64.54
38.85
21.76
14.41
15.46
21.36
27.08
27.33
18.05
-2.08
-31.20
-64.95
-98.11
-126.19
-146.26
-156.61
-155.90
-143.09
-117.99
-82.63
-41.72
-1.84
30.89
53.17
65.56
71.65
75.67
80.08
84.45
86.18
82.19
70.80
52.41
29.00
3.13
-23.07
-48.35
-71.99
-93.37
-111.39
-124.14
-128.91
-122.89
-104.13
-72.81
-31.91
12.88
54.47
86.45
104.92
109.45
102.58
88.26
70.21
51.01
32.36
15.79
3.16
-3.79
-4.53
-0.71
3.86
4.58
-1.85
-15.92
-35.15
-55.48
-73.18
-86.17
-93.82
-95.83
-91.16
-78.21
-56.18
-26.67
5.89
35.60
57.55
69.82
73.64
71.99
67.39
60.74
51.72
40.16
27.26
15.37
6.86
2.54
1.30
0.90
-0.70
-4.35
-9.95
-17.09
-25.44
-34.32
-41.83
-44.54
-38.64
-22.02
4.04
34.57
62.55
81.77
89.12
85.20
73.12
56.58
38.35
20.16
3.40
-10.05
-18.05
-19.24
-14.29
-6.25
0.45
1.91
-3.36
-13.86
-26.02
-36.07
-41.68
-42.56
-39.78
-34.49
-27.18
-17.65
-5.65
8.41
23.35
37.53
49.25
57.13
60.00
57.01
47.85
33.14
14.79
-4.28
-20.84
-32.43
-38.07
-38.45
-35.35
-30.64
-25.62
-20.87
-16.83
-14.33
-14.70
-18.91
-26.43
-34.60
-39.10
-35.72
-22.47
-0.91
24.35
47.46
63.79
71.32
70.70
63.87
52.68
38.29
21.55
3.94
-12.07
-23.66
-28.95
-28.16
-23.80
-19.68
-19.05
-23.16
-30.89
-39.49
-46.16
-49.40
-49.30
-47.03
-43.79
-40.09
-35.70
-30.24
-23.71
-16.74
-10.08
-4.13
1.49
7.60
14.80
22.88
30.58
36.13
38.09
36.10
30.95
24.04
16.65
9.46
2.57
-4.03
-10.18
-15.44
-19.45
-21.97
-22.84
-21.60
-17.46
-9.61
2.07
16.49
31.44
44.30
52.96
56.46
54.93
49.02
39.43
26.95
12.86
-0.56
-10.40
-14.40
-12.32
-6.75
-2.44
-4.18
-14.62
-33.03
-55.87
-78.78
-98.62
-114.20
-125.27
-130.75
-127.74
-112.59
-83.48
-42.69
3.25
45.89
78.56
99.08
109.81
115.25
118.89
121.22
120.06
112.53
97.40
76.15
52.35
29.99
11.76
-1.81
-11.97
-20.93
-30.71
-42.40
-55.45
-67.70
-75.65
-75.54
-64.65
-42.50
-11.43
23.80
57.14
82.81
96.72
97.38
86.05
66.12
42.18
19.03
0.65
-10.56
-14.42
-13.07
-10.32
-10.27
-15.84
-27.65
-43.96
-61.51
-76.85
-87.55
-92.59
-92.08
-86.68
-77.11
-64.26
-49.55
-35.07
-22.94
-14.46
-9.24
-5.39
-0.54
6.70
15.66
23.75
27.64
25.15
16.41
4.07
-7.90
-15.97
-18.64
-16.84
-13.22
-10.79
-11.62
-16.44
-24.86
-35.69
-47.07
-56.34
-60.06
-54.69
-38.07
-10.87
22.68
55.71
80.96
93.50
92.44
80.85
64.01
46.96
32.64
21.57
12.87
5.74
0.29
-2.62
-2.46
0.01
2.61
2.76
-1.15
-8.72
-17.80
-25.67
-30.60
-32.37
-31.98
-30.38
-27.56
-22.59
-14.47
-3.11
10.23
23.62
35.39
44.68
51.33
55.24
55.95
52.74
45.33
34.49
22.02
10.19
0.64
-6.21
-11.09
-15.34
-20.21
-26.58
-34.80
-44.59
-54.81
-63.21
-66.78
-62.65
-49.51
-28.56
-3.58
20.08
37.42
45.44
44.07
35.82
24.43
13.36
4.72
-0.98
-4.26
-5.87
-6.33
-5.88
-4.73
-3.44
-2.98
-4.31
-7.86
-13.32
-19.66
-25.79
-31.00
-35.11
-38.11
-39.78
-39.51
-36.51
-30.32
-21.06
-9.53
3.07
15.45
26.36
34.54
38.76
38.00
31.94
21.47
8.74
-3.33
-11.95
-15.67
-14.85
-11.43
-8.04
-6.82
-8.63
-12.98
-18.71
-24.81
-30.64
-35.75
-39.18
-39.26
-34.14
-22.86
-6.40
12.17
28.76
39.88
44.11
42.44
37.42
31.67
26.71
22.65
18.74
14.32
9.50
5.19
2.54
2.18
3.78
6.04
7.41
6.80
4.10
0.06
-4.12
-7.39
-9.21
-9.56
-8.65
-6.78
-4.13
-0.89
2.75
6.65
10.68
14.80
18.86
22.48
25.11
26.21
25.62
23.87
22.02
21.08
21.45
22.56
23.02
21.27
16.22
7.61
-4.12
-18.18
-33.74
-49.68
-64.08
-74.03
-76.03
-67.35
-47.54
-19.31
11.91
39.64
58.63
66.54
64.19
54.60
41.22
26.58
11.97
-2.05
-14.74
-24.79
-30.62
-31.30
-27.21
-20.26
-13.20
-8.44
-7.14
-8.80
-11.77
-14.28
-15.28
-14.80
-13.79
-13.39
-14.28
-16.33
-18.59
-19.66
-18.21
-13.54
-5.81
3.86
13.79
22.25
28.10
31.13
32.08
32.17
32.39
33.02
33.56
33.02
30.64
26.25
20.47
14.30
8.68
4.18
0.91
-1.17
-2.10
-1.90
-0.60
1.64
4.47
7.53
10.61
13.73
17.09
20.84
24.88
28.79
31.86
33.32
32.61
29.65
25.00
19.91
16.05
14.81
16.44
19.61
21.62
19.42
10.88
-4.39
-25.10
-49.02
-73.78
-97.01
-116.00
-127.29
-127.09
-112.79
-84.73
-47.05
-6.95
27.86
51.97
63.94
66.17
63.03
58.62
55.23
53.13
51.37
48.85
45.14
40.47
35.45
30.65
26.20
21.72
16.38
9.21
-0.36
-12.18
-25.25
-37.93
-48.34
-54.99
-57.18
-54.99
-49.14
-40.66
-30.64
-20.15
-10.22
-1.70
4.74
8.93
11.22
12.38
13.34
14.82
17.21
20.32
23.47
25.54
25.17
21.17
12.96
1.01
-13.04
-26.81
-37.97
-45.22
-48.74
-49.98
-50.60
-51.52
-52.30
-51.47
-47.49
-39.70
-28.78
-16.28
-3.89
7.34
17.25
26.17
34.30
41.11
45.48
46.26
43.07
36.87
29.87
24.64
22.80
24.15
26.46
26.55
21.75
11.07
-4.20
-21.11
-36.07
-46.04
-49.22
-45.26
-35.29
-21.51
-6.68
6.56
16.33
21.93
23.71
22.66
19.67
15.22
9.44
2.54
-4.73
-11.17
-15.49
-16.88
-15.48
-12.27
-8.68
-5.91
-4.49
-4.18
-4.39
-4.67
-5.11
-6.25
-8.44
-11.44
-14.11
-14.97
-12.89
-7.68
-0.11
8.38
16.41
23.12
28.22
31.80
34.05
35.13
35.25
34.69
33.82
32.80
31.55
29.58
26.13
20.25
10.90
-2.76
-20.96
-42.78
-65.92
-86.85
-101.67
-107.31
-102.59
-88.66
-68.51
-45.98
-24.62
-6.93
6.13
15.31
22.73
30.83
40.85
51.47
58.75
57.73
45.25
22.30
-5.61
-30.53
-45.61
-48.18
-40.54
-28.04
-16.15
-7.80
-2.98
0.02
2.67
5.03
5.70
2.92
-4.02
-14.16
-24.63
-31.61
-31.62
-22.82
-5.80
16.61
40.20
60.79
75.46
83.11
84.39
80.98
74.86
67.73
60.88
55.24
51.51
50.03
50.33
50.64
48.03
39.15
21.65
-4.47
-36.22
-68.15
-94.03
-108.81
-110.30
-99.55
-80.00
-56.15
-32.16
-11.12
4.90
14.76
18.00
15.00
7.02
-3.78
-14.92
-24.18
-30.34
-33.40
-34.26
-33.97
-33.02
-31.14
-27.69
-22.35
-15.66
-9.22
-5.15
-5.44
-11.03
-21.10
-32.98
-42.67
-46.16
-40.71
-26.02
-4.20
20.96
45.34
65.73
80.30
88.56
90.97
88.50
82.48
74.66
66.89
60.60
56.22
52.86
48.68
41.84
31.47
18.13
3.44
-10.77
-23.37
-34.16
-43.47
-51.22
-56.41
-57.22
-52.03
-40.53
-24.33
-6.61
9.07
20.03
25.20
25.04
20.88
14.20
6.26
-1.57
-7.57
-9.89
-7.43
-0.83
7.03
11.94
10.08
-0.06
-16.87
-36.44
-54.38
-67.61
-75.07
-77.09
-74.33
-66.99
-55.09
-39.08
-20.55
-1.94
14.17
26.06
33.13
35.65
34.33
30.00
23.72
16.77
10.58
6.23
4.07
3.59
3.75
3.39
1.53
-2.53
-9.14
-18.27
-29.27
-40.68
-50.44
-56.35
-56.83
-51.41
-40.89
-26.93
-11.38
4.21
18.90
32.22
43.81
53.23
59.72
62.48
61.11
56.11
49.18
42.97
40.14
42.13
48.19
55.19
58.75
55.05
42.69
23.46
1.54
-18.29
-32.62
-40.50
-43.18
-42.76
-40.85
-37.76
-32.83
-25.29
-15.21
-3.79
6.90
14.79
18.48
17.83
13.91
8.57
3.70
0.59
-0.42
0.11
1.14
1.54
0.42
-2.73
-8.24
-16.24
-26.54
-38.26
-49.66
-58.22
-61.35
-57.38
-46.32
-29.98
-11.58
5.40
18.21
25.56
27.72
26.08
22.39
18.10
13.95
10.09
6.42
3.10
0.82
0.53
2.83
7.26
12.24
15.58
15.56
11.78
5.23
-2.31
-9.26
-14.79
-18.79
-21.21
-21.70
-19.60
-14.45
-6.56
2.91
12.38
20.48
26.57
30.61
32.86
33.54
32.77
30.76
27.99
25.20
23.25
22.59
23.13
24.08
24.07
21.58
15.46
5.37
-7.94
-22.78
-36.89
-47.96
-54.24
-54.83
-49.75
-39.87
-26.72
-12.22
1.51
12.51
19.48
21.94
20.33
15.69
9.29
2.24
-4.49
-10.10
-13.78
-14.75
-12.57
-7.60
-1.02
5.23
9.27
9.94
7.18
1.85
-4.90
-12.16
-19.34
-25.75
-30.28
-31.37
-27.58
-18.35
-4.53
11.82
28.11
42.03
52.08
57.68
58.85
56.07
50.27
42.83
35.54
30.15
27.85
28.79
31.85
34.90
35.41
31.16
21.01
5.41
-13.46
-32.20
-47.02
-54.86
-54.22
-45.58
-31.13
-13.99
2.64
16.33
25.75
30.78
32.10
30.87
28.25
25.09
21.98
19.29
17.41
16.69
17.33
19.04
20.81
21.10
18.25
11.15
-0.27
-14.94
-31.03
-46.59
-59.87
-69.68
-75.08
-75.56
-70.92
-61.68
-49.17
-35.31
-22.11
-10.97
-2.34
4.09
8.94
12.51
14.86
15.89
15.90
15.71
16.47
18.90
22.74
26.48
28.01
25.59
18.87
9.13
-1.14
-9.34
-13.87
-14.49
-12.08
-7.80
-2.30
4.38
12.44
21.56
30.58
37.87
42.02
42.75
40.99
38.37
36.31
35.19
34.29
32.21
27.70
20.19
9.80
-2.98
-17.54
-33.25
-49.25
-64.34
-77.04
-86.06
-90.76
-91.34
-88.61
-83.45
-76.43
-67.59
-56.66
-43.47
-28.36
-12.38
2.97
16.12
25.93
32.08
35.08
35.96
35.75
34.95
33.27
29.93
24.30
16.62
8.17
0.89
-3.79
-5.72
-6.41
-8.19
-12.76
-20.13
-28.21
-33.74
-33.88
-27.57
-15.81
-1.09
13.99
27.66
39.27
48.98
57.27
64.79
72.29
80.59
90.08
99.79
106.82
106.69
95.07
70.21
34.38
-6.03
-42.66
-68.23
-79.48
-78.13
-69.79
-60.83
-55.42
-54.01
-53.90
-51.49
-44.54
-33.47
-20.69
-9.14
-0.38
5.94
11.60
18.40
26.84
35.66
42.33
44.36
40.33
30.63
17.16
2.75
-9.86
-18.93
-24.14
-26.35
-26.72
-25.83
-23.20
-17.64
-8.11
5.26
20.70
35.35
46.51
52.78
54.37
52.49
48.26
41.87
32.70
20.18
4.77
-11.72
-26.72
-38.08
-45.04
-48.48
-50.27
-52.26
-55.58
-60.56
-66.91
-74.03
-80.97
-86.36
-88.44
-85.56
-76.79
-62.45
-44.22
-24.69
-6.56
8.22
19.10
26.81
32.90
38.79
45.07
51.39
56.82
60.47
61.99
61.68
60.10
57.60
54.00
48.72
41.23
31.63
20.78
10.21
1.58
-3.99
-6.30
-6.06
-4.65
-3.40
-2.88
-2.60
-1.29
2.38
8.79
16.97
24.93
30.51
32.37
30.56
26.31
21.33
16.97
13.67
10.88
7.63
3.14
-2.69
-9.22
-15.46
-20.63
-24.55
-27.65
-30.50
-33.35
-35.82
-37.14
-36.61
-34.14
-30.33
-26.17
-22.39
-19.02
-15.58
-11.42
-6.23
-0.24
5.93
11.54
15.89
18.28
17.94
14.33
7.45
-1.71
-11.27
-19.10
-23.61
-24.49
-22.73
-19.97
-17.74
-16.78
-16.98
-17.76
-18.43
-18.42
-17.20
-14.26
-9.24
-2.32
5.59
12.75
17.39
18.59
16.79
13.94
12.45
14.01
18.78
25.25
31.14
34.53
34.64
31.88
27.23
21.49
15.00
7.79
0.25
-6.54
-10.90
-11.26
-6.96
1.28
11.62
21.81
30.08
35.77
39.28
41.57
43.28
44.15
43.12
38.78
30.30
18.07
3.75
-10.28
-21.84
-29.75
-34.05
-35.70
-35.79
-34.91
-32.94
-29.32
-23.73
-16.66
-9.39
-3.54
-0.13
1.04
1.29
2.49
5.92
11.49
17.56
21.58
21.26
15.57
5.33
-7.18
-19.12
-28.22
-33.46
-35.17
-34.55
-32.89
-31.09
-29.45
-27.93
-26.54
-25.44
-24.95
-25.02
-24.92
-23.43
-19.32
-12.18
-2.94
6.31
13.06
15.59
13.90
9.75
5.91
4.75
7.12
12.09
17.53
21.35
22.57
21.38
18.52
14.25
7.67
-2.71
-18.03
-37.59
-58.28
-74.99
-82.31
-76.49
-57.02
-26.90
8.46
43.10
72.49
94.27
108.07
114.35
113.42
105.24
89.80
68.12
42.77
17.51
-3.87
-18.90
-27.35
-30.95
-32.14
-32.71
-32.89
-31.68
-28.07
-22.26
-16.45
-13.81
-16.74
-25.23
-36.01
-43.76
-43.43
-32.47
-12.21
12.66
36.16
53.08
60.84
59.73
52.18
41.53
30.60
21.31
14.48
10.13
7.90
7.21
7.19
6.86
5.05
0.81
-6.11
-15.19
-25.12
-34.34
-41.63
-46.36
-48.61
-48.93
-47.81
-45.61
-42.30
-37.55
-30.94
-22.09
-10.93
2.06
15.98
29.46
41.07
49.68
54.61
55.77
53.40
47.87
39.61
29.15
17.20
4.86
-6.70
-16.57
-24.41
-30.71
-36.43
-42.42
-49.02
-55.65
-61.27
-64.90
-66.05
-64.99
-62.34
-58.55
-53.67
-47.35
-39.27
-29.67
-19.20
-8.63
1.46
11.04
20.19
28.79
36.39
42.29
46.11
47.95
48.24
47.52
45.92
43.11
38.66
32.48
25.06
17.37
10.29
4.26
-0.80
-5.25
-9.24
-12.56
-14.57
-14.56
-12.20
-7.73
-1.87
4.32
9.94
14.28
16.85
17.49
16.17
13.14
9.03
4.68
1.09
-1.04
-1.48
-0.65
0.47
0.50
-1.76
-6.99
-14.93
-24.34
-33.41
-40.33
-44.00
-44.41
-42.27
-38.46
-33.45
-27.07
-18.97
-9.24
1.30
11.21
19.27
25.17
29.62
34.01
39.48
46.29
53.75
60.68
66.17
69.95
72.10
72.62
71.04
66.50
58.49
47.50
35.23
23.98
15.48
10.01
6.16
1.83
-4.55
-12.96
-21.78
-28.81
-32.56
-33.08
-31.73
-30.24
-29.62
-29.57
-28.89
-26.32
-21.51
-15.11
-8.30
-2.15
2.84
6.66
9.31
10.53
10.03
7.77
4.48
1.44
-0.09
0.32
1.95
3.16
2.23
-1.65
-7.90
-14.74
-20.11
-22.58
-21.92
-19.05
-15.21
-11.39
-7.64
-3.34
2.18
8.95
16.11
22.21
25.92
26.82
25.53
23.42
21.77
21.07
20.93
20.44
19.00
16.78
14.69
13.66
13.82
14.17
13.05
9.47
4.10
-0.63
-1.61
3.11
13.00
25.24
36.19
43.46
46.72
46.95
44.97
40.37
31.86
18.89
3.02
-12.00
-21.98
-24.83
-21.94
-17.56
-16.53
-21.64
-32.54
-46.32
-59.45
-69.52
-75.65
-77.97
-76.85
-72.63
-65.93
-58.04
-50.77
-45.84
-43.86
-44.06
-44.59
-43.63
-40.33
-35.05
-28.91
-23.00
-17.58
-11.99
-5.28
3.21
13.10
22.85
30.46
34.27
34.01
31.27
29.08
30.80
38.54
52.41
70.44
89.35
105.54
116.17
119.41
114.65
102.31
83.92
62.02
39.79
20.18
4.98
-5.75
-13.49
-20.04
-26.50
-32.56
-36.92
-38.53
-37.66
-36.09
-36.18
-39.37
-44.98
-50.11
-50.99
-44.70
-30.58
-10.36
12.60
34.56
52.33
63.65
67.45
63.83
54.20
41.24
28.44
19.05
14.73
14.99
17.18
17.60
12.87
0.81
-19.17
-46.10
-77.90
-111.26
-141.90
-165.08
-176.54
-173.72
-156.61
-127.62
-90.53
-48.99
-5.69
37.54
78.52
113.58
137.58
145.57
135.14
108.29
71.30
32.65
-0.24
-23.48
-37.54
-45.56
-51.14
-56.11
-60.10
-61.73
-60.14
-56.11
-51.71
-49.05
-48.92
-50.29
-50.91
-48.66
-42.56
-33.12
-21.85
-10.38
0.30
10.30
20.79
33.59
50.49
71.98
96.23
118.71
133.05
133.39
116.97
85.80
46.27
6.90
-25.01
-45.79
-55.83
-58.55
-58.10
-57.85
-59.55
-63.32
-68.07
-72.02
-72.97
-68.52
-56.62
-35.99
-6.58
29.78
69.01
105.13
131.09
140.80
131.29
104.04
65.04
22.79
-14.66
-42.00
-57.76
-63.51
-62.10
-56.50
-49.63
-44.54
-44.56
-52.14
-66.78
-84.11
-96.46
-95.92
-78.08
-44.39
-1.74
40.19
72.86
91.69
96.77
91.77
81.98
72.46
66.98
67.59
74.40
85.86
99.49
112.46
122.38
127.14
124.30
110.91
84.18
42.81
-11.37
-72.98
-134.35
-187.28
-225.13
-243.84
-241.90
-220.15
-181.40
-130.20
-72.30
-13.79
40.34
87.01
125.08
154.79
176.70
191.06
197.63
195.77
184.57
163.31
132.02
92.33
47.93
3.97
-34.55
-64.72
-86.64
-102.76
-115.48
-124.97
-128.23
-120.22
-96.78
-56.98
-4.06
55.40
113.56
163.22
198.72
216.31
214.37
193.75
158.47
115.60
73.32
38.79
15.62
2.86
-3.74
-9.43
-18.36
-32.22
-50.68
-72.62
-96.76
-121.81
-145.81
-165.67
-178.05
-180.58
-173.34
-159.33
-143.65
-131.30
-125.22
-124.82
-125.54
-120.48
-102.81
-68.88
-20.58
34.37
84.81
120.00
133.64
125.84
101.61
67.60
28.48
-14.22
-60.42
-108.44
-152.89
-185.26
-197.22
-184.35
-148.01
-94.48
-32.01
31.87
91.01
140.06
173.39
185.42
172.78
136.94
85.38
30.16
-16.20
-45.16
-54.88
-49.75
-37.24
-23.87
-12.83
-4.03
3.71
10.22
13.19
9.37
-2.71
-20.76
-38.72
-49.45
-48.23
-35.50
-16.64
0.91
11.45
13.87
11.95
11.97
19.24
35.57
58.84
84.70
109.01
129.32
145.04
156.28
162.61
162.60
154.53
137.48
112.22
80.91
45.87
8.04
-33.73
-81.76
-137.34
-198.47
-259.06
-310.19
-343.40
-354.00
-342.84
-315.93
-281.65
-247.20
-216.57
-189.96
-165.51
-141.21
-115.85
-88.55
-57.62
-20.32
25.51
78.47
131.46
172.67
189.81
176.29
135.85
82.12
33.58
6.29
8.16
37.76
87.21
146.68
207.95
265.22
313.58
347.78
363.44
358.83
336.26
301.56
261.00
218.77
175.47
128.24
73.37
10.07
-57.78
-122.39
-174.92
-209.68
-225.83
-226.66
-218.23
-206.00
-191.45
-171.72
-141.85
-96.11
-35.19
29.94
86.89
125.73
140.47
130.99
102.09
61.09
15.48
-29.12
-68.34
-98.01
-114.82
-116.72
-103.34
-76.23
-38.63
5.20
50.10
90.79
122.61
141.40
144.72
132.77
108.19
75.12
37.64
-1.41
-40.26
-77.15
-110.55
-138.52
-158.83
-169.39
-168.70
-155.95
-131.32
-96.12
-52.81
-5.10
42.92
87.89
127.60
160.76
186.07
201.44
204.02
191.08
161.28
116.21
60.83
2.97
-48.38
-85.26
-103.03
-101.72
-85.90
-63.11
-41.08
-25.06
-16.38
-12.60
-9.61
-3.89
6.26
20.54
37.61
55.93
73.70
88.43
96.51
93.97
78.13
49.29
11.55
-28.20
-62.64
-86.49
-98.02
-98.92
-92.94
-84.15
-75.50
-68.24
-62.09
-55.97
-48.71
-39.65
-28.87
-16.94
-4.69
7.01
17.22
24.85
28.62
27.36
20.65
9.37
-4.23
-16.98
-25.93
-29.26
-27.02
-20.73
-12.79
-5.45
-0.25
2.32
2.82
2.53
3.05
5.65
10.89
18.49
27.43
36.36
43.86
48.74
49.97
46.87
39.21
27.48
13.05
-2.02
-15.60
-26.20
-33.50
-38.24
-41.64
-44.61
-47.23
-48.71
-47.97
-44.36
-38.08
-30.27
-22.49
-16.02
-11.28
-7.78
-4.63
-1.24
2.22
4.89
6.01
5.59
4.66
4.73
6.81
10.75
15.26
18.82
20.55
20.79
20.63
20.98
21.83
22.17
20.77
17.13
11.91
6.64
2.80
1.02
0.86
1.34
1.60
1.40
1.10
1.20
1.89
2.88
3.79
4.48
5.41
7.23
10.38
14.58
18.76
21.55
21.76
18.93
13.48
6.63
0.29
-3.21
-1.66
6.28
20.29
37.94
55.18
67.61
72.17
68.22
57.62
43.70
29.72
17.78
8.52
1.62
-3.38
-6.75
-8.57
-9.20
-9.45
-10.47
-13.23
-17.97
-24.01
-29.84
-33.75
-34.50
-31.92
-26.95
-21.23
-16.51
-13.85
-13.32
-14.06
-14.87
-14.80
-13.47
-11.21
-8.66
-6.47
-4.93
-4.01
-3.50
-3.18
-3.01
-3.02
-3.26
-3.74
-4.36
-4.92
-5.18
-4.94
-4.11
-2.79
-1.31
-0.14
0.41
0.36
0.08
0.04
0.45
0.93
0.67
-1.25
-5.11
-10.29
-15.34
-18.56
-18.81
-16.03
-11.23
-6.00
-1.79
0.53
0.76
-0.80
-3.64
-7.15
-10.71
-13.57
-15.04
-14.65
-12.46
-9.06
-5.38
-2.13
0.61
3.47
7.51
13.46
21.11
29.04
34.96
36.62
32.82
24.08
12.53
1.18
-7.43
-12.14
-13.45
-12.98
-12.48
-13.03
-14.75
-17.17
-19.78
-22.51
-25.66
-29.35
-33.06
-35.54
-35.17
-30.63
-21.53
-8.53
6.84
22.70
37.33
49.44
58.16
63.01
63.61
59.62
50.86
37.54
20.59
1.88
-16.14
-31.00
-41.17
-46.48
-48.04
-47.43
-45.84
-43.39
-39.28
-32.32
-21.75
-7.36
10.51
31.33
54.16
77.12
96.83
108.82
108.89
95.15
69.46
37.51
6.99
-15.19
-25.55
-25.07
-18.55
-12.26
-11.47
-18.59
-32.86
-51.33
-70.35
-86.76
-98.30
-103.53
-101.30
-90.89
-72.25
-46.62
-16.55
14.72
44.05
69.19
88.81
102.35
109.52
110.10
104.19
92.23
75.17
54.17
30.52
5.52
-19.32
-42.56
-63.29
-81.61
-98.43
-114.75
-130.39
-143.33
-150.14
-147.29
-132.35
-104.42
-64.01
-12.69
46.45
108.05
164.36
206.32
226.19
220.27
190.50
143.77
89.38
35.96
-10.45
-46.57
-71.16
-84.12
-86.45
-80.59
-70.71
-61.67
-57.33
-58.80
-63.98
-68.56
-67.98
-59.63
-43.74
-22.84
-0.28
21.24
40.32
56.49
69.25
77.73
80.73
77.35
67.78
53.24
35.80
17.62
0.54
-14.26
-26.38
-36.34
-45.73
-56.64
-70.73
-87.96
-105.68
-118.87
-121.70
-109.67
-81.34
-38.98
11.99
64.31
110.16
142.51
156.43
150.23
126.35
91.01
52.55
18.84
-5.18
-18.31
-22.38
-20.28
-14.62
-7.33
-0.42
3.49
1.24
-9.64
-29.29
-54.75
-80.37
-99.41
-106.09
-97.22
-73.01
-36.68
6.47
50.32
89.05
118.14
135.17
140.16
135.39
124.41
110.49
95.22
77.99
56.78
30.05
-1.49
-34.36
-63.82
-86.39
-101.98
-113.81
-126.34
-141.97
-158.95
-171.72
-173.51
-159.21
-127.49
-80.90
-25.12
32.41
83.56
120.77
138.60
135.41
114.58
83.93
53.60
32.47
24.95
29.62
40.20
48.61
48.20
36.21
14.12
-13.55
-41.29
-64.40
-79.93
-86.69
-84.82
-75.10
-58.94
-38.33
-15.77
6.09
25.05
39.88
50.26
56.61
59.63
60.05
58.49
55.16
49.87
42.07
31.14
17.04
0.77
-15.65
-29.93
-40.51
-47.45
-52.34
-57.48
-64.34
-72.40
-78.96
-80.16
-72.67
-55.13
-28.76
3.03
35.64
64.48
85.83
97.38
98.36
89.58
73.24
52.61
31.41
13.16
0.31
-6.11
-6.84
-4.07
-0.78
0.11
-3.29
-11.25
-22.33
-34.05
-43.89
-50.05
-51.83
-49.39
-43.42
-34.64
-23.66
-10.93
3.15
18.08
33.19
47.46
59.70
68.74
73.71
74.11
69.63
60.17
45.81
27.39
6.71
-13.51
-30.54
-42.80
-50.86
-57.46
-66.24
-79.92
-98.63
-119.32
-136.72
-145.05
-139.63
-117.94
-80.02
-28.69
30.18
87.89
134.31
160.40
161.43
139.03
101.11
59.21
24.44
3.76
-1.66
4.41
15.69
26.25
32.08
31.49
24.52
12.22
-3.91
-21.83
-38.95
-52.23
-58.54
-55.72
-43.63
-24.69
-3.40
15.41
28.58
35.88
39.78
43.86
50.76
60.81
71.86
80.11
81.49
72.94
53.32
24.17
-10.27
-43.81
-70.17
-85.35
-89.46
-86.79
-83.88
-86.17
-95.17
-107.48
-116.30
-114.34
-96.77
-62.91
-16.31
36.26
86.19
124.84
145.41
144.66
124.15
90.01
51.20
16.71
-7.04
-17.80
-17.09
-8.79
2.73
13.80
21.66
24.27
20.14
8.62
-9.46
-31.49
-53.35
-70.32
-78.50
-76.02
-63.57
-44.07
-21.48
0.75
20.65
37.99
53.39
67.21
78.90
87.05
90.09
86.93
77.13
60.88
38.86
12.33
-16.39
-44.00
-66.72
-81.73
-88.54
-89.59
-89.29
-91.96
-99.63
-110.86
-121.23
-125.21
-117.94
-96.47
-60.20
-11.01
46.65
105.59
156.56
190.16
199.57
183.39
146.60
99.22
52.98
17.56
-2.17
-6.79
-1.12
8.10
14.51
13.77
4.30
-12.83
-34.76
-57.86
-78.80
-95.21
-105.47
-108.25
-102.33
-86.90
-62.54
-32.11
-0.37
27.44
47.86
60.59
68.23
74.56
81.95
89.73
94.23
90.81
76.43
51.75
21.24
-8.62
-31.98
-46.13
-52.35
-55.14
-59.92
-70.66
-87.92
-108.51
-126.73
-136.39
-132.78
-113.63
-79.29
-32.27
22.61
78.24
125.57
155.39
161.25
142.38
104.69
59.03
17.07
-12.87
-28.20
-31.28
-26.78
-18.79
-9.54
-0.02
8.65
14.43
14.84
8.49
-3.86
-19.19
-33.08
-41.46
-41.98
-34.58
-21.21
-4.88
11.68
26.80
40.19
52.45
64.08
74.67
82.64
85.63
81.48
69.14
49.13
23.50
-4.68
-31.90
-54.81
-70.70
-78.16
-77.47
-70.84
-62.02
-55.37
-54.54
-61.11
-73.79
-88.45
-99.11
-99.72
-85.87
-56.26
-13.05
38.67
91.87
138.88
172.55
187.36
180.62
153.45
111.17
62.62
18.35
-12.30
-23.90
-16.85
2.72
24.92
39.45
39.14
22.15
-7.89
-43.67
-76.96
-101.06
-112.18
-109.52
-94.45
-70.09
-40.75
-11.76
11.23
23.69
24.15
15.39
4.06
-1.68
4.19
22.65
48.78
73.52
87.60
85.32
66.79
37.46
5.31
-22.50
-42.28
-54.22
-61.16
-66.56
-72.65
-79.69
-86.14
-89.46
-87.23
-78.03
-62.07
-41.25
-18.33
3.97
23.79
40.43
53.93
64.41
71.52
74.50
72.86
66.98
58.25
48.50
39.06
30.23
21.33
11.50
0.57
-10.64
-20.69
-28.42
-33.69
-37.60
-41.72
-46.99
-52.61
-56.10
-54.21
-44.79
-28.34
-8.33
9.91
21.39
23.62
17.97
9.19
3.63
6.59
20.14
42.03
66.21
84.77
90.66
80.20
54.41
18.85
-18.44
-49.75
-70.36
-79.91
-81.84
-81.47
-83.48
-89.88
-99.36
-107.88
-110.19
-101.56
-79.13
-42.82
4.37
56.33
104.61
140.04
155.25
147.27
119.06
78.93
37.67
4.68
-15.09
-21.98
-20.00
-13.97
-7.28
-1.33
3.51
6.46
5.97
0.43
-10.68
-26.08
-43.24
-59.35
-72.23
-80.20
-81.70
-75.23
-59.94
-36.81
-8.98
18.79
42.12
58.89
69.86
77.75
85.08
92.55
98.54
100.18
94.89
81.67
61.41
36.37
9.45
-16.41
-38.61
-55.42
-66.52
-73.27
-78.35
-84.59
-93.41
-103.71
-111.95
-113.30
-103.41
-79.77
-42.52
5.64
59.75
113.24
158.63
188.72
198.37
186.12
155.19
112.83
68.04
28.64
-0.96
-20.27
-31.53
-37.62
-40.69
-41.71
-41.35
-40.80
-41.96
-46.76
-55.97
-68.11
-79.45
-85.05
-80.65
-64.62
-38.93
-8.86
18.76
37.94
45.84
43.89
37.14
32.01
33.52
42.96
57.23
70.08
74.85
67.33
47.52
19.58
-10.17
-35.87
-54.50
-66.78
-76.14
-86.46
-99.84
-115.35
-129.37
-137.28
-135.27
-121.31
-95.19
-57.97
-11.90
38.93
88.08
127.35
149.04
148.90
128.41
94.59
57.30
25.38
3.73
-7.27
-10.07
-7.63
-1.95
5.75
13.95
20.19
21.64
16.50
5.14
-9.83
-24.74
-36.19
-42.19
-42.28
-37.20
-28.29
-17.19
-5.51
5.49
15.18
23.84
32.42
41.75
51.63
60.37
65.05
62.73
51.90
33.49
10.84
-11.53
-29.60
-41.37
-47.33
-50.01
-52.61
-57.67
-66.02
-76.49
-86.16
-91.11
-87.64
-73.33
-48.07
-14.20
23.87
60.69
90.94
110.35
116.53
109.22
90.48
64.38
36.35
12.04
-4.08
-9.96
-6.40
3.23
14.19
21.89
23.26
17.44
5.68
-9.34
-24.68
-38.09
-48.39
-55.17
-58.12
-56.57
-49.67
-37.15
-20.09
-0.95
17.20
32.05
42.88
50.40
55.95
60.27
63.04
62.95
58.33
47.90
31.40
9.86
-14.46
-38.48
-59.18
-74.73
-85.34
-93.24
-101.25
-111.06
-121.76
-129.87
-130.78
-121.03
-99.57
-67.59
-27.18
19.62
70.82
123.10
170.78
206.14
221.96
215.01
188.43
151.20
114.55
87.33
72.40
66.19
61.16
49.85
28.06
-3.84
-42.08
-81.60
-117.92
-147.89
-169.22
-179.85
-177.39
-159.89
-127.43
-83.50
-35.20
8.49
39.92
56.04
59.76
58.41
59.96
68.78
83.32
96.98
101.46
91.00
65.28
29.61
-7.49
-37.97
-57.35
-65.95
-68.06
-69.53
-75.09
-86.23
-100.74
-113.59
-118.89
-112.03
-91.15
-57.74
-16.14
27.49
66.38
94.69
108.65
107.48
93.59
71.85
48.13
27.49
12.80
4.28
0.22
-1.66
-2.93
-4.01
-4.55
-4.26
-3.60
-3.74
-5.94
-10.80
-18.04
-26.65
-35.38
-42.88
-47.75
-48.50
-43.72
-32.69
-15.92
4.70
26.43
46.58
63.27
75.68
83.57
86.57
83.93
74.84
59.30
38.82
16.45
-4.04
-19.48
-28.51
-31.96
-32.45
-33.34
-37.41
-45.89
-57.97
-70.81
-80.25
-82.01
-73.11
-53.12
-24.69
7.25
37.02
60.26
75.22
82.95
86.24
88.08
90.39
93.49
96.28
96.71
92.19
80.21
59.20
29.65
-5.28
-40.10
-68.78
-86.96
-93.69
-91.63
-85.51
-79.77
-76.69
-75.72
-74.50
-70.34
-61.69
-48.67
-32.77
-16.01
-0.22
13.54
24.87
33.93
41.05
46.46
50.25
52.31
52.32
49.88
44.53
35.91
24.14
10.04
-4.78
-18.20
-28.24
-33.83
-35.21
-33.89
-32.00
-31.32
-32.51
-34.87
-36.58
-35.57
-30.47
-21.19
-9.09
3.53
14.40
22.04
26.24
27.80
28.01
27.94
28.16
28.73
29.40
29.81
29.45
27.66
23.66
16.88
7.37
-3.84
-14.92
-23.69
-28.38
-28.36
-24.36
-18.19
-12.18
-8.34
-7.76
-10.31
-14.70
-18.99
-21.25
-20.31
-16.18
-10.06
-3.81
0.91
3.23
3.49
2.87
2.65
3.68
6.05
9.23
12.47
15.11
16.65
16.68
14.81
10.84
5.04
-1.59
-7.58
-11.38
-12.17
-10.25
-7.04
-4.43
-3.88
-5.69
-8.82
-11.38
-11.60
-8.65
-3.09
3.47
9.12
12.62
13.84
13.66
13.34
13.74
14.80
15.52
14.67
11.38
5.73
-1.22
-7.89
-12.85
-15.34
-15.53
-14.24
-12.57
-11.46
-11.38
-12.37
-14.32
-17.08
-20.47
-24.11
-27.13
-28.32
-26.50
-21.16
-12.78
-2.81
6.92
14.91
20.56
24.09
26.18
27.35
27.68
26.96
25.01
21.99
18.37
14.78
11.66
9.13
6.96
4.80
2.18
-1.32
-6.02
-12.08
-19.37
-27.35
-35.02
-40.90
-43.29
-40.80
-32.88
-20.18
-4.52
11.57
25.61
35.84
41.42
42.43
39.50
33.70
26.34
18.85
12.48
7.88
4.95
2.99
1.17
-0.86
-2.77
-3.90
-3.86
-2.98
-2.29
-2.90
-5.58
-10.25
-16.09
-21.82
-25.98
-27.23
-24.67
-18.13
-8.46
2.63
13.08
21.44
27.39
31.76
35.74
39.84
43.39
44.78
42.31
35.16
23.92
10.23
-3.74
-15.97
-25.05
-30.23
-31.50
-29.61
-26.00
-22.42
-20.36
-20.49
-22.25
-24.14
-24.37
-21.71
-16.00
-8.14
0.38
8.11
14.19
18.48
21.24
22.82
23.37
22.89
21.48
19.44
17.16
14.78
12.00
8.15
2.64
-4.49
-12.33
-19.39
-24.28
-26.34
-26.08
-24.88
-24.54
-26.59
-31.73
-39.57
-48.29
-55.05
-56.52
-50.15
-35.12
-12.89
13.30
39.68
63.01
81.24
93.18
98.04
95.15
84.36
66.59
44.24
20.65
-0.85
-17.95
-29.75
-36.42
-38.60
-37.00
-32.64
-27.11
-22.60
-21.30
-24.51
-31.83
-41.14
-49.20
-52.83
-50.03
-40.67
-26.44
-10.17
5.23
17.74
26.71
32.66
36.55
39.16
40.56
40.27
37.70
32.65
25.52
17.25
8.99
1.85
-3.40
-6.40
-7.33
-6.88
-6.09
-6.13
-8.02
-12.36
-19.21
-27.93
-36.93
-43.86
-45.94
-41.01
-28.56
-10.30
10.25
29.21
43.96
54.15
61.21
66.86
71.45
73.41
70.10
59.47
41.70
19.43
-3.26
-22.54
-36.25
-44.11
-47.29
-47.33
-45.61
-43.29
-41.60
-41.80
-44.79
-50.34
-56.54
-60.28
-58.29
-48.71
-32.07
-11.18
10.05
28.15
41.19
48.95
52.20
51.88
48.57
42.68
34.93
26.55
19.01
13.32
9.57
6.93
4.29
0.94
-3.05
-6.97
-9.95
-11.60
-12.30
-13.15
-15.42
-20.05
-26.94
-34.69
-40.77
-42.35
-37.37
-25.58
-8.68
10.39
28.67
44.38
57.00
66.77
73.72
77.17
75.94
69.12
56.76
40.09
21.16
2.09
-15.27
-29.50
-39.50
-44.60
-44.78
-41.01
-35.26
-29.97
-27.27
-28.23
-32.45
-38.14
-42.79
-43.95
-40.15
-31.40
-19.10
-5.48
7.33
17.99
26.13
32.02
35.99
37.99
37.64
34.55
28.81
21.08
12.40
3.84
-3.79
-10.04
-14.65
-17.53
-18.77
-18.76
-18.22
-18.23
-19.90
-24.07
-30.72
-38.68
-45.54
-48.27
-44.27
-32.54
-14.36
7.17
28.27
46.17
59.79
69.52
76.06
79.34
78.31
71.59
58.75
40.99
20.97
1.81
-14.01
-25.15
-31.42
-33.27
-31.53
-27.28
-21.96
-17.22
-14.57
-14.86
-17.99
-22.87
-27.78
-30.93
-30.88
-27.00
-19.54
-9.58
1.28
11.44
19.73
25.63
29.18
30.79
30.86
29.60
27.04
23.10
17.69
10.88
2.95
-5.49
-13.60
-20.37
-24.88
-26.66
-25.92
-23.59
-21.10
-20.03
-21.54
-25.90
-32.26
-38.71
-42.78
-42.15
-35.46
-22.82
-5.80
13.12
31.33
46.71
57.90
64.14
65.17
61.19
52.99
42.07
30.25
19.14
9.55
1.38
-5.99
-12.88
-18.91
-23.06
-24.44
-23.13
-20.49
-18.65
-19.41
-23.18
-28.57
-32.98
-33.76
-29.45
-20.43
-8.60
3.48
13.61
20.63
24.49
25.74
25.09
23.11
20.30
17.23
14.49
12.54
11.35
10.36
8.73
5.77
1.42
-3.69
-8.47
-11.90
-13.34
-12.83
-11.03
-9.02
-7.98
-8.76
-11.66
-16.12
-20.85
-24.20
-24.74
-21.88
-15.97
-8.14
0.26
8.18
15.13
21.08
26.16
30.36
33.41
34.84
34.15
31.02
25.41
17.65
8.43
-1.26
-10.25
-17.40
-21.80
-23.11
-21.72
-18.75
-15.75
-14.16
-14.55
-16.38
-18.07
-17.77
-14.25
-7.56
0.96
9.25
15.45
18.59
18.78
16.84
13.93
11.07
9.12
8.67
10.02
12.88
16.25
18.45
17.76
13.09
4.62
-6.14
-16.85
-25.35
-30.58
-32.98
-34.14
-35.89
-39.24
-43.78
-47.67
-48.41
-43.93
-33.44
-17.74
1.04
20.27
37.44
50.67
58.77
61.08
57.51
48.72
36.31
22.69
10.60
2.28
-1.34
-0.92
1.55
3.68
3.69
1.25
-2.45
-5.42
-5.99
-3.75
0.22
4.05
6.07
5.75
3.70
1.16
-1.09
-3.06
-5.48
-8.85
-12.78
-15.89
-16.57
-13.92
-8.46
-1.85
3.88
7.43
8.70
8.74
8.87
10.05
12.14
14.17
14.82
13.26
9.61
4.90
0.48
-2.63
-4.18
-4.71
-5.16
-6.23
-8.20
-10.83
-13.67
-16.31
-18.68
-20.94
-23.34
-25.77
-27.68
-28.14
-26.16
-21.29
-13.96
-5.54
2.14
7.56
10.17
10.58
10.05
9.76
10.11
10.57
10.27
8.72
6.29
4.13
3.42
4.63
7.01
8.84
8.27
4.23
-3.02
-12.09
-21.08
-28.31
-32.74
-34.04
-32.11
-26.93
-18.38
-6.60
7.50
22.03
34.33
42.01
43.92
40.67
34.17
26.54
18.99
11.58
3.87
-4.14
-11.41
-16.27
-17.43
-14.99
-10.58
-6.58
-4.92
-6.26
-10.04
-15.04
-19.98
-23.71
-25.19
-23.54
-18.41
-10.46
-1.14
7.81
15.18
20.66
24.53
27.03
27.75
25.96
21.35
14.81
8.38
4.36
4.04
6.83
10.49
12.19
9.99
3.81
-4.54
-12.27
-16.90
-17.27
-14.05
-9.21
-5.23
-3.92
-5.78
-9.89
-14.30
-17.00
-16.51
-12.54
-5.76
2.55
11.16
19.29
26.51
32.61
37.18
39.55
38.94
35.08
28.42
20.18
11.97
5.10
0.26
-2.46
-3.28
-2.42
-0.03
3.59
7.74
11.47
13.81
14.23
12.91
10.69
8.68
7.79
8.37
10.02
11.73
12.31
10.94
7.49
2.94
-1.03
-2.57
-0.49
5.07
11.96
15.81
10.54
-9.64
-47.74
-101.84
-164.36
-223.80
-268.24
-289.15
-283.40
-253.64
-206.92
-152.11
-97.69
-50.31
-14.18
9.05
20.17
22.14
19.23
15.96
15.81
20.38
29.24
40.36
50.79
57.72
59.41
55.72
48.12
38.99
30.60
24.32
20.28
17.35
13.40
5.58
-8.65
-29.98
-56.12
-81.87
-100.15
-104.39
-90.90
-60.13
-16.34
33.87
83.46
126.27
157.59
174.50
176.14
164.10
142.39
116.62
92.44
73.76
61.96
56.11
54.27
54.54
55.85
57.83
60.37
63.31
66.40
69.48
72.69
76.28
80.20
83.76
85.68
84.57
79.56
70.78
59.18
46.20
33.31
21.49
11.55
3.93
-1.05
-3.30
-3.14
-1.40
0.62
1.13
-1.96
-10.66
-26.31
-48.37
-73.33
-94.36
-102.78
-91.34
-58.10
-8.74
44.51
87.09
107.72
102.18
73.79
30.31
-20.28
-72.66
-124.38
-174.01
-219.26
-256.53
-282.20
-294.95
-296.39
-290.89
-283.41
-277.48
-274.39
-273.62
-274.02
-275.01
-276.95
-280.39
-285.28
-290.35
-293.46
-292.37
-285.77
-273.75
-257.51
-238.74
-218.80
-198.42
-177.87
-157.32
-137.26
-118.26
-100.69
-84.31
-68.29
-51.69
-33.98
-15.34
3.31
20.64
35.34
46.41
53.33
56.10
55.27
51.87
47.27
42.86
39.58
37.83
37.33
37.71
38.93
41.56
46.68
55.46
68.47
85.18
103.80
121.59
135.95
145.52
151.03
155.33
162.48
176.30
198.78
229.07
263.48
296.53
322.61
337.68
340.42
332.23
316.41
296.78
276.27
256.13
236.14
215.37
193.42
171.38
151.51
136.55
128.54
127.72
132.49
139.82
146.27
148.81
145.48
135.38
118.66
96.57
71.46
46.66
25.81
11.82
5.75
6.37
10.63
15.00
16.92
15.60
11.89
7.30
3.12
-0.07
-2.34
-3.87
-4.74
-4.78
-3.83
-1.94
0.51
2.81
4.10
3.57
0.78
-4.13
-10.38
-16.75
-21.96
-25.22
-26.60
-26.98
-27.65
-29.56
-32.89
-36.76
-39.65
-40.11
-37.63
-32.98
-28.06
-25.07
-25.43
-29.03
-34.11
-37.94
-38.06
-33.28
-24.24
-13.10
-2.64
4.88
8.39
8.10
5.21
1.14
-2.74
-4.96
-3.98
1.74
12.63
26.80
39.78
45.96
41.58
27.52
9.90
-2.43
-2.49
10.72
31.27
49.39
56.73
50.72
35.46
18.77
7.39
3.56
4.71
6.15
4.54
-0.12
-5.01
-6.67
-3.42
3.47
10.77
15.07
14.61
10.25
4.60
0.66
0.23
3.23
7.83
11.60
12.67
10.56
6.33
1.97
-0.57
-0.28
2.47
6.17
8.93
9.31
7.03
2.94
-1.55
-5.18
-7.46
-8.71
-9.68
-10.92
-12.35
-13.39
-13.28
-11.75
-9.16
-6.41
-4.43
-3.70
-4.05
-4.82
-5.28
-5.02
-4.07
-2.89
-1.96
-1.57
-1.67
-1.90
-1.88
-1.45
-0.77
-0.20
-0.11
-0.61
-1.41
-1.99
-1.86
-0.76
1.08
3.13
4.74
5.40
4.95
3.51
1.45
-0.84
-3.02
-4.90
-6.31
-7.13
-7.22
-6.56
-5.35
-4.07
-3.43
-4.04
-6.12
-9.21
-12.25
-14.02
-13.63
-10.98
-6.82
-2.41
1.02
2.81
3.04
2.31
1.37
0.69
0.32
0.02
-0.42
-0.97
-1.23
-0.67
1.00
3.58
6.30
8.09
8.05
5.99
2.53
-1.11
-3.67
-4.48
-3.69
-2.11
-0.68
0.05
0.25
0.48
1.30
2.81
4.49
5.51
5.22
3.54
0.98
-1.57
-3.33
-3.92
-3.50
-2.59
-1.79
-1.49
-1.71
-2.11
-2.23
-1.75
-0.66
0.73
1.93
2.60
2.73
2.62
2.76
3.49
4.74
6.08
6.97
7.06
6.35
5.10
3.59
1.82
-0.44
-3.44
-7.17
-11.15
-14.53
-16.46
-16.52
-14.94
-12.54
-10.30
-9.02
-8.97
-9.94
-11.30
-12.39
-12.62
-11.73
-9.76
-7.04
-4.04
-1.27
0.96
2.54
3.60
4.34
4.87
5.12
4.91
4.13
2.94
1.78
1.23
1.72
3.33
5.67
8.00
9.54
9.69
8.20
5.21
1.11
-3.52
-8.06
-11.83
-14.09
-14.27
-12.04
-7.61
-1.80
4.10
8.71
10.99
10.73
8.48
5.36
2.50
0.59
-0.29
-0.43
-0.20
0.22
0.89
1.90
3.13
4.18
4.53
3.85
2.24
0.24
-1.35
-1.89
-1.18
0.41
2.12
3.21
3.28
2.48
1.43
0.88
1.37
2.94
5.16
7.30
8.71
8.97
7.99
5.91
2.91
-0.85
-5.20
-9.84
-14.30
-17.88
-19.91
-19.92
-17.88
-14.32
-10.18
-6.56
-4.38
-4.03
-5.26
-7.26
-9.02
-9.73
-9.09
-7.36
-5.17
-3.10
-1.44
-0.08
1.19
2.46
3.48
3.76
2.87
0.81
-1.91
-4.43
-5.95
-6.13
-5.23
-3.97
-3.08
-2.97
-3.50
-4.17
-4.40
-3.95
-3.01
-2.09
-1.64
-1.76
-2.10
-2.06
-1.23
0.35
2.14
3.40
3.64
2.90
1.76
1.02
1.24
2.46
4.11
5.35
5.52
4.43
2.55
0.70
-0.32
-0.19
0.82
2.00
2.65
2.42
1.53
0.57
0.17
0.55
1.49
2.42
2.80
2.49
1.74
1.03
0.70
0.73
0.68
0.00
-1.59
-3.91
-6.31
-8.02
-8.53
-7.89
-6.65
-5.53
-5.06
-5.27
-5.75
-5.91
-5.42
-4.39
-3.36
-2.93
-3.42
-4.63
-5.87
-6.39
-5.72
-3.95
-1.67
0.33
1.47
1.59
1.01
0.25
-0.30
-0.58
-0.79
-1.17
-1.72
-2.17
-2.10
-1.24
0.31
2.05
3.31
3.48
2.39
0.36
-1.87
-3.44
-3.67
-2.40
-0.00
2.76
5.04
6.27
6.41
5.82
5.06
4.45
3.99
3.33
2.22
0.67
-0.82
-1.61
-1.28
0.11
1.94
3.35
3.64
2.73
1.13
-0.30
-0.83
-0.22
1.13
2.49
3.22
3.09
2.45
1.89
1.85
2.34
2.89
2.91
2.04
0.42
-1.36
-2.67
-3.19
-3.14
-3.09
-3.52
-4.55
-5.80
-6.73
-7.03
-6.86
-6.87
-7.72
-9.63
-12.14
-14.23
-14.77
-13.08
-9.33
-4.48
0.08
3.13
4.11
3.25
1.47
-0.16
-0.88
-0.55
0.40
1.29
1.66
1.47
1.08
0.97
1.41
2.26
3.07
3.37
2.95
2.01
1.05
0.54
0.70
1.38
2.06
2.18
1.38
-0.27
-2.31
-4.04
-4.93
-4.83
-4.02
-3.08
-2.50
-2.43
-2.57
-2.44
-1.69
-0.39
0.95
1.69
1.42
0.27
-1.17
-2.14
-2.16
-1.24
0.11
1.19
1.56
1.22
0.60
0.31
0.70
1.68
2.74
3.24
2.82
1.67
0.41
-0.23
0.15
1.36
2.68
3.33
2.82
1.28
-0.67
-2.25
-2.94
-2.71
-1.97
-1.30
-1.19
-1.78
-2.90
-4.20
-5.33
-6.11
-6.56
-6.80
-6.90
-6.80
-6.27
-5.09
-3.24
-1.01
1.05
2.32
2.47
1.67
0.48
-0.40
-0.53
0.01
0.70
0.90
0.25
-1.11
-2.55
-3.35
-3.10
-1.93
-0.47
0.47
0.35
-0.88
-2.76
-4.53
-5.51
-5.39
-4.34
-2.82
-1.36
-0.22
0.63
1.47
2.46
3.48
4.12
3.91
2.63
0.59
-1.46
-2.65
-2.44
-0.84
1.58
3.99
5.76
6.58
6.60
6.14
5.57
5.08
4.69
4.23
3.51
2.44
1.13
-0.08
-0.82
-0.87
-0.37
0.17
0.13
-0.84
-2.52
-4.21
-5.11
-4.82
-3.63
-2.41
-2.10
-3.07
-4.93
-6.71
-7.50
-6.99
-5.64
-4.39
-4.04
-4.75
-5.96
-6.77
-6.50
-5.10
-3.16
-1.50
-0.67
-0.64
-0.94
-1.00
-0.58
0.10
0.49
0.19
-0.83
-2.13
-3.09
-3.27
-2.65
-1.62
-0.70
-0.28
-0.38
-0.69
-0.81
-0.46
0.38
1.42
2.26
2.56
2.20
1.35
0.45
-0.06
0.11
0.94
2.11
3.19
3.84
3.95
3.70
3.35
3.10
3.00
2.97
2.91
2.82
2.78
2.80
2.77
2.45
1.63
0.25
-1.50
-3.30
-4.81
-5.81
-6.27
-6.29
-6.02
-5.57
-5.03
-4.49
-4.07
-3.91
-4.17
-4.97
-6.43
-8.55
-11.12
-13.64
-15.38
-15.56
-13.66
-9.80
-4.76
0.15
3.60
4.80
3.87
1.85
0.14
-0.17
1.17
3.47
5.56
6.51
6.11
5.00
4.17
4.37
5.56
7.00
7.70
7.06
5.24
3.06
1.55
1.36
2.41
3.99
5.11
5.09
3.83
1.87
-0.00
-1.12
-1.36
-1.01
-0.58
-0.38
-0.38
-0.28
0.17
0.94
1.66
1.80
1.09
-0.34
-1.98
-3.16
-3.50
-2.99
-2.04
-1.17
-0.76
-0.84
-1.16
-1.35
-1.19
-0.72
-0.19
0.06
-0.09
-0.47
-0.72
-0.46
0.37
1.45
2.20
2.15
1.17
-0.34
-1.67
-2.21
-1.80
-0.76
0.25
0.61
0.16
-0.86
-1.93
-2.57
-2.61
-2.22
-1.76
-1.57
-1.76
-2.18
-2.56
-2.66
-2.37
-1.84
-1.28
-1.00
-1.14
-1.69
-2.40
-2.90
-2.83
-1.97
-0.44
1.38
2.94
3.80
3.85
3.31
2.72
2.54
2.98
3.82
4.59
4.79
4.23
3.04
1.62
0.31
-0.73
-1.59
-2.40
-3.25
-3.99
-4.35
-4.13
-3.35
-2.30
-1.41
-1.04
-1.26
-1.87
-2.50
-2.83
-2.72
-2.29
-1.80
-1.49
-1.50
-1.69
-1.82
-1.66
-1.15
-0.50
-0.03
-0.07
-0.71
-1.75
-2.72
-3.12
-2.65
-1.40
0.16
1.47
2.10
2.03
1.55
1.09
0.96
1.14
1.36
1.30
0.80
-0.01
-0.84
-1.42
-1.60
-1.52
-1.39
-1.39
-1.53
-1.66
-1.57
-1.22
-0.76
-0.53
-0.88
-1.94
-3.46
-4.89
-5.60
-5.19
-3.77
-1.88
-0.28
0.44
0.16
-0.80
-1.84
-2.43
-2.32
-1.69
-0.89
-0.34
-0.20
-0.35
-0.48
-0.27
0.39
1.37
2.35
3.03
3.25
3.09
2.80
2.62
2.63
2.72
2.65
2.26
1.60
0.92
0.58
0.81
1.58
2.59
3.38
3.60
3.13
2.16
1.01
0.01
-0.71
-1.19
-1.55
-1.87
-2.03
-1.88
-1.32
-0.45
0.39
0.75
0.31
-0.96
-2.75
-4.56
-5.86
-6.35
-5.99
-5.05
-3.95
-3.07
-2.61
-2.57
-2.78
-3.06
-3.32
-3.57
-3.87
-4.24
-4.61
-4.87
-4.93
-4.86
-4.83
-5.05
-5.58
-6.34
-7.09
-7.61
-7.81
-7.84
-8.01
-8.61
-9.79
-11.33
-12.75
-13.55
-13.38
-12.41
-11.26
-10.82
-11.78
-14.24
-17.57
-20.61
-22.28
-22.08
-20.53
-18.95
-18.95
-21.58
-26.74
-33.10
-38.66
-41.71
-41.63
-39.18
-36.12
-34.40
-35.40
-39.52
-46.24
-54.49
-63.19
-71.61
-79.64
-87.46
-95.60
-104.36
-113.61
-122.46
-129.26
-131.86
-127.91
-115.73
-95.31
-69.43
-43.76
-25.45
-20.16
-28.92
-46.53
-62.63
-65.64
-47.76
-8.50
45.08
101.50
149.75
183.18
200.85
205.94
202.84
194.71
182.85
167.65
150.03
132.03
116.63
106.32
101.78
101.28
101.43
98.80
91.45
79.77
66.12
53.56
44.51
39.83
38.65
39.15
39.43
38.44
36.21
33.65
31.90
31.71
33.03
34.99
36.30
35.72
32.55
26.94
19.68
11.91
4.62
-1.68
-7.00
-11.57
-15.62
-19.13
-21.95
-23.97
-25.27
-26.16
-26.92
-27.64
-28.11
-27.90
-26.69
-24.44
-21.47
-18.27
-15.26
-12.64
-10.35
-8.24
-6.15
-4.08
-2.14
-0.47
0.84
1.84
2.70
3.60
4.66
5.86
7.00
7.75
7.78
6.88
5.03
2.39
-0.73
-4.10
-7.58
-11.19
-14.94
-18.77
-22.46
-25.64
-27.97
-29.21
-29.34
-28.45
-26.73
-24.37
-21.54
-18.45
-15.30
-12.34
-9.73
-7.59
-5.95
-4.77
-3.97
-3.43
-3.01
-2.54
-1.99
-1.44
-1.07
-1.08
-1.56
-2.42
-3.38
-4.12
-4.38
-4.09
-3.35
-2.35
-1.30
-0.34
0.46
1.02
1.32
1.34
1.11
0.71
0.25
-0.19
-0.53
-0.71
-0.64
-0.31
0.29
1.05
1.82
2.41
2.66
2.53
2.11
1.53
0.97
0.53
0.25
0.15
0.20
0.35
0.58
0.77
0.86
0.76
0.46
0.04
-0.38
-0.62
-0.62
-0.37
0.03
0.46
0.79
0.96
0.98
0.91
0.86
0.89
1.05
1.30
1.58
1.81
1.95
1.99
1.92
1.78
1.53
1.09
0.43
-0.42
-1.30
-2.02
-2.43
-2.54
-2.51
-2.52
-2.69
-2.97
-3.23
-3.28
-3.06
-2.62
-2.09
-1.59
-1.16
-0.81
-0.53
-0.33
-0.26
-0.36
-0.60
-0.90
-1.18
-1.36
-1.47
-1.55
-1.66
-1.83
-2.07
-2.34
-2.60
-2.82
-2.95
-2.95
-2.77
-2.41
-1.90
-1.37
-0.92
-0.64
-0.53
-0.52
-0.52
-0.45
-0.32
-0.18
-0.15
-0.24
-0.41
-0.54
-0.54
-0.38
-0.16
0.01
0.06
0.01
-0.04
0.03
0.25
0.58
0.89
1.06
1.05
0.91
0.72
0.58
0.50
0.44
0.32
0.08
-0.29
-0.73
-1.14
-1.44
-1.59
-1.62
-1.61
-1.64
-1.72
-1.80
-1.79
-1.61
-1.28
-0.91
-0.63
-0.56
-0.68
-0.91
-1.11
-1.16
-0.99
-0.65
-0.23
0.11
0.22
0.05
-0.34
-0.81
-1.14
-1.19
-0.96
-0.61
-0.34
-0.31
-0.53
-0.87
-1.17
-1.34
-1.43
-1.55
-1.77
-2.08
-2.33
-2.36
-2.10
-1.64
-1.17
-0.91
-0.90
-1.07
-1.18
-1.06
-0.64
-0.06
0.50
0.84
0.89
0.75
0.56
0.48
0.57
0.77
0.95
0.99
0.87
0.69
0.56
0.55
0.66
0.78
0.74
0.48
0.05
-0.41
-0.75
-0.91
-0.90
-0.86
-0.88
-1.02
-1.21
-1.36
-1.34
-1.17
-0.90
-0.64
-0.51
-0.54
-0.71
-0.92
-1.01
-0.88
-0.51
0.00
0.51
0.84
0.94
0.84
0.66
0.54
0.51
0.51
0.38
-0.02
-0.72
-1.56
-2.28
-2.60
-2.35
-1.61
-0.60
0.34
0.94
1.09
0.89
0.54
0.23
0.06
-0.02
-0.07
-0.16
-0.30
-0.44
-0.57
-0.72
-0.95
-1.32
-1.82
-2.33
-2.70
-2.77
-2.50
-1.99
-1.40
-0.89
-0.53
-0.32
-0.14
0.08
0.37
0.66
0.82
0.80
0.59
0.28
-0.06
-0.38
-0.67
-0.94
-1.15
-1.23
-1.11
-0.78
-0.32
0.12
0.40
0.42
0.20
-0.16
-0.51
-0.71
-0.65
-0.35
0.15
0.71
1.17
1.44
1.46
1.26
0.88
0.46
0.07
-0.19
-0.27
-0.21
-0.05
0.08
0.18
0.26
0.43
0.74
1.16
1.55
1.75
1.68
1.35
0.92
0.55
0.37
0.37
0.44
0.46
0.35
0.10
-0.22
-0.51
-0.72
-0.82
-0.80
-0.68
-0.52
-0.35
-0.18
-0.06
0.02
0.04
-0.02
-0.17
-0.40
-0.68
-0.93
-1.07
-1.08
-0.99
-0.92
-0.98
-1.24
-1.65
-2.08
-2.35
-2.34
-2.04
-1.56
-1.07
-0.71
-0.57
-0.64
-0.89
-1.24
-1.63
-1.98
-2.22
-2.25
-2.03
-1.56
-0.93
-0.27
0.25
0.51
0.46
0.19
-0.17
-0.48
-0.61
-0.54
-0.32
-0.08
0.03
-0.10
-0.48
-1.02
-1.59
-2.04
-2.25
-2.24
-2.03
-1.72
-1.37
-1.06
-0.83
-0.75
-0.86
-1.16
-1.61
-2.12
-2.63
-3.04
-3.34
-3.59
-3.95
-4.58
-5.59
-6.97
-8.51
-9.86
-10.66
-10.69
-9.97
-8.70
-7.23
-5.85
-4.68
-3.71
-2.82
-1.93
-1.07
-0.31
0.22
0.47
0.49
0.38
0.26
0.20
0.16
0.05
-0.15
-0.41
-0.56
-0.39
0.19
1.13
2.22
3.21
3.91
4.29
4.47
4.61
4.82
5.12
5.46
5.79
6.14
6.53
6.97
7.38
7.65
7.65
7.33
6.75
6.05
5.39
4.89
4.56
4.31
4.01
3.59
2.99
2.29
1.55
0.85
0.27
-0.18
-0.46
-0.59
-0.55
-0.38
-0.09
0.26
0.61
0.85
0.88
0.63
0.07
-0.73
-1.61
-2.33
-2.73
-2.73
-2.41
-1.95
-1.55
-1.34
-1.31
-1.36
-1.38
-1.27
-1.01
-0.68
-0.40
-0.26
-0.29
-0.45
-0.65
-0.84
-0.97
-1.04
-1.07
-1.05
-0.99
-0.87
-0.69
-0.50
-0.32
-0.18
-0.08
-0.02
-0.02
-0.08
-0.25
-0.51
-0.84
-1.18
-1.50
-1.79
-2.07
-2.32
-2.49
-2.52
-2.38
-2.09
-1.73
-1.42
-1.28
-1.35
-1.51
-1.62
-1.56
-1.29
-0.88
-0.46
-0.13
0.06
0.15
0.17
0.17
0.14
0.05
-0.09
-0.27
-0.43
-0.53
-0.55
-0.47
-0.33
-0.19
-0.09
-0.08
-0.14
-0.26
-0.35
-0.37
-0.30
-0.21
-0.17
-0.23
-0.37
-0.53
-0.65
-0.71
-0.74
-0.79
-0.88
-0.94
-0.88
-0.66
-0.31
0.06
0.28
0.27
0.00
-0.39
-0.72
-0.82
-0.61
-0.14
0.43
0.91
1.18
1.23
1.17
1.12
1.15
1.22
1.21
1.05
0.70
0.28
-0.08
-0.27
-0.28
-0.14
0.05
0.23
0.34
0.36
0.27
0.10
-0.10
-0.25
-0.32
-0.34
-0.41
-0.58
-0.86
-1.13
-1.22
-1.07
-0.72
-0.36
-0.17
-0.26
-0.55
-0.86
-1.02
-0.99
-0.83
-0.67
-0.58
-0.56
-0.51
-0.36
-0.07
0.27
0.53
0.58
0.36
-0.09
-0.63
-1.10
-1.39
-1.51
-1.49
-1.45
-1.44
-1.41
-1.30
-1.02
-0.62
-0.20
0.09
0.14
0.01
-0.17
-0.24
-0.15
0.05
0.24
0.31
0.27
0.17
0.09
0.04
-0.02
-0.16
-0.38
-0.60
-0.69
-0.59
-0.30
0.03
0.26
0.28
0.09
-0.24
-0.57
-0.79
-0.82
-0.69
-0.41
-0.08
0.24
0.48
0.56
0.45
0.17
-0.21
-0.61
-0.92
-1.11
-1.15
-1.06
-0.87
-0.63
-0.37
-0.11
0.07
0.16
0.16
0.07
-0.06
-0.20
-0.32
-0.39
-0.38
-0.27
-0.09
0.11
0.25
0.30
0.25
0.18
0.18
0.29
0.50
0.70
0.77
0.64
0.33
-0.03
-0.34
-0.50
-0.52
-0.45
-0.36
-0.33
-0.36
-0.46
-0.58
-0.69
-0.73
-0.69
-0.59
-0.47
-0.41
-0.46
-0.60
-0.74
-0.76
-0.57
-0.19
0.23
0.50
0.51
0.25
-0.21
-0.71
-1.19
-1.64
-2.07
-2.47
-2.74
-2.76
-2.42
-1.76
-0.97
-0.29
0.09
0.15
0.03
-0.03
0.13
0.49
0.87
1.06
0.93
0.53
0.06
-0.24
-0.24
0.04
0.41
0.68
0.72
0.51
0.18
-0.16
-0.38
-0.47
-0.45
-0.36
-0.26
-0.18
-0.12
-0.08
-0.08
-0.13
-0.21
-0.31
-0.38
-0.40
-0.39
-0.38
-0.44
-0.63
-0.93
-1.26
-1.49
-1.48
-1.18
-0.65
-0.05
0.45
0.71
0.76
0.68
0.65
0.75
0.95
1.09
1.01
0.59
-0.07
-0.77
-1.22
-1.28
-0.96
-0.46
-0.03
0.16
0.07
-0.22
-0.54
-0.80
-0.95
-1.03
-1.05
-1.03
-0.95
-0.80
-0.58
-0.33
-0.08
0.09
0.12
-0.01
-0.31
-0.70
-1.07
-1.29
-1.27
-1.02
-0.61
-0.18
0.12
0.20
0.06
-0.22
-0.49
-0.58
-0.42
-0.06
0.35
0.66
0.78
0.75
0.72
0.80
1.02
1.26
1.32
1.07
0.58
0.02
-0.39
-0.50
-0.38
-0.18
-0.09
-0.17
-0.34
-0.43
-0.27
0.10
0.54
0.79
0.72
0.35
-0.09
-0.34
-0.22
0.23
0.78
1.17
1.22
0.97
0.57
0.22
0.03
-0.05
-0.11
-0.23
-0.38
-0.49
-0.44
-0.25
0.02
0.25
0.33
0.25
0.06
-0.19
-0.43
-0.61
-0.67
-0.58
-0.33
-0.01
0.23
0.26
0.01
-0.46
-1.02
-1.54
-1.91
-2.14
-2.25
-2.25
-2.11
-1.79
-1.33
-0.80
-0.35
-0.12
-0.14
-0.31
-0.42
-0.31
0.09
0.71
1.33
1.71
1.72
1.42
1.02
0.73
0.71
0.91
1.17
1.30
1.17
0.83
0.42
0.08
-0.15
-0.30
-0.50
-0.81
-1.22
-1.66
-2.03
-2.26
-2.37
-2.39
-2.34
-2.24
-2.01
-1.64
-1.12
-0.53
0.05
0.51
0.80
0.92
0.91
0.86
0.79
0.74
0.69
0.66
0.64
0.66
0.72
0.76
0.70
0.43
-0.06
-0.72
-1.40
-1.91
-2.14
-2.05
-1.74
-1.29
-0.84
-0.46
-0.19
-0.07
-0.10
-0.26
-0.46
-0.59
-0.53
-0.27
0.10
0.44
0.61
0.58
0.47
0.41
0.54
0.83
1.12
1.20
0.95
0.39
-0.29
-0.87
-1.15
-1.09
-0.79
-0.44
-0.19
-0.10
-0.12
-0.15
-0.11
0.01
0.13
0.12
-0.10
-0.51
-1.00
-1.39
-1.56
-1.51
-1.35
-1.24
-1.25
-1.38
-1.49
-1.46
-1.25
-0.93
-0.62
-0.39
-0.25
-0.14
-0.00
0.14
0.22
0.13
-0.12
-0.41
-0.54
-0.33
0.25
1.07
1.87
2.40
2.50
2.16
1.56
0.95
0.57
0.49
0.68
0.93
1.09
1.02
0.72
0.31
-0.06
-0.33
-0.46
-0.54
-0.66
-0.87
-1.11
-1.30
-1.35
-1.23
-1.01
-0.82
-0.75
-0.84
-1.02
-1.15
-1.11
-0.85
-0.48
-0.14
0.02
-0.03
-0.20
-0.31
-0.24
0.07
0.49
0.84
0.94
0.71
0.26
-0.22
-0.51
-0.50
-0.21
0.19
0.51
0.59
0.44
0.18
-0.02
-0.09
-0.06
-0.08
-0.26
-0.59
-0.94
-1.10
-0.91
-0.37
0.34
0.97
1.30
1.23
0.86
0.37
0.01
-0.04
0.24
0.74
1.23
1.46
1.28
0.74
0.04
-0.53
-0.77
-0.62
-0.17
0.41
0.99
1.49
1.89
2.21
2.41
2.48
2.43
2.33
2.27
2.37
2.64
3.06
3.54
4.01
4.47
4.97
5.67
6.66
7.97
9.44
10.82
11.85
12.46
12.82
13.40
14.68
16.96
20.08
23.43
26.21
27.80
28.13
27.89
28.23
30.39
34.98
41.68
49.18
55.74
59.96
61.53
61.53
62.06
65.36
72.69
83.62
96.14
107.37
114.89
117.84
117.62
117.29
120.58
130.34
147.18
168.65
189.49
202.54
200.35
177.40
132.31
69.41
-1.50
-67.34
-115.36
-137.11
-131.19
-103.64
-65.77
-30.45
-8.37
-5.27
-21.26
-51.83
-90.19
-129.67
-165.35
-194.44
-215.43
-227.02
-227.65
-216.24
-193.52
-163.37
-132.23
-106.99
-91.92
-86.99
-88.01
-88.92
-85.07
-75.32
-62.16
-49.76
-41.51
-38.38
-38.75
-39.67
-38.57
-34.58
-28.68
-22.93
-19.28
-18.37
-19.41
-20.62
-20.29
-17.78
-13.93
-10.55
-9.16
-9.92
-11.28
-10.78
-6.40
2.16
13.19
23.89
31.81
35.92
36.88
36.22
35.18
34.08
32.36
29.30
24.82
19.67
15.17
12.49
12.09
13.57
16.01
18.48
20.32
21.40
21.86
21.73
20.75
18.43
14.37
8.68
2.22
-3.62
-7.48
-8.64
-7.46
-5.18
-3.31
-2.94
-4.30
-6.80
-9.43
-11.27
-11.85
-11.23
-9.83
-8.23
-6.88
-6.00
-5.55
-5.32
-5.10
-4.81
-4.58
-4.64
-5.17
-6.07
-6.99
-7.46
-7.17
-6.17
-4.94
-4.04
-3.88
-4.41
-5.15
-5.48
-4.92
-3.46
-1.52
0.23
1.19
1.07
0.04
-1.36
-2.49
-2.91
-2.58
-1.82
-1.10
-0.81
-1.02
-1.45
-1.69
-1.49
-0.84
-0.09
0.36
0.24
-0.43
-1.34
-2.13
-2.54
-2.62
-2.62
-2.89
-3.67
-4.90
-6.23
-7.16
-7.28
-6.46
-5.01
-3.52
-2.61
-2.55
-3.15
-3.80
-3.87
-3.08
-1.73
-0.54
-0.20
-0.88
-2.08
-2.89
-2.58
-1.07
0.92
2.31
2.34
1.01
-0.86
-2.13
-2.06
-0.76
0.89
1.87
1.59
0.39
-0.77
-0.87
0.47
2.72
4.76
5.53
4.69
2.76
0.76
-0.33
-0.07
1.24
2.92
4.29
5.09
5.44
5.69
6.10
6.64
7.07
7.10
6.60
5.74
4.89
4.42
4.57
5.22
5.98
6.36
6.02
4.95
3.54
2.39
1.98
2.45
3.48
4.44
4.69
3.95
2.46
0.90
-0.04
-0.00
0.81
1.76
2.16
1.67
0.52
-0.72
-1.45
-1.47
-1.10
-0.90
-1.33
-2.44
-3.77
-4.70
-4.79
-4.06
-3.00
-2.30
-2.38
-3.25
-4.37
-5.04
-4.75
-3.53
-1.93
-0.72
-0.46
-1.14
-2.16
-2.70
-2.17
-0.60
1.30
2.59
2.59
1.36
-0.32
-1.32
-0.82
1.24
4.13
6.69
7.98
7.68
6.31
4.75
3.81
3.76
4.25
4.63
4.36
3.44
2.29
1.55
1.61
2.39
3.35
3.87
3.62
2.74
1.79
1.34
1.67
2.51
3.26
3.32
2.43
0.85
-0.79
-1.83
-1.95
-1.38
-0.79
-0.88
-2.01
-3.97
-6.02
-7.31
-7.33
-6.20
-4.61
-3.39
-3.11
-3.66
-4.46
-4.74
-4.09
-2.68
-1.17
-0.27
-0.29
-1.01
-1.75
-1.84
-0.99
0.54
2.11
3.05
3.07
2.41
1.71
1.63
2.47
3.94
5.36
5.97
5.38
3.83
2.03
0.82
0.69
1.48
2.51
2.97
2.45
1.12
-0.34
-1.20
-1.10
-0.29
0.59
0.90
0.37
-0.73
-1.79
-2.24
-1.88
-0.99
-0.14
0.12
-0.37
-1.34
-2.14
-2.21
-1.32
0.23
1.77
2.53
2.22
1.07
-0.18
-0.73
-0.16
1.28
2.81
3.56
3.11
1.70
0.14
-0.67
-0.27
1.11
2.62
3.32
2.74
1.12
-0.70
-1.76
-1.57
-0.34
1.20
2.15
2.06
1.09
-0.10
-0.78
-0.60
0.21
1.00
1.14
0.35
-1.05
-2.39
-3.02
-2.69
-1.70
-0.74
-0.48
-1.16
-2.45
-3.62
-3.93
-3.06
-1.31
0.57
1.79
1.95
1.21
0.21
-0.37
-0.18
0.61
1.43
1.71
1.21
0.24
-0.53
-0.50
0.50
2.06
3.38
3.71
2.79
1.03
-0.74
-1.69
-1.48
-0.42
0.74
1.23
0.79
-0.29
-1.28
-1.54
-0.91
0.14
0.81
0.46
-0.98
-2.92
-4.43
-4.81
-3.91
-2.33
-0.93
-0.43
-0.99
-2.17
-3.24
-3.60
-3.15
-2.25
-1.54
-1.48
-2.13
-3.07
-3.62
-3.26
-1.89
0.05
1.78
2.55
2.10
0.76
-0.66
-1.31
-0.82
0.52
1.95
2.68
2.37
1.35
0.38
0.19
1.00
2.40
3.63
3.97
3.26
1.92
0.73
0.33
0.87
1.93
2.77
2.78
1.82
0.35
-0.91
-1.36
-0.81
0.36
1.50
2.03
1.82
1.23
0.88
1.26
2.39
3.78
4.72
4.64
3.52
1.90
0.58
0.20
0.89
2.22
3.40
3.73
2.99
1.52
0.05
-0.77
-0.66
0.09
0.84
0.98
0.32
-0.82
-1.75
-1.89
-1.16
-0.02
0.77
0.58
-0.64
-2.35
-3.69
-4.00
-3.23
-1.92
-0.89
-0.78
-1.68
-3.10
-4.31
-4.69
-4.16
-3.12
-2.26
-2.11
-2.77
-3.84
-4.60
-4.52
-3.48
-1.93
-0.59
-0.09
-0.54
-1.48
-2.21
-2.12
-1.13
0.30
1.50
1.92
1.52
0.72
0.16
0.26
1.02
1.99
2.56
2.34
1.41
0.29
-0.28
0.21
1.72
3.64
5.06
5.26
4.15
2.31
0.72
0.17
0.85
2.23
3.44
3.75
3.05
1.85
0.93
0.86
1.62
2.70
3.40
3.31
2.50
1.51
0.94
1.11
1.87
2.69
3.00
2.50
1.34
0.05
-0.78
-0.78
-0.03
1.02
1.74
1.66
0.74
-0.61
-1.74
-2.13
-1.62
-0.53
0.52
0.94
0.54
-0.43
-1.38
-1.78
-1.48
-0.75
-0.13
-0.11
-0.78
-1.80
-2.58
-2.65
-1.86
-0.60
0.51
0.92
0.45
-0.59
-1.62
-2.12
-1.92
-1.30
-0.80
-0.91
-1.72
-2.88
-3.76
-3.86
-3.10
-1.91
-1.00
-0.90
-1.73
-3.00
-3.95
-3.97
-2.92
-1.20
0.44
1.37
1.37
0.76
0.12
-0.03
0.41
1.11
1.53
1.27
0.34
-0.84
-1.72
-1.91
-1.47
-0.81
-0.46
-0.74
-1.58
-2.56
-3.17
-3.07
-2.31
-1.26
-0.41
-0.10
-0.36
-0.91
-1.35
-1.37
-0.86
0.02
0.95
1.65
2.02
2.17
2.34
2.78
3.56
4.51
5.33
5.72
5.55
4.94
4.21
3.70
3.56
3.63
3.61
3.22
2.40
1.40
0.61
0.39
0.77
1.52
2.23
2.56
2.43
2.06
1.79
1.92
2.47
3.24
3.85
3.98
3.51
2.61
1.60
0.84
0.53
0.62
0.89
1.02
0.81
0.27
-0.38
-0.89
-1.08
-1.03
-0.96
-1.10
-1.54
-2.13
-2.60
-2.69
-2.36
-1.81
-1.40
-1.46
-2.08
-3.06
-4.02
-4.58
-4.57
-4.11
-3.54
-3.22
-3.30
-3.68
-4.03
-3.98
-3.39
-2.41
-1.40
-0.72
-0.53
-0.67
-0.80
-0.64
-0.17
0.38
0.63
0.32
-0.46
-1.36
-1.85
-1.62
-0.66
0.66
1.82
2.41
2.34
1.85
1.27
0.91
0.77
0.67
0.32
-0.37
-1.30
-2.16
-2.63
-2.62
-2.27
-1.93
-1.88
-2.17
-2.56
-2.70
-2.30
-1.37
-0.21
0.76
1.19
1.06
0.63
0.30
0.40
0.98
1.80
2.51
2.80
2.59
2.06
1.51
1.23
1.37
1.85
2.43
2.84
2.90
2.61
2.15
1.76
1.59
1.64
1.72
1.54
0.93
-0.05
-1.11
-1.85
-1.99
-1.53
-0.78
-0.18
-0.07
-0.47
-1.08
-1.49
-1.40
-0.77
0.10
0.81
1.09
0.91
0.50
0.18
0.17
0.45
0.79
0.91
0.68
0.17
-0.30
-0.40
0.05
0.92
1.86
2.46
2.49
2.05
1.53
1.35
1.73
2.52
3.28
3.50
2.92
1.67
0.24
-0.85
-1.23
-0.96
-0.41
-0.06
-0.20
-0.80
-1.51
-1.93
-1.81
-1.19
-0.42
0.08
0.04
-0.50
-1.24
-1.77
-1.81
-1.34
-0.64
-0.11
-0.05
-0.48
-1.12
-1.59
-1.55
-0.94
-0.03
0.79
1.14
0.93
0.34
-0.26
-0.58
-0.52
-0.23
0.01
0.02
-0.19
-0.38
-0.28
0.25
1.11
1.97
2.44
2.28
1.52
0.52
-0.24
-0.43
-0.01
0.70
1.24
1.28
0.81
0.15
-0.28
-0.19
0.38
1.06
1.44
1.29
0.69
0.00
-0.39
-0.30
0.21
0.82
1.20
1.16
0.75
0.24
-0.06
0.06
0.54
1.09
1.33
1.04
0.23
-0.81
-1.66
-2.04
-1.91
-1.46
-1.02
-0.80
-0.81
-0.89
-0.85
-0.61
-0.27
-0.04
-0.07
-0.38
-0.79
-1.02
-0.86
-0.28
0.54
1.27
1.59
1.37
0.74
0.01
-0.45
-0.44
0.00
0.57
0.89
0.70
-0.01
-0.89
-1.54
-1.62
-1.11
-0.31
0.36
0.58
0.34
-0.05
-0.19
0.19
0.97
1.79
2.13
1.80
0.90
-0.10
-0.71
-0.68
-0.12
0.57
0.94
0.81
0.30
-0.24
-0.48
-0.32
0.05
0.30
0.17
-0.35
-0.98
-1.36
-1.26
-0.69
0.08
0.66
0.78
0.40
-0.25
-0.83
-1.01
-0.69
0.03
0.85
1.46
1.68
1.49
1.10
0.75
0.60
0.62
0.63
0.47
0.14
-0.17
-0.23
0.11
0.73
1.29
1.43
0.95
-0.02
-1.06
-1.66
-1.54
-0.74
0.35
1.19
1.37
0.79
-0.23
-1.15
-1.51
-1.13
-0.22
0.73
1.26
1.20
0.68
0.08
-0.26
-0.24
0.04
0.27
0.23
-0.12
-0.59
-0.91
-0.84
-0.31
0.47
1.19
1.48
1.21
0.48
-0.32
-0.75
-0.55
0.23
1.19
1.82
1.77
1.07
0.10
-0.65
-0.88
-0.61
-0.17
0.03
-0.18
-0.67
-1.12
-1.17
-0.76
-0.10
0.45
0.58
0.26
-0.24
-0.57
-0.47
0.05
0.73
1.16
1.08
0.46
-0.43
-1.18
-1.47
-1.19
-0.52
0.22
0.68
0.73
0.46
0.14
0.04
0.28
0.76
1.19
1.29
0.99
0.46
0.04
0.09
0.66
1.50
2.16
2.25
1.69
0.76
-0.06
-0.42
-0.27
0.14
0.39
0.23
-0.32
-0.94
-1.29
-1.16
-0.65
-0.05
0.27
0.12
-0.44
-1.11
-1.51
-1.38
-0.72
0.17
0.87
0.99
0.42
-0.60
-1.65
-2.29
-2.33
-1.89
-1.32
-1.00
-1.06
-1.31
-1.42
-1.08
-0.33
0.50
0.95
0.73
-0.05
-0.96
-1.45
-1.22
-0.37
0.66
1.33
1.34
0.79
0.05
-0.45
-0.44
0.02
0.64
1.05
0.99
0.42
-0.43
-1.18
-1.48
-1.15
-0.28
0.82
1.74
2.20
2.21
2.01
1.92
2.12
2.53
2.87
2.87
2.51
2.01
1.72
1.87
2.37
2.85
2.89
2.27
1.10
-0.23
-1.23
-1.58
-1.28
-0.64
-0.11
-0.03
-0.51
-1.29
-1.99
-2.26
-1.99
-1.40
-0.90
-0.83
-1.25
-1.90
-2.35
-2.27
-1.61
-0.68
0.09
0.36
0.10
-0.42
-0.79
-0.76
-0.37
0.06
0.19
-0.17
-0.90
-1.63
-1.98
-1.76
-1.09
-0.34
0.09
-0.03
-0.60
-1.30
-1.74
-1.65
-1.07
-0.34
0.16
0.12
-0.41
-1.11
-1.51
-1.27
-0.39
0.80
1.78
2.18
1.98
1.47
1.10
1.18
1.67
2.25
2.50
2.23
1.51
0.73
0.33
0.54
1.30
2.24
2.89
2.93
2.35
1.46
0.66
0.30
0.43
0.82
1.11
1.00
0.48
-0.20
-0.67
-0.65
-0.14
0.58
1.06
1.01
0.42
-0.41
-1.10
-1.34
-1.08
-0.57
-0.12
-0.00
-0.24
-0.63
-0.91
-0.88
-0.54
-0.11
0.07
-0.21
-0.90
-1.75
-2.32
-2.33
-1.74
-0.91
-0.30
-0.27
-0.85
-1.70
-2.32
-2.32
-1.65
-0.61
0.35
0.87
0.87
0.63
0.51
0.76
1.38
2.06
2.47
2.39
1.88
1.23
0.84
0.88
1.27
1.70
1.78
1.33
0.45
-0.52
-1.20
-1.34
-1.00
-0.47
-0.09
-0.11
-0.45
-0.83
-0.89
-0.45
0.43
1.40
1.99
1.93
1.22
0.21
-0.62
-0.88
-0.52
0.22
0.93
1.25
1.08
0.62
0.17
-0.03
0.06
0.26
0.37
0.28
0.11
0.10
0.43
1.13
1.99
2.63
2.77
2.30
1.37
0.32
-0.51
-0.92
-0.90
-0.60
-0.28
-0.09
-0.09
-0.23
-0.35
-0.32
-0.12
0.17
0.35
0.24
-0.20
-0.80
-1.30
-1.40
-1.01
-0.32
0.31
0.55
0.27
-0.33
-0.87
-1.03
-0.74
-0.25
0.05
-0.12
-0.76
-1.55
-2.03
-1.91
-1.23
-0.32
0.35
0.48
0.09
-0.52
-0.91
-0.80
-0.20
0.57
1.07
0.98
0.27
-0.75
-1.62
-1.95
-1.62
-0.86
-0.06
0.41
0.39
0.06
-0.25
-0.24
0.15
0.73
1.15
1.18
0.83
0.36
0.11
0.28
0.78
1.28
1.38
0.92
0.03
-0.85
-1.27
-1.01
-0.24
0.61
1.02
0.75
-0.04
-0.93
-1.42
-1.29
-0.63
0.16
0.70
0.78
0.52
0.19
0.10
0.41
0.99
1.58
1.88
1.75
1.28
0.78
0.59
0.90
1.64
2.40
2.77
2.48
1.62
0.58
-0.16
-0.33
-0.01
0.44
0.61
0.29
-0.44
-1.26
-1.82
-1.97
-1.78
-1.54
-1.46
-1.66
-2.01
-2.23
-2.09
-1.52
-0.72
-0.06
0.14
-0.21
-0.91
-1.52
-1.65
-1.18
-0.35
0.41
0.70
0.40
-0.21
-0.69
-0.63
0.09
1.18
2.15
2.52
2.05
0.95
-0.31
-1.16
-1.25
-0.58
0.50
1.47
1.92
1.71
1.04
0.29
-0.23
-0.40
-0.36
-0.34
-0.52
-0.94
-1.44
-1.83
-1.96
-1.82
-1.52
-1.19
-0.90
-0.56
0.01
1.00
2.42
4.04
5.35
5.84
5.13
3.33
1.01
-0.97
-1.84
-1.34
0.18
1.89
2.91
2.80
1.70
0.24
-0.90
-1.33
-1.14
-0.71
-0.38
-0.23
-0.03
0.48
1.41
2.49
3.22
3.16
2.24
0.82
-0.48
-1.11
-0.90
-0.14
0.60
0.78
0.17
-0.99
-2.19
-2.93
-3.00
-2.58
-2.10
-1.99
-2.46
-3.38
-4.36
-5.01
-5.03
-4.41
-3.41
-2.47
-2.05
-2.48
-3.84
-5.95
-8.43
-10.78
-12.52
-13.30
-12.94
-11.54
-9.36
-6.85
-4.49
-2.78
-2.12
-2.63
-4.06
-5.74
-6.80
-6.51
-4.70
-1.99
0.36
1.08
-0.54
-4.25
-8.81
-12.78
-15.05
-15.22
-13.59
-10.65
-6.87
-2.70
1.30
4.29
5.29
3.62
-0.66
-6.61
-12.65
-17.15
-18.97
-17.72
-13.75
-7.86
-1.00
5.94
12.22
17.26
20.64
22.20
22.04
20.48
18.02
15.26
12.80
11.02
10.12
9.98
10.26
10.49
10.23
9.21
7.55
5.62
4.01
3.21
3.35
4.16
5.09
5.61
5.49
4.86
4.15
3.77
3.93
4.53
5.21
5.62
5.56
5.07
4.45
3.99
3.79
3.69
3.35
2.50
1.17
-0.24
-1.12
-1.03
0.03
1.53
2.72
2.98
2.21
0.88
-0.29
-0.73
-0.32
0.52
1.20
1.26
0.65
-0.27
-0.95
-1.03
-0.47
0.37
0.96
0.94
0.29
-0.66
-1.36
-1.36
-0.56
0.74
1.94
2.44
1.98
0.75
-0.72
-1.77
-2.03
-1.54
-0.77
-0.26
-0.34
-0.88
-1.43
-1.44
-0.67
0.61
1.86
2.48
2.22
1.33
0.41
0.04
0.44
1.31
2.04
2.12
1.38
0.15
-0.96
-1.45
-1.14
-0.32
0.50
0.90
0.75
0.26
-0.15
-0.17
0.25
0.86
1.20
0.94
0.01
-1.25
-2.31
-2.64
-2.09
-0.89
0.38
1.12
1.04
0.28
-0.68
-1.29
-1.27
-0.73
-0.10
0.19
-0.05
-0.61
-1.00
-0.78
0.17
1.53
2.73
3.21
2.79
1.75
0.67
0.11
0.29
1.02
1.79
2.10
1.74
0.94
0.18
-0.06
0.37
1.20
1.92
2.05
1.45
0.36
-0.67
-1.15
-0.90
-0.11
0.73
1.18
1.03
0.44
-0.19
-0.47
-0.26
0.31
0.85
1.00
0.64
-0.09
-0.79
-1.03
-0.67
0.14
0.89
1.08
0.44
-0.84
-2.19
-3.02
-2.96
-2.16
-1.15
-0.55
-0.71
-1.51
-2.48
-3.08
-3.01
-2.37
-1.56
-0.96
-0.78
-0.89
-0.97
-0.71
-0.06
0.77
1.35
1.34
0.67
-0.41
-1.40
-1.84
-1.56
-0.75
0.12
0.63
0.61
0.29
0.07
0.30
1.03
1.97
2.64
2.63
1.89
0.68
-0.47
-1.09
-0.95
-0.18
0.80
1.55
1.76
1.49
1.03
0.82
1.07
1.75
2.45
2.75
2.40
1.55
0.67
0.28
0.61
1.43
2.23
2.45
1.87
0.75
-0.34
-0.86
-0.62
0.08
0.69
0.73
0.12
-0.81
-1.47
-1.45
-0.69
0.41
1.26
1.37
0.64
-0.61
-1.79
-2.41
-2.25
-1.48
-0.54
0.10
0.18
-0.23
-0.79
-1.09
-0.92
-0.37
0.17
0.30
-0.16
-0.96
-1.61
-1.60
-0.78
0.54
1.72
2.16
1.60
0.34
-0.98
-1.68
-1.47
-0.49
0.68
1.44
1.43
0.75
-0.14
-0.72
-0.68
-0.15
0.41
0.48
-0.16
-1.30
-2.40
-2.90
-2.54
-1.55
-0.50
0.08
-0.08
-0.78
-1.51
-1.79
-1.42
-0.58
0.26
0.70
0.57
0.09
-0.33
-0.34
0.13
0.86
1.44
1.57
1.24
0.75
0.52
0.83
1.68
2.70
3.43
3.49
2.84
1.78
0.79
0.28
0.41
0.97
1.53
1.65
1.11
0.07
-1.02
-1.66
-1.59
-0.91
-0.09
0.35
0.11
-0.67
-1.51
-1.89
-1.56
-0.76
0.00
0.20
-0.34
-1.33
-2.19
-2.41
-1.81
-0.71
0.31
0.74
0.37
-0.54
-1.48
-1.87
-1.50
-0.54
0.50
1.07
0.90
0.13
-0.77
-1.26
-1.03
-0.23
0.68
1.18
1.01
0.33
-0.41
-0.76
-0.52
0.04
0.44
0.22
-0.66
-1.83
-2.66
-2.66
-1.72
-0.27
1.02
1.55
1.12
0.07
-0.95
-1.34
-0.85
0.24
1.32
1.81
1.45
0.50
-0.46
-0.87
-0.48
0.43
1.31
1.63
1.23
0.37
-0.40
-0.65
-0.29
0.38
0.84
0.75
0.07
-0.80
-1.33
-1.12
-0.14
1.23
2.37
2.79
2.30
1.18
0.05
-0.55
-0.35
0.44
1.27
1.58
1.08
-0.04
-1.26
-2.00
-1.97
-1.29
-0.45
0.02
-0.13
-0.81
-1.53
-1.82
-1.43
-0.55
0.39
0.92
0.87
0.45
0.10
0.22
0.93
1.99
2.92
3.31
3.02
2.26
1.45
0.99
1.03
1.42
1.81
1.85
1.41
0.67
-0.01
-0.25
0.08
0.78
1.38
1.44
0.77
-0.39
-1.53
-2.09
-1.82
-0.89
0.21
0.86
0.71
-0.19
-1.43
-2.43
-2.75
-2.35
-1.56
-0.85
-0.60
-0.82
-1.19
-1.31
-0.99
-0.40
-0.03
-0.38
-1.57
-3.28
-4.78
-5.45
-5.03
-3.81
-2.47
-1.66
-1.63
-2.12
-2.57
-2.40
-1.46
-0.03
1.29
1.96
1.84
1.21
0.65
0.63
1.28
2.29
3.09
3.22
2.55
1.43
0.38
-0.12
0.07
0.73
1.37
1.59
1.25
0.57
-0.02
-0.11
0.39
1.23
1.89
1.92
1.20
0.06
-0.95
-1.27
-0.75
0.27
1.14
1.31
0.63
-0.57
-1.57
-1.79
-1.03
0.35
1.67
2.28
1.94
0.93
-0.16
-0.75
-0.64
-0.01
0.63
0.80
0.30
-0.69
-1.70
-2.25
-2.09
-1.35
-0.42
0.24
0.35
-0.03
-0.59
-0.91
-0.75
-0.19
0.41
0.63
0.23
-0.68
-1.63
-2.12
-1.86
-0.98
0.08
0.76
0.76
0.19
-0.49
-0.72
-0.22
0.83
1.89
2.35
1.89
0.70
-0.59
-1.31
-1.07
-0.01
1.27
2.12
2.12
1.36
0.31
-0.44
-0.54
-0.07
0.49
0.62
0.07
-1.00
-2.06
-2.54
-2.13
-1.01
0.25
1.03
0.99
0.28
-0.57
-0.99
-0.68
0.20
1.13
1.59
1.34
0.58
-0.20
-0.49
-0.07
0.85
1.81
2.33
2.17
1.48
0.70
0.28
0.46
1.12
1.84
2.15
1.77
0.81
-0.31
-1.08
-1.16
-0.61
0.17
0.68
0.61
0.01
-0.71
-1.11
-0.93
-0.34
0.21
0.22
-0.47
-1.60
-2.58
-2.81
-2.10
-0.75
0.57
1.21
0.90
-0.07
-1.12
-1.64
-1.36
-0.50
0.47
1.04
1.01
0.53
0.00
-0.19
0.15
0.88
1.61
1.89
1.52
0.61
-0.44
-1.12
-1.14
-0.56
0.17
0.56
0.27
-0.59
-1.60
-2.20
-2.04
-1.19
-0.06
0.81
1.08
0.75
0.15
-0.28
-0.24
0.26
0.87
1.16
0.85
0.01
-0.96
-1.53
-1.38
-0.62
0.31
0.82
0.58
-0.31
-1.39
-2.09
-2.10
-1.54
-0.87
-0.57
-0.87
-1.56
-2.13
-2.11
-1.31
-0.01
1.23
1.88
1.70
0.89
0.00
-0.41
-0.07
0.87
1.90
2.45
2.20
1.27
0.17
-0.55
-0.52
0.15
1.04
1.63
1.56
0.92
0.08
-0.48
-0.50
-0.01
0.67
1.15
1.22
0.92
0.54
0.39
0.62
1.11
1.53
1.53
0.94
-0.06
-1.06
-1.59
-1.43
-0.69
0.17
0.61
0.29
-0.70
-1.88
-2.63
-2.54
-1.62
-0.34
0.67
0.92
0.35
-0.63
-1.41
-1.53
-0.94
-0.01
0.72
0.85
0.38
-0.30
-0.67
-0.38
0.51
1.60
2.33
2.34
1.64
0.60
-0.25
-0.47
0.01
0.89
1.67
1.94
1.57
0.76
-0.03
-0.41
-0.27
0.14
0.41
0.20
-0.49
-1.32
-1.79
-1.60
-0.79
0.23
0.90
0.87
0.20
-0.67
-1.15
-0.92
-0.03
1.02
1.60
1.27
0.06
-1.54
-2.83
-3.24
-2.63
-1.37
-0.10
0.57
0.43
-0.31
-1.11
-1.46
-1.17
-0.45
0.26
0.57
0.36
-0.13
-0.51
-0.47
0.02
0.68
1.13
1.04
0.41
-0.47
-1.15
-1.25
-0.69
0.25
1.12
1.48
1.20
0.52
-0.13
-0.35
-0.03
0.59
1.06
1.03
0.49
-0.23
-0.65
-0.45
0.28
1.15
1.62
1.34
0.39
-0.84
-1.77
-2.00
-1.45
-0.47
0.39
0.64
0.13
-0.90
-1.90
-2.37
-2.07
-1.21
-0.32
0.07
-0.23
-0.95
-1.53
-1.48
-0.62
0.68
1.81
2.21
1.78
0.82
-0.02
-0.26
0.24
1.18
2.02
2.26
1.80
0.84
-0.10
-0.63
-0.61
-0.27
0.04
0.02
-0.36
-0.85
-1.09
-0.83
-0.12
0.70
1.20
1.08
0.38
-0.54
-1.15
-1.13
-0.43
0.55
1.28
1.34
0.69
-0.35
-1.25
-1.60
-1.30
-0.65
-0.12
-0.08
-0.55
-1.19
-1.53
-1.29
-0.52
0.33
0.72
0.37
-0.59
-1.62
-2.17
-1.92
-1.02
0.04
0.69
0.62
-0.09
-1.02
-1.69
-1.77
-1.21
-0.22
0.81
1.52
1.66
1.22
0.40
-0.44
-0.95
-0.94
-0.49
0.14
0.70
1.08
1.35
1.72
2.27
2.86
3.17
2.86
1.87
0.52
-0.67
-1.24
-1.01
-0.26
0.51
0.82
0.50
-0.23
-0.93
-1.17
-0.76
0.11
1.06
1.69
1.87
1.86
2.08
2.93
4.42
6.11
7.27
7.24
5.85
3.55
1.21
-0.34
-0.70
-0.11
0.79
1.29
1.12
0.52
0.07
0.27
1.20
2.39
3.09
2.76
1.37
-0.40
-1.52
-1.11
1.01
4.20
7.26
9.02
8.89
7.07
4.42
1.93
0.32
-0.18
0.19
1.13
2.42
4.03
5.95
7.94
9.57
10.38
10.18
9.37
8.82
9.53
12.04
15.98
20.06
22.52
21.92
17.84
11.05
3.24
-3.76
-8.67
-11.06
-11.21
-9.67
-6.76
-2.46
3.38
10.59
18.35
25.21
29.46
29.67
25.19
16.46
4.91
-7.31
-18.03
-25.59
-29.33
-29.63
-27.64
-24.61
-21.41
-18.21
-14.73
-10.74
-6.47
-2.80
-0.80
-1.20
-3.80
-7.59
-11.16
-13.39
-13.99
-13.49
-12.86
-12.86
-13.65
-14.73
-15.37
-15.06
-13.86
-12.37
-11.33
-11.19
-11.85
-12.70
-13.02
-12.39
-10.94
-9.26
-8.08
-7.83
-8.37
-9.13
-9.45
-9.00
-8.00
-7.08
-6.82
-7.35
-8.14
-8.26
-6.84
-3.56
1.17
6.35
10.92
14.17
15.92
16.54
16.57
16.57
16.92
17.84
19.36
21.23
22.82
23.20
21.39
16.88
10.12
2.71
-2.96
-4.59
-1.04
7.01
17.04
25.74
30.26
29.58
25.03
19.56
16.73
19.18
27.92
42.01
58.82
74.20
82.82
79.29
60.24
26.64
-15.03
-54.21
-80.16
-86.63
-74.69
-52.04
-28.97
-13.41
-7.71
-9.07
-12.61
-14.88
-15.62
-16.83
-20.35
-26.01
-31.46
-33.69
-31.14
-24.70
-17.22
-12.05
-11.21
-14.50
-19.70
-23.88
-24.79
-21.95
-16.64
-11.02
-6.95
-5.00
-4.28
-3.18
-0.45
3.91
8.62
11.80
12.05
9.21
4.52
-0.07
-2.78
-2.77
-0.28
3.75
8.23
12.32
15.40
16.99
16.61
13.97
9.24
3.29
-2.44
-6.49
-7.95
-6.96
-4.62
-2.47
-1.79
-2.98
-5.42
-8.02
-9.71
-10.06
-9.37
-8.39
-7.79
-7.82
-8.16
-8.23
-7.65
-6.44
-5.10
-4.26
-4.29
-5.07
-5.98
-6.24
-5.38
-3.45
-1.07
0.88
1.80
1.64
1.01
0.81
1.76
4.00
6.98
9.80
11.62
12.14
11.63
10.76
10.14
9.97
9.90
9.29
7.60
4.78
1.36
-1.77
-3.89
-4.83
-5.07
-5.53
-7.01
-9.75
-13.23
-16.45
-18.49
-18.99
-18.39
-17.65
-17.74
-19.05
-21.17
-23.01
-23.29
-21.05
-16.18
-9.41
-2.08
4.37
8.95
11.40
12.19
12.15
12.02
12.08
12.13
11.74
10.67
9.18
7.94
7.64
8.57
10.37
12.25
13.58
14.29
14.88
15.90
17.37
18.47
17.98
15.14
10.31
5.12
1.70
1.50
4.47
8.90
12.29
12.63
9.40
3.76
-2.02
-5.66
-5.87
-2.73
2.36
7.40
10.51
10.61
7.84
3.38
-1.05
-3.86
-4.18
-2.18
1.16
4.49
6.71
7.29
6.41
4.69
2.78
1.16
-0.07
-1.09
-2.33
-4.29
-7.69
-13.43
-22.29
-34.16
-47.12
-57.20
-59.56
-50.69
-30.91
-5.22
18.23
31.67
31.35
19.38
2.31
-12.30
-19.70
-19.68
-15.63
-11.77
-10.38
-10.88
-10.77
-7.79
-1.48
6.43
13.01
15.83
14.13
9.29
3.97
0.86
1.35
4.92
9.59
12.92
13.38
10.99
7.25
4.18
3.30
4.76
7.39
9.32
8.94
5.81
0.78
-4.35
-7.78
-8.45
-6.57
-3.38
-0.52
0.74
0.02
-2.09
-4.50
-6.27
-7.03
-7.05
-6.93
-7.09
-7.59
-8.14
-8.49
-8.75
-9.43
-11.14
-14.00
-17.32
-19.67
-19.55
-16.13
-9.74
-1.70
6.30
12.97
17.84
21.16
23.37
24.62
24.66
23.07
19.77
15.29
10.72
7.26
5.68
5.94
7.33
8.82
9.57
9.35
8.51
7.78
7.73
8.48
9.64
10.46
10.24
8.62
5.74
2.15
-1.46
-4.48
-6.62
-7.95
-8.78
-9.51
-10.42
-11.52
-12.53
-13.01
-12.55
-11.02
-8.67
-6.04
-3.72
-2.09
-1.22
-0.88
-0.79
-0.77
-0.81
-0.97
-1.22
-1.32
-0.97
-0.03
1.35
2.68
3.44
3.37
2.70
1.98
1.85
2.65
4.19
5.89
7.05
7.18
6.28
4.80
3.43
2.77
3.07
4.15
5.52
6.70
7.45
7.91
8.46
9.43
10.86
12.34
13.25
13.05
11.63
9.45
7.31
5.99
5.91
7.03
9.02
11.56
14.54
17.90
21.33
23.95
24.42
21.45
14.65
4.94
-5.46
-13.79
-17.89
-17.02
-12.10
-5.21
1.35
5.98
8.19
8.51
8.00
7.61
7.87
8.83
10.31
12.18
14.46
17.20
20.16
22.69
23.80
22.62
19.01
13.80
8.73
5.69
5.91
9.31
14.43
19.14
21.52
20.80
17.61
13.62
10.66
9.82
11.02
13.27
15.32
16.16
15.15
11.72
5.26
-4.70
-17.97
-33.28
-48.31
-60.47
-67.88
-70.08
-68.05
-63.49
-57.89
-52.01
-45.83
-39.01
-31.40
-23.16
-14.70
-6.49
1.03
7.44
12.23
15.03
15.66
14.26
11.36
7.67
3.88
0.47
-2.31
-4.35
-5.50
-5.62
-4.71
-3.04
-1.25
-0.25
-0.75
-2.89
-6.12
-9.35
-11.46
-11.90
-10.87
-9.30
-8.30
-8.60
-10.21
-12.41
-14.11
-14.30
-12.56
-9.10
-4.75
-0.62
2.27
3.11
1.52
-2.39
-7.85
-13.47
-17.50
-18.42
-15.54
-9.33
-1.34
6.43
12.18
14.82
14.19
10.94
6.23
1.44
-2.21
-4.02
-4.08
-3.35
-3.28
-5.15
-9.33
-15.02
-20.49
-23.63
-22.96
-18.00
-9.56
0.63
10.54
18.44
23.35
25.18
24.51
22.29
19.51
17.09
15.81
16.26
18.80
23.31
29.10
35.03
39.83
42.58
43.09
41.79
39.26
35.76
30.90
23.99
14.62
3.19
-8.80
-19.31
-26.53
-29.71
-29.48
-27.35
-24.96
-23.22
-22.11
-21.03
-19.50
-17.63
-16.07
-15.51
-16.12
-17.24
-17.73
-16.51
-13.12
-8.04
-2.39
2.50
5.73
7.02
6.65
5.23
3.35
1.42
-0.35
-1.91
-3.20
-4.17
-4.72
-4.78
-4.25
-3.18
-1.79
-0.44
0.38
0.41
-0.28
-1.11
-1.28
-0.11
2.52
6.00
9.22
11.07
10.97
9.16
6.48
3.99
2.37
1.72
1.57
1.30
0.50
-0.73
-1.94
-2.54
-2.25
-1.24
-0.07
0.56
0.28
-0.83
-2.16
-2.99
-2.88
-1.90
-0.67
0.08
-0.16
-1.33
-2.81
-3.81
-3.81
-2.82
-1.46
-0.53
-0.58
-1.60
-2.96
-3.83
-3.60
-2.32
-0.65
0.54
0.65
-0.27
-1.58
-2.43
-2.29
-1.23
0.05
0.72
0.28
-1.09
-2.62
-3.44
-3.02
-1.56
0.13
1.08
0.72
-0.75
-2.52
-3.57
-3.28
-1.80
0.05
1.22
1.01
-0.54
-2.72
-4.48
-5.05
-4.33
-2.88
-1.61
-1.25
-1.94
-3.19
-4.29
-4.83
-4.90
-4.92
-5.25
-5.76
-5.78
-4.55
-1.78
1.99
5.57
7.61
7.31
4.74
0.70
-3.67
-7.50
-10.43
-12.59
-14.41
-16.22
-18.07
-19.61
-20.14
-18.84
-15.08
-8.77
-0.52
8.39
16.37
22.05
24.81
24.94
23.41
21.58
20.50
20.84
22.80
26.15
29.98
32.54
31.21
23.20
7.02
-16.24
-42.42
-65.54
-79.97
-82.43
-72.94
-54.15
-30.02
-4.38
19.53
39.15
52.47
58.33
57.07
50.68
42.41
35.40
31.54
30.92
32.37
34.32
35.47
35.01
32.11
26.01
16.34
3.77
-9.82
-21.65
-29.16
-31.11
-28.17
-22.57
-16.94
-13.14
-11.58
-11.42
-11.42
-10.75
-9.48
-8.23
-7.59
-7.57
-7.61
-6.84
-4.73
-1.44
2.17
4.95
6.10
5.53
3.95
2.40
1.78
2.35
3.67
4.96
5.52
5.13
4.23
3.53
3.69
4.85
6.55
7.98
8.45
7.75
6.19
4.46
3.17
2.51
2.21
1.72
0.61
-1.21
-3.31
-5.07
-5.96
-5.86
-5.14
-4.48
-4.46
-5.26
-6.54
-7.62
-7.86
-7.03
-5.46
-3.84
-2.90
-2.92
-3.66
-4.49
-4.76
-4.18
-3.01
-1.88
-1.39
-1.84
-3.01
-4.33
-5.14
-5.13
-4.46
-3.65
-3.27
-3.51
-4.09
-4.39
-3.87
-2.40
-0.42
1.34
2.26
2.25
1.83
1.80
2.73
4.58
6.59
7.74
7.33
5.40
2.86
1.03
0.96
2.90
6.03
8.91
10.14
9.10
6.25
2.87
0.43
-0.16
1.11
3.41
5.49
6.30
5.46
3.29
0.63
-1.60
-2.85
-3.13
-2.83
-2.36
-1.91
-1.38
-0.84
-0.78
-2.08
-5.42
-10.56
-15.97
-19.35
-18.78
-13.87
-6.15
1.62
6.86
8.40
6.84
3.99
1.60
0.52
0.43
0.37
-0.48
-2.30
-4.52
-6.20
-6.57
-5.44
-3.32
-1.21
-0.13
-0.58
-2.30
-4.37
-5.70
-5.58
-4.01
-1.73
0.24
1.08
0.65
-0.49
-1.38
-1.17
0.45
3.05
5.68
7.36
7.53
6.38
4.68
3.37
3.06
3.69
4.62
5.04
4.52
3.20
1.79
1.07
1.48
2.75
4.12
4.70
4.05
2.39
0.51
-0.70
-0.71
0.33
1.71
2.60
2.46
1.37
-0.08
-1.19
-1.49
-1.05
-0.38
-0.07
-0.47
-1.45
-2.55
-3.21
-3.12
-2.40
-1.56
-1.15
-1.49
-2.42
-3.41
-3.87
-3.44
-2.28
-0.94
-0.07
-0.08
-0.91
-2.09
-3.01
-3.32
-3.05
-2.61
-2.47
-2.91
-3.81
-4.74
-5.21
-4.94
-4.05
-2.97
-2.19
-2.00
-2.31
-2.69
-2.60
-1.75
-0.24
1.39
2.50
2.64
1.81
0.55
-0.36
-0.21
1.22
3.57
6.06
7.86
8.47
8.03
7.13
6.47
6.46
6.98
7.48
7.38
6.51
5.20
4.11
3.79
4.28
4.99
5.09
3.99
1.71
-1.02
-3.19
-4.08
-3.59
-2.35
-1.30
-1.17
-2.09
-3.57
-4.82
-5.18
-4.51
-3.20
-1.85
-0.92
-0.47
-0.18
0.30
1.12
2.03
2.54
2.24
1.09
-0.52
-1.98
-2.81
-2.93
-2.70
-2.66
-3.16
-4.17
-5.20
-5.66
-5.17
-3.79
-2.06
-0.65
-0.09
-0.46
-1.42
-2.40
-2.91
-2.81
-2.29
-1.77
-1.62
-2.00
-2.74
-3.48
-3.80
-3.48
-2.61
-1.53
-0.67
-0.29
-0.34
-0.45
-0.21
0.67
2.06
3.50
4.41
4.41
3.57
2.32
1.32
1.02
1.46
2.26
2.93
3.11
2.80
2.32
2.07
2.27
2.82
3.35
3.46
2.98
2.07
1.14
0.66
0.89
1.78
2.99
4.02
4.47
4.18
3.34
2.36
1.65
1.40
1.48
1.54
1.24
0.48
-0.51
-1.27
-1.41
-0.86
0.09
0.93
1.21
0.83
0.06
-0.66
-0.96
-0.79
-0.44
-0.35
-0.80
-1.75
-2.84
-3.57
-3.62
-3.04
-2.20
-1.62
-1.66
-2.36
-3.37
-4.18
-4.32
-3.70
-2.61
-1.59
-1.16
-1.48
-2.33
-3.16
-3.51
-3.18
-2.42
-1.71
-1.44
-1.69
-2.18
-2.44
-2.16
-1.34
-0.34
0.38
0.55
0.20
-0.33
-0.61
-0.38
0.32
1.16
1.72
1.75
1.28
0.65
0.28
0.50
1.26
2.23
2.90
2.94
2.34
1.48
0.87
0.84
1.38
2.08
2.43
2.10
1.21
0.19
-0.41
-0.26
0.48
1.34
1.76
1.47
0.62
-0.29
-0.76
-0.51
0.31
1.22
1.74
1.58
0.90
0.11
-0.34
-0.13
0.68
1.73
2.54
2.74
2.25
1.33
0.43
-0.03
0.10
0.63
1.11
1.14
0.59
-0.34
-1.15
-1.45
-1.14
-0.46
0.12
0.25
-0.12
-0.76
-1.26
-1.35
-1.07
-0.68
-0.55
-0.90
-1.64
-2.46
-2.99
-3.03
-2.66
-2.17
-1.91
-2.03
-2.42
-2.73
-2.60
-1.91
-0.81
0.31
1.02
1.13
0.80
0.39
0.30
0.71
1.46
2.14
2.36
1.95
1.12
0.32
0.01
0.43
1.45
2.63
3.45
3.61
3.11
2.28
1.56
1.32
1.62
2.23
2.73
2.78
2.27
1.37
0.49
-0.04
-0.11
0.08
0.15
-0.23
-1.08
-2.10
-2.82
-2.90
-2.33
-1.48
-0.83
-0.74
-1.20
-1.84
-2.14
-1.79
-0.83
0.35
1.20
1.36
0.82
-0.09
-0.88
-1.22
-1.05
-0.66
-0.46
-0.76
-1.55
-2.53
-3.23
-3.24
-2.53
-1.35
-0.21
0.47
0.52
0.15
-0.24
-0.27
0.18
0.90
1.53
1.75
1.50
0.99
0.56
0.50
0.82
1.29
1.58
1.43
0.82
-0.00
-0.63
-0.78
-0.39
0.30
0.89
1.05
0.74
0.19
-0.16
0.03
0.77
1.71
2.33
2.24
1.42
0.22
-0.77
-1.12
-0.75
-0.00
0.60
0.64
0.08
-0.75
-1.37
-1.42
-0.88
-0.10
0.46
0.46
-0.12
-0.94
-1.53
-1.50
-0.83
0.11
0.79
0.81
0.12
-0.91
-1.71
-1.81
-1.13
-0.05
0.85
1.07
0.53
-0.41
-1.16
-1.24
-0.57
0.47
1.24
1.29
0.55
-0.56
-1.43
-1.59
-0.99
-0.02
0.79
1.07
0.82
0.43
0.34
0.80
1.63
2.33
2.40
1.60
0.14
-1.42
-2.48
-2.64
-1.92
-0.69
0.49
1.15
1.16
0.70
0.15
-0.10
0.11
0.63
1.14
1.37
1.18
0.71
0.26
0.07
0.16
0.39
0.47
0.20
-0.36
-0.94
-1.18
-0.88
-0.09
0.84
1.44
1.40
0.72
-0.24
-0.99
-1.11
-0.54
0.41
1.21
1.41
0.89
-0.12
-1.11
-1.62
-1.47
-0.84
-0.16
0.21
0.11
-0.28
-0.63
-0.62
-0.20
0.41
0.81
0.72
0.12
-0.68
-1.22
-1.17
-0.50
0.43
1.09
1.03
0.19
-1.11
-2.26
-2.73
-2.31
-1.29
-0.24
0.27
0.03
-0.77
-1.55
-1.76
-1.18
-0.03
1.16
1.85
1.84
1.35
0.89
0.87
1.38
2.13
2.62
2.50
1.77
0.78
0.03
-0.14
0.28
0.98
1.54
1.65
1.29
0.70
0.21
0.08
0.28
0.60
0.70
0.38
-0.29
-1.00
-1.31
-0.99
-0.12
0.84
1.36
1.07
0.06
-1.22
-2.16
-2.35
-1.80
-0.91
-0.23
-0.14
-0.65
-1.39
-1.85
-1.73
-1.04
-0.15
0.44
0.46
-0.05
-0.73
-1.10
-0.92
-0.25
0.56
1.04
0.94
0.29
-0.59
-1.25
-1.38
-0.93
-0.20
0.40
0.49
0.01
-0.82
-1.54
-1.75
-1.31
-0.47
0.31
0.63
0.37
-0.18
-0.52
-0.20
0.85
2.26
3.45
3.88
3.45
2.42
1.36
0.75
0.72
1.02
1.24
1.03
0.34
-0.50
-1.14
-1.28
-0.99
-0.56
-0.36
-0.62
-1.30
-2.11
-2.65
-2.62
-1.96
-0.85
0.30
1.12
1.40
1.19
0.79
0.58
0.76
1.29
1.88
2.17
1.97
1.38
0.72
0.39
0.56
1.08
1.61
1.76
1.42
0.81
0.33
0.36
0.93
1.75
2.30
2.22
1.47
0.43
-0.36
-0.50
0.04
0.87
1.43
1.29
0.42
-0.84
-1.95
-2.48
-2.31
-1.72
-1.15
-1.01
-1.42
-2.15
-2.73
-2.73
-2.01
-0.82
0.31
0.80
0.40
-0.70
-1.94
-2.68
-2.54
-1.64
-0.47
0.43
0.84
0.89
0.99
1.40
2.04
2.48
2.22
1.06
-0.77
-2.67
-4.04
-4.57
-4.37
-3.86
-3.45
-3.27
-3.14
-2.69
-1.63
0.04
1.94
3.48
4.17
3.83
2.78
1.71
1.28
1.78
2.95
4.11
4.51
3.79
2.12
0.18
-1.26
-1.72
-1.19
-0.09
1.00
1.63
1.73
1.51
1.33
1.43
1.83
2.28
2.48
2.22
1.58
0.87
0.54
0.87
1.76
2.72
3.05
2.26
0.34
-2.11
-4.24
-5.30
-5.10
-4.02
-2.81
-2.04
-1.83
-1.77
-1.29
-0.05
1.75
3.44
4.31
4.00
2.72
1.16
0.12
0.09
1.05
2.50
3.78
4.36
4.14
3.35
2.45
1.77
1.38
1.07
0.58
-0.29
-1.51
-2.80
-3.82
-4.33
-4.27
-3.82
-3.26
-2.89
-2.84
-3.03
-3.21
-3.10
-2.54
-1.64
-0.76
-0.29
-0.49
-1.33
-2.54
-3.72
-4.57
-5.04
-5.22
-5.32
-5.42
-5.51
-5.50
-5.34
-5.14
-5.06
-5.27
-5.68
-5.88
-5.30
-3.50
-0.62
2.48
4.44
4.05
0.98
-3.90
-8.77
-11.82
-12.08
-9.95
-7.04
-5.29
-6.09
-9.85
-15.95
-23.14
-29.74
-33.80
-33.44
-27.49
-16.23
-1.65
12.89
24.01
29.60
29.56
25.52
19.70
13.71
8.05
2.47
-3.23
-8.55
-12.37
-13.57
-11.70
-7.29
-1.59
4.06
8.67
11.93
14.19
16.13
18.54
21.95
26.53
32.03
37.79
42.90
46.30
47.08
44.58
38.66
29.79
19.01
7.76
-2.48
-10.49
-15.55
-17.50
-16.70
-13.82
-9.70
-5.14
-0.84
2.61
4.73
5.16
3.81
1.01
-2.50
-5.70
-7.68
-8.00
-6.93
-5.27
-3.99
-3.66
-4.20
-4.94
-5.15
-4.40
-2.89
-1.31
-0.41
-0.54
-1.53
-2.70
-3.38
-3.18
-2.28
-1.22
-0.68
-1.01
-2.12
-3.55
-4.66
-5.07
-4.76
-4.06
-3.49
-3.49
-4.23
-5.57
-7.14
-8.49
-9.33
-9.57
-9.35
-8.98
-8.74
-8.86
-9.37
-10.18
-10.94
-11.13
-10.08
-7.23
-2.52
3.44
9.34
13.60
14.95
13.10
8.88
4.03
0.43
-0.77
0.40
2.74
4.58
4.59
2.64
-0.27
-2.31
-1.56
3.10
11.54
22.08
31.62
36.21
32.13
17.21
-7.87
-39.02
-69.43
-91.66
-100.30
-94.05
-76.07
-52.40
-29.29
-10.61
2.90
12.91
21.49
29.53
36.32
40.47
41.26
39.59
37.82
38.60
43.47
52.15
62.48
71.23
75.24
72.33
61.92
45.24
24.89
4.22
-13.56
-26.36
-33.57
-36.00
-35.17
-32.49
-28.78
-24.32
-19.27
-14.10
-9.67
-6.94
-6.39
-7.71
-9.86
-11.47
-11.44
-9.47
-6.02
-2.13
1.12
3.05
3.53
3.00
2.18
1.75
2.06
3.06
4.32
5.23
5.31
4.42
2.83
1.12
-0.07
-0.35
0.22
1.12
1.61
1.15
-0.35
-2.44
-4.36
-5.44
-5.41
-4.58
-3.55
-2.95
-3.11
-3.91
-4.93
-5.69
-5.87
-5.50
-4.87
-4.34
-4.21
-4.51
-5.07
-5.58
-5.79
-5.57
-5.05
-4.50
-4.21
-4.40
-5.09
-6.13
-7.31
-8.42
-9.21
-9.34
-8.36
-5.85
-1.81
3.10
7.60
10.23
10.05
7.16
2.75
-1.49
-4.15
-4.74
-3.82
-2.53
-2.07
-3.10
-5.63
-9.17
-12.90
-15.89
-17.29
-16.51
-13.44
-8.53
-2.62
3.40
8.87
13.54
17.43
20.47
22.36
22.56
20.60
16.60
11.41
6.57
3.71
3.96
7.36
12.77
18.20
21.62
21.69
18.29
12.46
5.88
0.09
-4.09
-6.63
-7.97
-8.58
-8.59
-7.87
-6.29
-4.02
-1.67
0.04
0.55
-0.18
-1.64
-3.07
-3.79
-3.59
-2.63
-1.41
-0.36
0.27
0.51
0.55
0.58
0.62
0.59
0.37
-0.05
-0.58
-1.03
-1.21
-1.09
-0.75
-0.37
-0.11
-0.02
-0.07
-0.11
-0.04
0.20
0.53
0.84
1.02
1.10
1.20
1.54
2.23
3.18
4.12
4.72
4.80
4.50
4.27
4.64
5.78
7.61
9.51
10.92
11.68
12.09
12.94
14.91
18.20
22.29
26.11
28.55
28.84
26.72
22.37
16.17
8.59
0.13
-8.56
-16.59
-22.96
-26.89
-28.01
-26.65
-23.67
-20.21
-17.33
-15.69
-15.41
-16.09
-17.00
-17.36
-16.83
-15.34
-13.33
-11.42
-10.00
-9.25
-9.01
-8.98
-8.88
-8.58
-8.05
-7.29
-6.22
-4.71
-2.72
-0.45
1.63
2.87
2.79
1.31
-1.12
-3.63
-5.29
-5.54
-4.35
-2.27
-0.06
1.58
2.36
2.37
1.97
1.55
1.27
1.10
0.81
0.22
-0.68
-1.71
-2.56
-2.92
-2.70
-2.07
-1.36
-0.95
-0.97
-1.26
-1.48
-1.32
-0.69
0.18
0.91
1.19
0.99
0.56
0.31
0.62
1.49
2.68
3.68
4.05
3.61
2.56
1.39
0.62
0.56
1.18
2.15
2.96
3.23
2.85
2.02
1.12
0.51
0.38
0.59
0.87
0.91
0.59
0.08
-0.29
-0.20
0.40
1.25
1.87
1.90
1.28
0.31
-0.47
-0.68
-0.27
0.44
0.95
0.93
0.41
-0.24
-0.61
-0.45
0.14
0.81
1.22
1.18
0.87
0.63
0.75
1.29
2.03
2.59
2.61
2.02
1.02
-0.00
-0.66
-0.77
-0.40
0.10
0.39
0.24
-0.32
-1.01
-1.45
-1.39
-0.84
-0.10
0.43
0.48
0.06
-0.53
-0.90
-0.78
-0.24
0.39
0.67
0.35
-0.51
-1.53
-2.26
-2.38
-1.90
-1.10
-0.38
-0.07
-0.23
-0.67
-1.09
-1.26
-1.19
-1.08
-1.24
-1.79
-2.59
-3.27
-3.40
-2.79
-1.57
-0.21
0.81
1.18
0.96
0.49
0.22
0.43
1.09
1.92
2.54
2.72
2.47
2.04
1.71
1.70
1.97
2.28
2.32
1.89
1.04
0.05
-0.66
-0.80
-0.31
0.54
1.31
1.61
1.30
0.58
-0.18
-0.59
-0.51
-0.13
0.17
0.06
-0.49
-1.23
-1.71
-1.65
-1.04
-0.23
0.36
0.47
0.12
-0.35
-0.54
-0.22
0.51
1.31
1.77
1.67
1.08
0.33
-0.19
-0.24
0.13
0.63
0.92
0.74
0.14
-0.62
-1.15
-1.20
-0.79
-0.17
0.27
0.26
-0.18
-0.78
-1.13
-0.99
-0.41
0.30
0.73
0.63
0.07
-0.59
-0.94
-0.72
-0.04
0.76
1.24
1.11
0.44
-0.46
-1.17
-1.43
-1.21
-0.80
-0.52
-0.64
-1.14
-1.78
-2.18
-2.09
-1.45
-0.53
0.28
0.66
0.50
0.04
-0.32
-0.20
0.45
1.36
2.08
2.19
1.60
0.62
-0.25
-0.64
-0.45
0.02
0.34
0.19
-0.43
-1.19
-1.66
-1.54
-0.81
0.20
1.05
1.41
1.24
0.77
0.36
0.28
0.57
1.04
1.38
1.34
0.90
0.25
-0.34
-0.58
-0.42
0.01
0.48
0.71
0.61
0.23
-0.25
-0.63
-0.80
-0.79
-0.75
-0.82
-1.02
-1.23
-1.22
-0.84
-0.14
0.62
1.08
1.02
0.44
-0.35
-0.92
-0.95
-0.41
0.43
1.17
1.52
1.41
1.05
0.76
0.77
1.08
1.49
1.68
1.43
0.76
-0.07
-0.67
-0.74
-0.23
0.57
1.25
1.40
0.92
0.05
-0.73
-0.98
-0.55
0.33
1.16
1.44
0.97
-0.04
-1.08
-1.68
-1.57
-0.93
-0.15
0.28
0.15
-0.46
-1.18
-1.66
-1.72
-1.48
-1.29
-1.42
-1.89
-2.43
-2.63
-2.17
-1.06
0.30
1.39
1.78
1.43
0.68
0.06
-0.03
0.45
1.22
1.80
1.88
1.40
0.59
-0.14
-0.51
-0.45
-0.13
0.16
0.15
-0.19
-0.71
-1.13
-1.22
-0.94
-0.46
-0.09
-0.10
-0.56
-1.28
-1.91
-2.08
-1.63
-0.70
0.33
1.08
1.32
1.12
0.83
0.82
1.29
2.11
2.91
3.30
3.10
2.44
1.69
1.22
1.15
1.32
1.38
1.04
0.26
-0.73
-1.54
-1.85
-1.58
-0.91
-0.20
0.26
0.31
0.09
-0.17
-0.21
0.03
0.40
0.64
0.54
0.10
-0.41
-0.66
-0.44
0.17
0.83
1.13
0.84
0.07
-0.79
-1.32
-1.30
-0.79
-0.18
0.12
-0.13
-0.88
-1.77
-2.40
-2.43
-1.87
-0.96
-0.11
0.32
0.24
-0.16
-0.54
-0.58
-0.20
0.45
1.07
1.38
1.31
0.97
0.58
0.33
0.27
0.32
0.34
0.25
0.05
-0.19
-0.33
-0.31
-0.08
0.23
0.51
0.58
0.40
0.03
-0.35
-0.53
-0.40
0.01
0.45
0.67
0.50
0.01
-0.51
-0.71
-0.40
0.33
1.13
1.59
1.44
0.76
-0.06
-0.60
-0.60
-0.15
0.39
0.64
0.41
-0.16
-0.68
-0.77
-0.32
0.46
1.14
1.33
0.91
0.09
-0.69
-1.07
-0.89
-0.26
0.46
0.95
1.01
0.67
0.14
-0.37
-0.69
-0.81
-0.84
-0.90
-0.98
-0.98
-0.73
-0.12
0.77
1.68
2.27
2.30
1.69
0.68
-0.35
-0.97
-0.93
-0.28
0.71
1.61
2.11
2.08
1.67
1.20
0.95
0.99
1.14
1.12
0.70
-0.08
-0.97
-1.56
-1.60
-1.18
-0.61
-0.35
-0.65
-1.45
-2.36
-2.89
-2.71
-1.89
-0.76
0.21
0.68
0.63
0.26
-0.12
-0.34
-0.45
-0.58
-0.83
-1.14
-1.32
-1.13
-0.52
0.35
1.15
1.51
1.22
0.32
-0.84
-1.83
-2.22
-1.85
-0.95
-0.00
0.41
-0.04
-1.24
-2.58
-3.31
-2.89
-1.32
0.78
2.56
3.28
2.79
1.54
0.38
0.01
0.68
2.02
3.24
3.49
2.24
-0.41
-3.82
-6.97
-8.86
-8.89
-7.13
-4.32
-1.56
0.07
0.03
-1.42
-3.35
-4.45
-3.67
-0.71
3.70
8.03
10.51
9.96
6.41
1.25
-3.31
-5.17
-3.44
1.00
5.67
7.14
2.28
-10.54
-30.59
-54.36
-75.82
-87.42
-82.22
-56.45
-11.86
43.66
97.66
136.86
151.58
139.14
104.54
58.30
12.26
-24.41
-47.39
-57.01
-56.28
-48.57
-36.35
-21.26
-4.97
10.04
20.75
24.69
21.07
11.51
-0.37
-10.48
-16.00
-16.31
-12.99
-8.76
-6.07
-5.98
-7.90
-10.16
-11.00
-9.56
-6.25
-2.40
0.40
1.18
-0.06
-2.41
-4.56
-5.44
-4.65
-2.49
0.24
2.65
4.09
4.35
3.60
2.20
0.61
-0.81
-1.71
-1.90
-1.32
-0.13
1.30
2.56
3.36
3.64
3.56
3.33
3.09
2.82
2.42
1.81
1.11
0.57
0.42
0.78
1.55
2.44
3.12
3.34
2.99
2.15
1.05
-0.01
-0.77
-1.11
-1.10
-0.94
-0.87
-0.99
-1.26
-1.48
-1.47
-1.18
-0.73
-0.32
-0.10
-0.07
-0.11
-0.06
0.14
0.38
0.47
0.26
-0.26
-0.93
-1.56
-1.93
-2.05
-1.99
-1.90
-1.91
-2.13
-2.57
-3.20
-4.01
-4.89
-5.75
-6.43
-6.80
-6.84
-6.61
-6.26
-5.97
-5.78
-5.62
-5.23
-4.35
-2.84
-0.85
1.26
3.09
4.38
5.12
5.56
6.00
6.59
7.24
7.65
7.64
7.21
6.61
6.14
5.96
6.02
6.12
6.11
6.09
6.26
6.76
7.43
7.71
6.89
4.55
0.81
-3.51
-7.32
-9.71
-10.40
-9.75
-8.57
-7.63
-7.30
-7.53
-7.95
-8.14
-7.83
-6.95
-5.54
-3.76
-1.76
0.23
1.97
3.21
3.88
4.06
3.99
3.92
3.90
3.84
3.52
2.76
1.64
0.39
-0.65
-1.33
-1.80
-2.45
-3.69
-5.78
-8.68
-12.19
-16.10
-20.31
-24.74
-29.17
-33.10
-35.88
-37.03
-36.50
-34.62
-31.69
-27.62
-21.80
-13.60
-2.99
8.98
20.29
28.80
33.14
33.34
30.78
27.51
25.43
25.69
28.47
33.07
38.23
42.36
44.00
42.18
36.74
28.48
18.82
9.38
1.47
-4.16
-7.40
-8.48
-7.89
-6.20
-4.08
-2.28
-1.49
-2.10
-4.08
-6.96
-9.97
-12.40
-13.87
-14.38
-14.26
-13.91
-13.64
-13.55
-13.66
-13.96
-14.50
-15.27
-16.14
-16.77
-16.71
-15.54
-13.12
-9.74
-6.13
-3.24
-1.93
-2.54
-4.68
-7.30
-9.11
-9.13
-7.18
-3.91
-0.49
1.99
3.01
2.80
2.06
1.52
1.68
2.59
4.09
5.87
7.66
9.20
10.31
10.81
10.64
9.90
8.82
7.68
6.69
5.85
4.92
3.42
0.72
-3.81
-10.30
-17.79
-24.06
-26.37
-22.76
-13.17
0.33
14.32
25.47
31.84
33.26
30.96
26.55
21.39
16.37
12.06
9.04
7.70
8.08
9.68
11.59
12.92
13.10
12.09
10.00
7.11
3.88
1.04
-0.68
-0.80
0.60
2.86
5.03
6.29
6.40
5.67
4.73
4.16
4.15
4.54
4.91
4.89
4.32
3.29
2.08
0.98
0.17
-0.30
-0.49
-0.46
-0.28
0.05
0.58
1.29
2.00
2.37
1.99
0.66
-1.50
-3.97
-6.09
-7.34
-7.64
-7.33
-6.91
-6.78
-6.99
-7.28
-7.35
-6.97
-6.18
-5.13
-4.07
-3.15
-2.45
-2.00
-1.78
-1.75
-1.82
-1.89
-1.90
-1.89
-1.94
-2.09
-2.32
-2.47
-2.45
-2.24
-2.00
-1.99
-2.40
-3.24
-4.29
-5.24
-5.84
-6.08
-6.16
-6.38
-6.92
-7.76
-8.72
-9.54
-10.18
-10.85
-11.99
-14.17
-17.74
-22.74
-28.67
-34.62
-39.39
-41.74
-40.78
-36.27
-28.81
-19.77
-10.94
-3.92
0.32
1.75
1.11
-0.48
-2.14
-3.61
-5.17
-7.40
-10.59
-14.46
-18.15
-20.68
-21.47
-20.89
-20.24
-21.29
-25.57
-33.54
-44.30
-55.62
-64.48
-67.54
-61.98
-46.17
-20.63
11.67
45.57
75.17
95.65
104.89
103.93
96.10
85.34
74.60
65.21
57.25
50.40
44.63
40.18
37.15
35.06
33.02
30.15
26.12
21.41
17.01
14.02
13.08
14.30
17.18
20.93
24.56
27.05
27.53
25.43
20.75
14.15
6.86
0.31
-4.31
-6.47
-6.45
-5.11
-3.51
-2.60
-2.88
-4.45
-7.04
-10.08
-12.86
-14.71
-15.18
-14.26
-12.39
-10.27
-8.51
-7.36
-6.58
-5.64
-4.11
-1.82
0.99
3.87
6.31
7.90
8.36
7.53
5.34
1.92
-2.34
-6.87
-10.95
-13.95
-15.58
-15.90
-15.28
-14.14
-12.81
-11.35
-9.74
-7.94
-6.02
-4.21
-2.75
-1.85
-1.63
-2.09
-3.06
-4.32
-5.49
-6.10
-5.75
-4.28
-1.91
0.82
3.20
4.71
5.21
4.89
4.13
3.24
2.37
1.50
0.57
-0.35
-1.14
-1.68
-1.95
-2.10
-2.32
-2.75
-3.35
-3.94
-4.25
-4.06
-3.33
-2.18
-0.87
0.26
0.99
1.23
1.08
0.67
0.14
-0.44
-1.06
-1.67
-2.14
-2.29
-1.96
-1.15
-0.07
0.95
1.61
1.78
1.58
1.25
1.03
1.01
1.10
1.21
1.32
1.57
2.12
3.01
4.00
4.62
4.35
2.88
0.30
-3.01
-6.41
-9.29
-11.21
-11.90
-11.39
-9.89
-7.72
-5.34
-3.10
-1.30
0.02
0.90
1.44
1.67
1.55
1.03
0.20
-0.70
-1.37
-1.51
-1.05
-0.15
0.88
1.67
2.05
2.02
1.77
1.48
1.26
1.08
0.79
0.27
-0.46
-1.25
-1.85
-2.04
-1.77
-1.15
-0.44
0.10
0.33
0.25
0.07
0.02
0.28
0.84
1.58
2.25
2.68
2.86
2.90
2.96
3.14
3.38
3.52
3.40
2.97
2.35
1.76
1.38
1.24
1.18
1.00
0.52
-0.20
-0.98
-1.52
-1.65
-1.38
-0.95
-0.67
-0.79
-1.34
-2.17
-3.00
-3.61
-3.94
-4.12
-4.32
-4.65
-5.03
-5.21
-4.87
-3.79
-1.98
0.31
2.62
4.47
5.52
5.63
4.96
3.80
2.48
1.26
0.17
-0.81
-1.80
-2.81
-3.74
-4.36
-4.49
-4.08
-3.28
-2.41
-1.75
-1.39
-1.19
-0.91
-0.40
0.26
0.87
1.27
1.51
1.86
2.63
3.93
5.49
6.77
7.26
6.78
5.54
4.05
2.84
2.18
2.06
2.27
2.65
3.22
4.16
5.77
8.21
11.37
14.94
18.40
21.26
23.01
23.31
22.01
19.26
15.35
10.56
5.05
-1.15
-7.89
-14.64
-20.51
-24.42
-25.56
-23.87
-20.10
-15.49
-11.16
-7.65
-4.99
-3.00
-1.81
-1.90
-3.75
-7.23
-11.42
-14.90
-16.26
-14.85
-10.98
-5.78
-0.64
3.28
5.38
5.62
4.40
2.44
0.62
-0.16
0.79
3.62
7.62
11.42
13.41
12.35
8.32
2.70
-2.38
-4.77
-3.24
2.00
9.61
17.72
24.46
28.44
28.99
26.43
22.06
17.75
15.24
15.10
16.20
16.10
12.15
2.86
-11.08
-26.70
-39.63
-45.55
-41.94
-29.20
-10.83
7.77
21.23
26.38
23.43
15.43
6.63
0.30
-2.82
-4.09
-5.42
-7.72
-10.19
-11.06
-9.09
-4.58
0.69
4.44
5.17
2.80
-1.34
-5.32
-7.54
-7.44
-5.63
-3.45
-2.33
-2.98
-5.16
-7.80
-9.60
-9.68
-8.02
-5.39
-2.98
-1.74
-1.99
-3.39
-5.14
-6.49
-6.99
-6.64
-5.78
-4.85
-4.25
-4.20
-4.67
-5.47
-6.25
-6.65
-6.40
-5.42
-3.89
-2.11
-0.44
0.81
1.49
1.62
1.30
0.75
0.18
-0.21
-0.33
-0.17
0.12
0.31
0.23
-0.21
-0.91
-1.65
-2.22
-2.53
-2.59
-2.54
-2.49
-2.43
-2.23
-1.76
-0.94
0.09
1.08
1.71
1.78
1.34
0.66
0.09
-0.05
0.32
1.02
1.70
2.01
1.75
0.99
-0.03
-1.02
-1.76
-2.23
-2.52
-2.71
-2.82
-2.72
-2.24
-1.25
0.18
1.81
3.28
4.25
4.54
4.14
3.21
1.98
0.61
-0.81
-2.20
-3.48
-4.43
-4.81
-4.38
-3.09
-1.17
0.88
2.57
3.50
3.61
3.14
2.45
1.90
1.64
1.62
1.61
1.39
0.82
-0.11
-1.23
-2.26
-2.87
-2.83
-2.13
-0.94
0.30
1.18
1.39
0.96
0.22
-0.32
-0.17
0.92
2.94
5.61
8.62
11.65
14.52
17.09
19.25
20.84
21.71
21.76
21.01
19.62
17.81
15.81
13.89
12.28
11.27
11.23
12.59
15.51
19.46
22.92
23.67
19.56
9.67
-4.97
-21.49
-36.27
-46.40
-50.82
-50.41
-47.14
-42.79
-38.15
-33.04
-27.10
-20.60
-14.66
-10.76
-9.81
-11.57
-14.69
-17.30
-17.86
-15.78
-11.64
-6.86
-3.13
-1.81
-3.41
-7.36
-11.95
-14.70
-13.17
-5.95
6.44
21.24
34.29
41.58
40.91
32.89
20.90
10.43
7.63
17.57
42.53
80.62
125.62
168.31
199.06
210.81
200.99
171.77
128.73
78.89
29.01
-15.28
-49.81
-72.08
-81.72
-80.84
-73.57
-64.74
-58.03
-54.73
-53.70
-52.54
-49.22
-43.36
-36.46
-31.03
-29.35
-32.39
-39.48
-48.77
-58.18
-66.19
-71.72
-73.76
-70.77
-61.22
-44.61
-22.69
0.47
19.69
30.93
33.01
27.94
19.61
11.63
5.77
1.61
-2.49
-7.94
-14.94
-22.41
-28.81
-33.03
-35.05
-35.74
-36.29
-37.32
-38.27
-37.51
-33.04
-23.63
-9.66
6.73
22.40
34.41
41.12
42.78
41.05
38.12
35.57
33.62
31.13
26.36
18.11
6.66
-5.99
-16.91
-23.46
-24.59
-21.31
-16.22
-12.28
-11.53
-14.45
-20.06
-26.61
-32.30
-35.64
-35.55
-31.25
-22.31
-8.96
7.59
25.11
40.84
52.20
57.67
57.04
51.24
41.70
29.82
16.74
3.37
-9.31
-20.25
-28.55
-33.78
-36.22
-36.61
-35.85
-34.65
-33.46
-32.67
-32.86
-34.60
-37.99
-41.90
-43.85
-40.70
-30.04
-11.67
11.68
35.08
53.25
62.58
62.61
55.77
45.91
36.45
29.15
24.00
20.24
17.32
15.25
14.16
13.47
11.77
7.27
-1.13
-13.01
-26.48
-38.95
-48.33
-53.73
-55.43
-53.98
-49.48
-41.27
-28.58
-11.58
7.96
26.83
41.41
49.01
48.96
42.77
33.35
23.86
16.58
12.25
10.19
8.91
6.86
3.13
-2.33
-8.88
-15.69
-22.25
-28.60
-35.22
-42.57
-50.49
-57.77
-62.16
-60.87
-51.49
-33.06
-6.80
23.92
54.43
80.15
97.97
106.93
107.81
102.16
91.24
75.77
56.49
34.88
13.42
-5.01
-18.49
-27.05
-32.75
-38.51
-46.54
-57.04
-68.27
-77.54
-82.52
-82.10
-76.25
-65.37
-49.77
-29.82
-6.55
17.82
40.20
57.51
68.01
71.85
70.73
66.58
60.34
51.57
39.08
22.37
2.73
-16.86
-32.81
-42.67
-46.29
-45.88
-45.06
-47.23
-54.05
-64.59
-75.33
-81.12
-76.79
-59.15
-28.62
10.32
50.20
83.00
103.02
108.67
102.61
89.80
74.92
60.49
46.64
32.44
17.68
3.71
-7.23
-13.55
-15.72
-16.36
-19.00
-26.14
-38.12
-53.04
-68.00
-80.51
-89.25
-93.72
-93.21
-86.28
-71.09
-46.79
-14.67
21.38
55.95
83.99
102.45
110.79
110.32
102.84
89.60
71.20
48.33
22.64
-2.90
-24.72
-39.80
-46.90
-46.96
-42.59
-37.07
-33.32
-33.24
-37.35
-44.72
-52.96
-58.55
-57.53
-46.85
-25.85
3.01
34.58
62.76
82.72
92.42
92.66
85.77
73.98
58.43
39.42
17.50
-5.49
-26.44
-41.91
-49.74
-49.99
-44.96
-38.15
-32.76
-30.69
-32.29
-36.79
-43.12
-50.21
-56.83
-61.19
-60.71
-52.61
-35.26
-9.49
20.97
50.46
73.46
86.72
90.31
86.89
79.94
71.78
62.74
51.59
37.08
19.28
0.08
-17.55
-30.82
-38.39
-40.83
-40.27
-39.37
-40.23
-43.60
-48.80
-54.01
-56.81
-54.75
-45.94
-29.49
-6.15
21.52
49.42
72.89
88.02
92.81
87.57
74.43
56.35
36.06
15.69
-3.14
-19.00
-30.47
-36.54
-37.09
-33.38
-27.88
-23.62
-23.20
-28.06
-38.07
-51.73
-66.59
-79.66
-87.77
-87.93
-78.00
-57.56
-28.54
4.79
36.90
62.83
79.95
88.75
92.13
93.50
94.86
95.82
94.04
86.71
72.20
51.07
25.90
0.41
-21.82
-38.41
-48.69
-53.67
-55.51
-56.52
-58.38
-61.47
-64.82
-66.41
-63.82
-55.05
-39.16
-16.76
9.83
36.97
60.46
76.78
84.04
82.49
74.14
61.81
48.06
34.35
20.96
7.41
-6.79
-21.41
-35.40
-47.18
-55.26
-58.96
-58.82
-56.49
-54.29
-54.42
-58.24
-65.78
-75.30
-83.53
-86.08
-78.73
-58.85
-26.85
13.31
55.15
91.62
117.38
130.22
130.89
122.02
106.63
87.16
65.32
42.42
19.74
-1.26
-19.15
-32.75
-41.43
-45.20
-44.93
-42.17
-38.94
-37.10
-37.65
-40.24
-43.29
-44.53
-41.76
-33.62
-19.99
-2.18
17.30
35.31
48.99
56.61
58.06
54.63
48.19
40.17
31.13
20.96
9.59
-2.20
-12.72
-19.96
-22.69
-21.24
-17.68
-15.02
-16.06
-22.37
-33.80
-48.76
-64.83
-79.14
-88.67
-90.34
-81.46
-60.68
-29.12
9.10
47.69
79.95
101.10
109.75
107.88
99.56
88.77
77.79
66.73
54.19
38.65
19.83
-0.91
-20.92
-37.39
-48.61
-54.74
-57.81
-60.77
-66.05
-73.90
-81.80
-84.95
-78.13
-58.20
-25.94
13.68
53.00
84.42
103.09
108.14
102.11
88.96
72.08
53.27
33.28
12.93
-6.01
-21.05
-30.18
-32.99
-31.14
-27.62
-25.47
-26.71
-31.89
-40.51
-51.62
-64.18
-76.97
-88.10
-94.65
-93.10
-80.59
-56.38
-23.02
13.85
47.25
71.47
84.31
87.63
86.02
84.22
84.91
87.68
89.79
87.79
79.16
63.22
41.12
15.41
-10.92
-35.02
-55.04
-70.48
-82.10
-91.14
-98.01
-101.52
-98.80
-86.73
-63.73
-31.35
5.74
41.23
69.50
87.50
95.34
95.23
89.68
80.19
67.00
50.08
30.37
10.14
-7.72
-21.12
-29.88
-35.71
-41.18
-48.39
-58.12
-69.99
-83.22
-96.89
-109.85
-120.13
-124.64
-119.60
-102.00
-71.06
-29.19
18.19
64.16
102.29
128.58
142.17
144.85
139.60
128.89
113.77
94.00
69.20
40.20
9.66
-18.48
-40.34
-53.78
-59.21
-59.29
-57.93
-58.83
-64.18
-73.97
-85.73
-94.98
-96.30
-84.88
-58.46
-18.69
28.71
75.48
113.41
136.86
144.09
136.93
119.24
95.19
68.31
41.26
16.17
-5.29
-22.11
-34.23
-42.60
-48.75
-54.15
-59.76
-65.99
-73.05
-81.05
-89.76
-98.11
-103.96
-104.29
-96.11
-77.75
-49.78
-15.18
21.53
55.62
83.60
103.87
116.59
122.74
123.07
117.70
106.25
88.64
65.79
39.83
13.73
-9.54
-27.83
-40.35
-47.55
-50.91
-52.38
-53.89
-57.02
-62.40
-69.26
-75.07
-75.97
-68.00
-48.97
-19.93
14.59
47.92
73.63
87.97
90.89
85.21
74.61
61.71
47.37
31.43
14.02
-3.39
-18.28
-28.12
-31.82
-30.33
-26.28
-22.92
-22.70
-26.66
-34.24
-43.96
-54.19
-63.58
-70.97
-74.77
-72.81
-62.64
-42.73
-13.76
20.75
55.09
83.06
100.07
104.53
97.94
83.69
65.43
45.80
26.23
7.61
-9.04
-22.34
-31.06
-35.08
-35.87
-36.30
-39.57
-47.78
-60.70
-75.23
-86.10
-87.44
-74.84
-47.33
-8.18
35.68
75.84
105.01
119.28
118.82
106.99
88.41
67.12
45.66
25.27
6.56
-9.83
-23.11
-32.64
-38.35
-40.94
-41.69
-42.29
-44.44
-49.60
-58.45
-70.50
-83.65
-94.32
-98.28
-91.80
-73.10
-43.25
-6.17
32.28
66.14
91.10
105.53
110.36
108.05
101.07
91.00
78.37
63.23
45.92
27.55
9.76
-5.75
-17.99
-27.13
-34.36
-41.57
-50.68
-62.76
-77.36
-92.12
-102.92
-104.61
-92.44
-63.81
-19.83
34.09
88.93
134.37
161.52
165.73
147.85
113.80
72.51
33.04
1.98
-18.01
-28.08
-31.84
-33.34
-35.61
-40.00
-46.64
-55.51
-67.05
-82.04
-100.50
-120.54
-137.73
-146.27
-141.10
-119.80
-83.51
-36.14
17.20
71.45
122.00
164.34
194.03
207.58
203.97
185.75
158.60
129.41
103.43
82.39
64.60
46.49
25.08
-0.47
-28.99
-58.28
-86.68
-113.36
-137.78
-158.45
-172.24
-174.61
-160.99
-128.89
-79.83
-20.15
40.05
89.49
119.28
125.92
112.36
86.60
58.29
34.99
19.88
11.53
5.85
-1.07
-10.93
-22.70
-33.85
-42.31
-47.89
-52.48
-58.98
-69.57
-84.17
-99.76
-111.12
-112.59
-100.25
-73.44
-35.17
8.92
52.38
89.80
118.04
136.31
145.81
148.65
146.96
142.05
134.08
122.02
104.20
79.40
47.94
12.24
-23.51
-54.73
-78.30
-93.80
-103.75
-112.07
-121.79
-133.18
-143.02
-145.66
-135.28
-108.52
-66.23
-13.71
40.62
87.67
120.11
134.21
130.29
111.98
84.70
54.04
24.63
-0.45
-19.57
-32.36
-39.24
-41.28
-39.95
-37.09
-34.64
-34.30
-37.41
-44.75
-56.31
-70.84
-85.77
-97.24
-100.71
-92.28
-70.12
-35.64
6.57
49.81
87.29
114.15
128.50
131.39
125.50
113.82
98.49
80.68
60.98
40.14
19.46
0.77
-14.21
-24.56
-30.63
-34.07
-37.21
-42.23
-50.14
-60.07
-69.29
-73.95
-70.51
-57.40
-35.97
-10.33
14.09
32.69
43.38
47.13
46.90
45.80
45.35
45.08
43.24
38.27
29.72
18.39
5.67
-7.18
-19.34
-30.35
-39.85
-47.56
-53.73
-59.41
-66.11
-74.97
-85.59
-95.33
-99.85
-94.47
-76.19
-45.17
-5.10
37.86
77.02
107.18
125.86
133.40
131.92
123.93
111.24
94.73
74.74
51.87
27.58
4.13
-16.03
-31.11
-40.69
-45.79
-48.50
-51.20
-55.90
-63.55
-73.63
-83.93
-90.74
-89.65
-77.21
-52.50
-18.11
20.27
55.76
82.67
98.10
102.17
96.86
84.45
66.73
45.26
22.01
-0.22
-18.45
-30.61
-36.47
-37.63
-36.57
-35.50
-35.61
-37.24
-40.56
-46.07
-54.56
-66.33
-80.21
-93.12
-100.50
-97.60
-81.22
-51.01
-9.86
36.79
82.48
121.39
149.28
164.01
165.23
154.04
132.65
104.11
71.99
39.95
11.19
-12.03
-28.64
-38.84
-43.88
-45.64
-46.25
-47.65
-51.23
-57.40
-65.42
-73.14
-77.29
-74.33
-61.76
-39.50
-10.49
19.83
45.32
61.32
66.20
61.59
51.17
38.94
27.74
18.71
11.64
5.67
0.00
-5.77
-11.57
-17.02
-21.64
-25.24
-28.09
-31.10
-35.60
-42.85
-53.39
-66.45
-79.66
-89.24
-90.81
-80.75
-57.73
-23.70
16.38
56.01
89.29
112.63
125.18
128.09
123.20
112.27
96.75
78.12
58.09
38.43
20.50
4.92
-8.31
-19.39
-28.47
-35.59
-41.13
-46.07
-51.86
-59.47
-68.48
-76.43
-79.27
-72.81
-54.77
-26.20
8.23
41.68
67.53
81.66
83.67
76.30
63.86
50.43
38.75
29.97
23.84
19.04
13.62
5.58
-6.35
-21.96
-39.44
-56.19
-70.01
-80.28
-88.09
-95.27
-102.94
-110.45
-115.18
-113.44
-101.89
-78.87
-45.23
-4.22
39.11
79.24
111.53
133.20
143.60
143.73
135.39
120.41
100.33
76.56
50.77
25.05
1.73
-17.25
-30.82
-39.19
-43.70
-46.34
-49.26
-54.29
-62.38
-73.17
-84.64
-93.10
-93.83
-82.63
-57.55
-20.28
23.82
67.17
102.34
124.36
131.73
126.10
110.76
89.28
64.73
39.39
14.96
-7.35
-26.85
-43.30
-56.76
-67.35
-75.18
-80.75
-85.17
-90.26
-97.55
-107.31
-117.79
-125.36
-125.97
-116.68
-96.64
-66.87
-29.37
13.47
58.80
102.94
141.38
169.55
184.30
184.97
173.48
153.20
127.29
97.72
65.45
31.55
-1.75
-31.06
-52.92
-65.55
-69.84
-69.29
-68.67
-71.94
-80.62
-92.90
-103.77
-106.66
-95.95
-69.34
-29.40
16.98
60.79
94.09
112.55
116.28
108.59
93.82
75.49
55.67
35.57
16.43
-0.24
-13.16
-22.09
-28.15
-33.28
-39.20
-46.44
-54.45
-62.34
-69.82
-77.38
-85.64
-94.26
-101.25
-103.27
-96.88
-80.10
-53.40
-19.57
17.29
53.13
84.83
110.28
128.09
137.18
136.91
127.59
110.83
89.33
66.14
43.73
23.49
5.83
-9.32
-21.92
-31.70
-38.51
-42.85
-45.97
-49.60
-54.88
-61.33
-66.49
-66.55
-58.09
-39.89
-14.04
14.44
39.63
56.95
64.91
64.99
60.18
53.05
44.67
34.86
23.29
10.51
-2.00
-12.54
-20.15
-25.05
-28.37
-31.41
-35.05
-39.72
