1539435365.00
64.000000
-0.00
-0.00
-0.00
-0.00
-0.00
-0.00
-0.00
-0.00
-0.00
-0.01
-0.00
0.00
0.01
0.01
-0.00
-0.03
-0.05
-0.05
-0.00
0.13
0.36
0.66
1.01
1.37
1.72
2.06
2.41
2.78
3.24
3.80
4.42
5.09
5.75
6.37
6.96
7.54
8.12
8.86
9.75
10.77
11.84
12.88
13.84
14.76
15.77
16.96
18.69
20.97
23.70
26.67
29.63
32.41
35.06
37.83
40.97
45.11
50.31
56.41
63.03
69.68
76.06
82.12
88.21
94.67
102.40
111.53
121.93
133.09
144.39
155.31
165.72
176.88
186.59
196.81
208.39
222.48
239.72
259.38
278.66
292.94
296.99
286.62
261.04
222.24
174.75
123.64
72.77
23.96
-22.74
-68.02
-112.57
-156.26
-199.35
-242.01
-284.16
-324.65
-360.75
-388.52
-404.16
-405.60
-393.29
-370.60
-342.12
-312.29
-284.12
-258.83
-236.28
-215.82
-196.95
-179.30
-162.77
-147.09
-131.95
-117.10
-102.55
-88.59
-75.66
-64.19
-54.28
-45.77
-38.22
-31.15
-24.18
-17.20
-10.38
-4.07
1.38
5.75
9.05
11.53
13.57
15.50
17.52
19.58
21.50
23.02
24.01
24.45
24.50
24.38
24.25
24.19
24.15
24.03
23.74
23.28
22.70
22.07
21.43
20.80
20.15
19.48
18.82
18.18
17.59
17.03
16.44
15.78
15.05
14.34
13.74
13.34
13.10
12.93
12.68
12.27
11.73
11.14
10.65
10.33
10.20
10.17
10.11
9.93
9.57
9.10
8.60
8.17
7.88
7.75
7.75
7.84
7.98
8.12
8.24
8.32
8.32
8.20
7.95
7.57
7.07
6.54
6.03
5.62
5.36
5.25
5.25
5.28
5.23
5.04
4.66
4.13
3.53
3.00
2.62
2.45
2.47
2.55
2.58
2.44
2.09
1.55
0.94
0.36
-0.10
-0.43
-0.69
-0.93
-1.21
-1.53
-1.85
-2.14
-2.40
-2.67
-3.01
-3.39
-3.74
-3.94
-3.93
-3.74
-3.50
-3.35
-3.35
-3.48
-3.60
-3.61
-3.45
-3.22
-2.98
-2.81
-2.65
-2.39
-1.97
-1.40
-0.82
-0.38
-0.14
-0.08
-0.04
0.09
0.32
0.56
0.67
0.62
0.46
0.37
0.49
0.86
1.41
1.97
2.41
2.66
2.74
2.72
2.66
2.60
2.53
2.45
2.37
2.30
2.27
2.28
2.31
2.35
2.38
2.41
2.47
2.57
2.69
2.80
2.84
2.80
2.70
2.62
2.64
2.78
3.02
3.28
3.47
3.54
3.44
3.21
2.87
2.50
2.16
1.93
1.88
2.01
2.23
2.45
2.55
2.46
2.23
1.93
1.65
1.46
1.36
1.34
1.39
1.48
1.62
1.77
1.91
1.97
1.94
1.84
1.73
1.69
1.76
1.92
2.07
2.12
2.00
1.71
1.33
0.98
0.77
0.72
0.81
0.95
1.06
1.10
1.10
1.12
1.22
1.41
1.62
1.74
1.64
1.31
0.85
0.42
0.20
0.26
0.55
0.90
1.15
1.22
1.13
1.01
0.98
1.12
1.38
1.63
1.72
1.57
1.20
0.73
0.34
0.13
0.14
0.28
0.43
0.46
0.33
0.08
-0.17
-0.31
-0.29
-0.12
0.12
0.34
0.51
0.60
0.64
0.66
0.67
0.65
0.59
0.49
0.39
0.36
0.48
0.75
1.11
1.43
1.62
1.60
1.39
1.03
0.62
0.24
-0.05
-0.19
-0.14
0.08
0.44
0.83
1.14
1.26
1.21
1.04
0.85
0.74
0.71
0.73
0.74
0.72
0.68
0.62
0.56
0.46
0.30
0.08
-0.16
-0.36
-0.49
-0.51
-0.45
-0.30
-0.10
0.14
0.41
0.67
0.88
0.99
0.95
0.75
0.43
0.06
-0.26
-0.42
-0.36
-0.12
0.20
0.49
0.66
0.72
0.72
0.71
0.69
0.62
0.44
0.16
-0.15
-0.39
-0.46
-0.33
-0.02
0.39
0.80
1.15
1.38
1.45
1.35
1.14
0.90
0.72
0.66
0.69
0.73
0.70
0.57
0.36
0.14
-0.04
-0.16
-0.24
-0.30
-0.34
-0.35
-0.32
-0.23
-0.09
0.09
0.28
0.46
0.62
0.71
0.69
0.57
0.37
0.15
-0.03
-0.14
-0.20
-0.22
-0.23
-0.25
-0.29
-0.35
-0.44
-0.53
-0.60
-0.61
-0.51
-0.29
0.01
0.31
0.53
0.61
0.57
0.47
0.40
0.40
0.46
0.52
0.53
0.50
0.47
0.50
0.61
0.75
0.86
0.88
0.81
0.72
0.69
0.76
0.89
1.01
1.03
0.89
0.62
0.27
-0.09
-0.36
-0.47
-0.37
-0.08
0.31
0.64
0.80
0.71
0.39
-0.03
-0.41
-0.65
-0.69
-0.56
-0.32
-0.03
0.23
0.40
0.42
0.28
0.03
-0.23
-0.39
-0.39
-0.25
-0.08
0.05
0.11
0.12
0.15
0.25
0.37
0.42
0.34
0.12
-0.15
-0.37
-0.45
-0.41
-0.30
-0.22
-0.19
-0.20
-0.23
-0.25
-0.26
-0.28
-0.29
-0.25
-0.09
0.19
0.57
0.93
1.13
1.10
0.85
0.48
0.13
-0.09
-0.14
-0.07
0.03
0.06
-0.01
-0.14
-0.27
-0.30
-0.15
0.19
0.65
1.10
1.40
1.45
1.25
0.89
0.51
0.25
0.14
0.14
0.15
0.10
-0.02
-0.15
-0.21
-0.17
-0.07
0.02
0.03
-0.04
-0.13
-0.19
-0.20
-0.20
-0.26
-0.43
-0.70
-0.98
-1.15
-1.14
-0.96
-0.73
-0.59
-0.66
-0.88
-1.15
-1.30
-1.19
-0.85
-0.38
0.06
0.35
0.46
0.47
0.49
0.57
0.72
0.89
1.01
1.05
1.04
0.99
0.95
0.88
0.76
0.58
0.33
0.07
-0.16
-0.31
-0.36
-0.31
-0.20
-0.04
0.11
0.24
0.30
0.31
0.29
0.30
0.38
0.55
0.74
0.87
0.89
0.75
0.51
0.23
-0.03
-0.20
-0.30
-0.32
-0.26
-0.13
0.06
0.25
0.36
0.30
0.04
-0.35
-0.73
-0.95
-0.92
-0.68
-0.34
-0.01
0.26
0.47
0.65
0.79
0.84
0.73
0.48
0.19
-0.01
0.00
0.20
0.47
0.65
0.63
0.43
0.12
-0.18
-0.39
-0.49
-0.50
-0.43
-0.29
-0.13
-0.01
0.02
-0.04
-0.17
-0.24
-0.19
-0.02
0.15
0.20
0.02
-0.33
-0.69
-0.87
-0.78
-0.47
-0.08
0.20
0.28
0.18
-0.02
-0.21
-0.35
-0.43
-0.45
-0.41
-0.27
-0.04
0.22
0.44
0.50
0.40
0.19
-0.00
-0.05
0.07
0.28
0.46
0.53
0.47
0.38
0.35
0.41
0.51
0.57
0.50
0.30
0.06
-0.11
-0.12
0.02
0.19
0.26
0.17
-0.10
-0.44
-0.74
-0.91
-0.92
-0.81
-0.63
-0.43
-0.25
-0.11
-0.02
0.02
0.03
0.05
0.13
0.25
0.39
0.45
0.36
0.11
-0.26
-0.63
-0.87
-0.89
-0.70
-0.37
-0.01
0.28
0.43
0.48
0.46
0.43
0.41
0.38
0.30
0.18
0.05
0.00
0.08
0.28
0.53
0.71
0.75
0.63
0.40
0.16
0.02
0.04
0.20
0.43
0.62
0.68
0.53
0.21
-0.21
-0.61
-0.88
-0.99
-0.94
-0.79
-0.58
-0.37
-0.18
-0.05
-0.02
-0.06
-0.17
-0.29
-0.38
-0.41
-0.36
-0.25
-0.06
0.18
0.44
0.65
0.75
0.71
0.54
0.32
0.15
0.07
0.07
0.09
0.07
-0.03
-0.17
-0.28
-0.30
-0.20
-0.01
0.22
0.42
0.55
0.58
0.49
0.31
0.05
-0.25
-0.54
-0.78
-0.89
-0.83
-0.56
-0.15
0.33
0.73
0.95
0.94
0.71
0.35
-0.03
-0.36
-0.59
-0.71
-0.71
-0.57
-0.28
0.19
0.78
1.37
1.83
2.02
1.85
1.37
0.70
0.02
-0.52
-0.82
-0.86
-0.70
-0.42
-0.12
0.10
0.19
0.14
0.01
-0.10
-0.13
-0.07
0.01
0.04
-0.05
-0.22
-0.42
-0.56
-0.61
-0.58
-0.55
-0.53
-0.53
-0.48
-0.36
-0.20
-0.06
-0.02
-0.11
-0.26
-0.40
-0.47
-0.44
-0.38
-0.35
-0.39
-0.46
-0.47
-0.36
-0.13
0.15
0.37
0.44
0.34
0.16
0.01
-0.03
0.09
0.31
0.57
0.77
0.88
0.90
0.82
0.65
0.40
0.11
-0.17
-0.35
-0.38
-0.27
-0.06
0.12
0.19
0.13
-0.05
-0.26
-0.43
-0.49
-0.42
-0.23
0.01
0.23
0.33
0.27
0.05
-0.23
-0.44
-0.49
-0.39
-0.21
-0.06
0.01
0.01
0.01
0.05
0.16
0.26
0.31
0.27
0.16
0.05
0.00
0.05
0.16
0.28
0.33
0.28
0.11
-0.11
-0.29
-0.37
-0.32
-0.16
0.03
0.18
0.25
0.25
0.21
0.15
0.10
0.05
0.02
0.04
0.12
0.24
0.35
0.36
0.25
0.03
-0.25
-0.54
-0.79
-0.98
-1.06
-1.00
-0.81
-0.54
-0.24
0.01
0.18
0.31
0.42
0.51
0.54
0.46
0.26
0.01
-0.19
-0.22
-0.06
0.23
0.54
0.78
0.91
0.91
0.78
0.52
0.18
-0.17
-0.44
-0.53
-0.44
-0.24
-0.04
0.01
-0.13
-0.41
-0.69
-0.82
-0.69
-0.30
0.22
0.69
0.93
0.87
0.61
0.32
0.17
0.23
0.39
0.50
0.41
0.10
-0.31
-0.67
-0.87
-0.93
-0.92
-0.91
-0.91
-0.83
-0.64
-0.32
0.06
0.39
0.62
0.74
0.82
0.89
0.99
1.08
1.12
1.09
0.96
0.76
0.51
0.25
0.03
-0.09
-0.06
0.08
0.27
0.39
0.38
0.20
-0.06
-0.28
-0.38
-0.33
-0.19
-0.06
-0.02
-0.09
-0.19
-0.25
-0.21
-0.12
-0.03
-0.01
-0.07
-0.15
-0.19
-0.17
-0.12
-0.11
-0.17
-0.32
-0.49
-0.60
-0.64
-0.61
-0.59
-0.64
-0.79
-0.96
-1.05
-0.97
-0.71
-0.34
0.01
0.24
0.29
0.22
0.10
0.02
0.01
0.08
0.21
0.42
0.69
0.98
1.21
1.26
1.08
0.70
0.24
-0.13
-0.33
-0.35
-0.25
-0.09
0.07
0.24
0.41
0.57
0.65
0.60
0.40
0.08
-0.26
-0.55
-0.75
-0.85
-0.87
-0.84
-0.73
-0.53
-0.25
0.05
0.32
0.49
0.56
0.54
0.50
0.49
0.49
0.47
0.36
0.16
-0.12
-0.39
-0.55
-0.51
-0.27
0.10
0.47
0.69
0.67
0.40
-0.03
-0.46
-0.74
-0.79
-0.62
-0.32
0.02
0.28
0.43
0.42
0.25
-0.05
-0.44
-0.81
-1.05
-1.05
-0.79
-0.34
0.15
0.53
0.69
0.64
0.44
0.22
0.04
-0.07
-0.11
-0.12
-0.13
-0.16
-0.16
-0.13
-0.04
0.10
0.26
0.36
0.37
0.25
0.03
-0.23
-0.43
-0.46
-0.32
-0.04
0.25
0.43
0.42
0.23
-0.06
-0.34
-0.51
-0.52
-0.36
-0.08
0.20
0.40
0.46
0.39
0.23
0.04
-0.16
-0.36
-0.58
-0.78
-0.90
-0.84
-0.56
-0.11
0.38
0.73
0.84
0.72
0.50
0.34
0.30
0.37
0.46
0.50
0.49
0.46
0.46
0.47
0.46
0.36
0.14
-0.14
-0.42
-0.61
-0.67
-0.61
-0.45
-0.23
-0.02
0.12
0.18
0.12
-0.02
-0.22
-0.42
-0.55
-0.57
-0.43
-0.18
0.13
0.36
0.44
0.32
0.08
-0.17
-0.31
-0.26
-0.07
0.20
0.45
0.65
0.78
0.85
0.80
0.59
0.23
-0.24
-0.69
-1.00
-1.08
-0.96
-0.69
-0.38
-0.11
0.09
0.22
0.31
0.37
0.42
0.44
0.44
0.42
0.37
0.27
0.14
-0.02
-0.15
-0.21
-0.18
-0.08
0.03
0.09
0.09
0.05
0.01
0.01
0.05
0.11
0.15
0.19
0.24
0.32
0.46
0.61
0.73
0.79
0.73
0.56
0.25
-0.18
-0.69
-1.17
-1.48
-1.48
-1.15
-0.57
0.08
0.57
0.78
0.67
0.37
0.02
-0.23
-0.34
-0.32
-0.23
-0.12
-0.01
0.12
0.26
0.42
0.55
0.60
0.52
0.34
0.13
0.00
0.06
0.30
0.62
0.88
0.95
0.78
0.42
0.01
-0.33
-0.52
-0.55
-0.48
-0.40
-0.37
-0.44
-0.60
-0.81
-0.99
-1.04
-0.94
-0.71
-0.42
-0.17
-0.00
0.06
0.08
0.06
0.02
-0.09
-0.24
-0.43
-0.57
-0.59
-0.44
-0.16
0.18
0.47
0.63
0.64
0.55
0.44
0.41
0.54
0.82
1.18
1.49
1.61
1.41
0.85
0.06
-0.74
-1.30
-1.44
-1.16
-0.60
-0.04
0.28
0.28
0.00
-0.39
-0.76
-0.99
-1.10
-1.09
-1.01
-0.89
-0.73
-0.54
-0.34
-0.13
0.08
0.27
0.43
0.54
0.58
0.58
0.55
0.48
0.35
0.14
-0.16
-0.47
-0.69
-0.71
-0.52
-0.22
0.02
0.07
-0.08
-0.31
-0.44
-0.31
0.09
0.64
1.14
1.43
1.44
1.18
0.77
0.29
-0.15
-0.50
-0.70
-0.72
-0.56
-0.26
0.09
0.39
0.56
0.55
0.40
0.13
-0.19
-0.48
-0.66
-0.64
-0.40
0.04
0.54
0.95
1.13
1.04
0.78
0.48
0.25
0.13
0.07
-0.01
-0.14
-0.31
-0.46
-0.54
-0.51
-0.40
-0.24
-0.05
0.17
0.41
0.63
0.76
0.71
0.47
0.10
-0.25
-0.43
-0.34
-0.02
0.38
0.67
0.75
0.61
0.33
0.05
-0.16
-0.31
-0.45
-0.61
-0.80
-0.95
-0.99
-0.91
-0.75
-0.60
-0.51
-0.49
-0.50
-0.43
-0.25
0.06
0.42
0.76
0.97
1.01
0.87
0.61
0.31
0.08
-0.04
-0.05
0.01
0.08
0.11
0.13
0.16
0.21
0.25
0.22
0.03
-0.32
-0.74
-1.08
-1.18
-1.00
-0.65
-0.30
-0.13
-0.19
-0.43
-0.74
-0.98
-1.12
-1.15
-1.09
-0.93
-0.63
-0.14
0.50
1.17
1.68
1.88
1.70
1.21
0.53
-0.12
-0.61
-0.81
-0.71
-0.34
0.21
0.82
1.35
1.67
1.71
1.45
0.96
0.39
-0.11
-0.40
-0.45
-0.26
0.06
0.39
0.59
0.60
0.39
0.04
-0.34
-0.63
-0.74
-0.67
-0.51
-0.36
-0.30
-0.33
-0.37
-0.33
-0.17
0.05
0.21
0.21
0.05
-0.18
-0.33
-0.31
-0.18
-0.06
-0.08
-0.27
-0.52
-0.67
-0.57
-0.22
0.25
0.65
0.83
0.75
0.49
0.17
-0.07
-0.19
-0.19
-0.10
0.03
0.15
0.23
0.27
0.25
0.20
0.14
0.08
0.02
-0.07
-0.21
-0.34
-0.42
-0.38
-0.23
-0.05
0.05
-0.00
-0.19
-0.41
-0.55
-0.53
-0.35
-0.10
0.12
0.22
0.21
0.14
0.08
0.07
0.11
0.16
0.17
0.11
-0.02
-0.17
-0.29
-0.34
-0.29
-0.18
-0.05
0.01
-0.04
-0.18
-0.33
-0.39
-0.30
-0.07
0.20
0.42
0.52
0.49
0.35
0.19
0.03
-0.08
-0.14
-0.13
-0.07
0.03
0.14
0.23
0.31
0.35
0.38
0.39
0.40
0.41
0.44
0.48
0.56
0.68
0.82
0.94
1.02
1.02
0.93
0.75
0.51
0.24
0.04
-0.05
-0.00
0.13
0.26
0.30
0.18
-0.09
-0.43
-0.76
-1.00
-1.11
-1.14
-1.12
-1.09
-1.04
-0.93
-0.74
-0.48
-0.23
-0.06
-0.03
-0.13
-0.26
-0.32
-0.23
-0.01
0.25
0.44
0.45
0.27
-0.06
-0.44
-0.74
-0.88
-0.82
-0.59
-0.28
0.03
0.24
0.34
0.35
0.32
0.29
0.26
0.22
0.13
0.04
0.01
0.09
0.32
0.64
0.94
1.06
0.93
0.55
0.05
-0.42
-0.71
-0.73
-0.53
-0.19
0.13
0.34
0.36
0.22
0.01
-0.15
-0.15
0.01
0.30
0.57
0.72
0.65
0.37
-0.04
-0.47
-0.82
-1.05
-1.15
-1.14
-1.05
-0.88
-0.61
-0.28
0.04
0.25
0.24
-0.01
-0.42
-0.81
-1.03
-0.97
-0.63
-0.15
0.31
0.62
0.70
0.60
0.41
0.24
0.18
0.27
0.45
0.66
0.82
0.88
0.86
0.76
0.61
0.40
0.18
0.00
-0.05
0.06
0.31
0.60
0.79
0.83
0.74
0.60
0.51
0.49
0.51
0.47
0.32
0.08
-0.20
-0.46
-0.62
-0.69
-0.69
-0.64
-0.61
-0.59
-0.61
-0.62
-0.60
-0.51
-0.36
-0.17
0.01
0.11
0.13
0.06
-0.07
-0.24
-0.43
-0.62
-0.76
-0.80
-0.74
-0.55
-0.27
0.06
0.36
0.61
0.75
0.79
0.72
0.56
0.34
0.13
-0.01
-0.06
-0.02
0.05
0.06
-0.06
-0.29
-0.54
-0.67
-0.58
-0.24
0.26
0.76
1.06
1.06
0.77
0.29
-0.20
-0.56
-0.72
-0.71
-0.58
-0.40
-0.17
0.10
0.35
0.53
0.54
0.34
-0.01
-0.42
-0.72
-0.84
-0.75
-0.54
-0.32
-0.15
-0.08
-0.07
-0.05
-0.00
0.09
0.21
0.35
0.50
0.69
0.87
1.03
1.08
0.95
0.64
0.22
-0.15
-0.33
-0.29
-0.10
0.08
0.12
-0.00
-0.20
-0.34
-0.29
-0.07
0.22
0.45
0.50
0.35
0.06
-0.26
-0.54
-0.71
-0.74
-0.63
-0.43
-0.17
0.08
0.29
0.42
0.49
0.49
0.40
0.18
-0.18
-0.65
-1.08
-1.29
-1.17
-0.69
0.03
0.77
1.30
1.48
1.29
0.84
0.27
-0.26
-0.64
-0.83
-0.81
-0.63
-0.34
0.01
0.32
0.53
0.57
0.43
0.13
-0.20
-0.40
-0.35
-0.02
0.45
0.86
1.00
0.79
0.33
-0.17
-0.53
-0.65
-0.61
-0.54
-0.52
-0.54
-0.50
-0.33
-0.04
0.23
0.33
0.20
-0.09
-0.35
-0.45
-0.32
-0.03
0.29
0.51
0.58
0.53
0.43
0.37
0.36
0.42
0.49
0.50
0.40
0.14
-0.24
-0.67
-1.03
-1.20
-1.14
-0.89
-0.58
-0.32
-0.18
-0.14
-0.10
0.03
0.26
0.51
0.66
0.61
0.36
0.02
-0.25
-0.33
-0.19
0.09
0.37
0.53
0.52
0.41
0.28
0.19
0.20
0.27
0.39
0.52
0.65
0.78
0.87
0.86
0.69
0.36
-0.05
-0.44
-0.68
-0.70
-0.57
-0.40
-0.30
-0.35
-0.53
-0.73
-0.85
-0.82
-0.63
-0.35
-0.04
0.25
0.45
0.53
0.46
0.24
-0.07
-0.37
-0.55
-0.51
-0.26
0.13
0.50
0.73
0.75
0.59
0.36
0.15
0.06
0.11
0.27
0.48
0.67
0.75
0.66
0.41
0.06
-0.32
-0.62
-0.76
-0.76
-0.66
-0.53
-0.45
-0.43
-0.45
-0.48
-0.49
-0.47
-0.44
-0.40
-0.37
-0.33
-0.27
-0.16
-0.03
0.10
0.20
0.21
0.11
-0.05
-0.22
-0.28
-0.15
0.16
0.56
0.86
0.88
0.59
0.09
-0.40
-0.65
-0.51
-0.01
0.68
1.35
1.79
1.89
1.66
1.19
0.61
0.04
-0.39
-0.63
-0.68
-0.59
-0.43
-0.28
-0.19
-0.18
-0.26
-0.44
-0.69
-0.94
-1.09
-1.03
-0.76
-0.34
0.09
0.35
0.36
0.14
-0.20
-0.50
-0.65
-0.62
-0.44
-0.21
-0.01
0.09
0.08
-0.04
-0.19
-0.30
-0.35
-0.34
-0.32
-0.32
-0.35
-0.35
-0.29
-0.13
0.10
0.32
0.45
0.44
0.32
0.15
-0.02
-0.13
-0.16
-0.09
0.10
0.39
0.74
1.02
1.15
1.07
0.83
0.54
0.31
0.22
0.26
0.36
0.46
0.50
0.51
0.50
0.50
0.50
0.49
0.44
0.34
0.21
0.07
-0.05
-0.14
-0.21
-0.26
-0.30
-0.36
-0.48
-0.64
-0.83
-0.98
-1.03
-0.94
-0.72
-0.42
-0.11
0.16
0.38
0.52
0.53
0.39
0.08
-0.33
-0.67
-0.76
-0.50
0.06
0.69
1.16
1.28
1.01
0.49
-0.12
-0.63
-0.94
-1.04
-0.95
-0.73
-0.45
-0.18
0.01
0.07
0.01
-0.13
-0.28
-0.38
-0.41
-0.39
-0.33
-0.26
-0.16
-0.02
0.14
0.32
0.45
0.53
0.55
0.51
0.43
0.32
0.18
0.02
-0.18
-0.37
-0.55
-0.64
-0.63
-0.47
-0.18
0.22
0.66
1.04
1.28
1.29
1.05
0.60
0.04
-0.50
-0.89
-1.06
-1.00
-0.79
-0.51
-0.27
-0.09
0.03
0.12
0.21
0.28
0.30
0.25
0.10
-0.12
-0.33
-0.46
-0.43
-0.21
0.17
0.61
1.01
1.23
1.20
0.95
0.57
0.18
-0.07
-0.13
-0.01
0.23
0.47
0.60
0.57
0.38
0.10
-0.19
-0.44
-0.62
-0.76
-0.84
-0.86
-0.77
-0.57
-0.30
-0.05
0.07
0.04
-0.09
-0.20
-0.18
-0.04
0.13
0.17
0.00
-0.32
-0.62
-0.72
-0.53
-0.13
0.31
0.67
0.90
1.05
1.20
1.34
1.35
1.11
0.59
-0.09
-0.68
-0.95
-0.83
-0.43
0.04
0.33
0.36
0.19
-0.01
-0.11
-0.07
0.02
0.04
-0.10
-0.39
-0.77
-1.11
-1.30
-1.28
-1.09
-0.78
-0.47
-0.24
-0.15
-0.17
-0.24
-0.30
-0.28
-0.21
-0.11
-0.02
0.07
0.19
0.40
0.69
0.97
1.16
1.16
0.98
0.71
0.47
0.34
0.34
0.41
0.46
0.44
0.36
0.27
0.23
0.27
0.35
0.41
0.34
0.15
-0.12
-0.34
-0.42
-0.34
-0.18
-0.06
-0.06
-0.16
-0.25
-0.25
-0.12
0.02
0.01
-0.23
-0.64
-1.00
-1.10
-0.84
-0.30
0.29
0.69
0.80
0.67
0.46
0.30
0.28
0.34
0.41
0.40
0.30
0.11
-0.14
-0.40
-0.63
-0.78
-0.81
-0.69
-0.46
-0.14
0.17
0.45
0.63
0.69
0.62
0.43
0.21
0.07
0.09
0.24
0.43
0.50
0.37
0.07
-0.28
-0.50
-0.49
-0.30
-0.07
0.06
0.02
-0.15
-0.33
-0.42
-0.41
-0.34
-0.30
-0.32
-0.38
-0.39
-0.28
-0.01
0.34
0.63
0.74
0.59
0.26
-0.11
-0.38
-0.46
-0.39
-0.27
-0.19
-0.22
-0.37
-0.58
-0.79
-0.94
-0.99
-0.91
-0.75
-0.58
-0.49
-0.51
-0.63
-0.72
-0.67
-0.39
0.06
0.57
1.00
1.25
1.31
1.21
1.03
0.80
0.55
0.30
0.09
-0.03
-0.05
0.02
0.13
0.21
0.21
0.11
-0.01
-0.08
-0.03
0.12
0.28
0.31
0.18
-0.10
-0.38
-0.52
-0.47
-0.27
-0.08
-0.01
-0.10
-0.24
-0.31
-0.20
0.06
0.40
0.69
0.88
0.97
1.03
1.09
1.13
1.07
0.84
0.40
-0.16
-0.69
-1.04
-1.11
-0.90
-0.56
-0.22
-0.04
-0.05
-0.19
-0.35
-0.41
-0.34
-0.19
-0.04
0.03
0.05
0.07
0.15
0.28
0.40
0.43
0.29
0.02
-0.26
-0.44
-0.43
-0.23
0.05
0.31
0.47
0.52
0.49
0.45
0.40
0.32
0.17
-0.07
-0.38
-0.65
-0.77
-0.67
-0.40
-0.06
0.19
0.24
0.08
-0.22
-0.50
-0.66
-0.67
-0.59
-0.52
-0.50
-0.51
-0.50
-0.41
-0.22
-0.01
0.16
0.19
0.11
-0.01
-0.04
0.13
0.51
1.01
1.45
1.66
1.52
1.04
0.35
-0.33
-0.78
-0.83
-0.51
0.04
0.59
0.95
1.04
0.92
0.72
0.54
0.41
0.26
0.05
-0.25
-0.53
-0.67
-0.59
-0.30
0.07
0.34
0.41
0.25
-0.07
-0.44
-0.78
-1.06
-1.28
-1.44
-1.50
-1.44
-1.26
-1.01
-0.76
-0.55
-0.38
-0.21
-0.00
0.23
0.43
0.53
0.52
0.43
0.35
0.35
0.43
0.52
0.57
0.51
0.38
0.24
0.13
0.08
0.08
0.09
0.09
0.08
0.04
0.00
-0.03
-0.06
-0.09
-0.10
-0.11
-0.10
-0.07
-0.02
0.04
0.13
0.23
0.33
0.40
0.42
0.39
0.35
0.30
0.27
0.24
0.20
0.18
0.18
0.23
0.32
0.43
0.52
0.55
0.50
0.36
0.13
-0.18
-0.50
-0.77
-0.87
-0.71
-0.32
0.21
0.70
0.97
0.94
0.63
0.18
-0.25
-0.51
-0.56
-0.42
-0.15
0.15
0.37
0.43
0.29
-0.02
-0.42
-0.75
-0.93
-0.91
-0.71
-0.44
-0.18
-0.00
0.09
0.10
0.06
-0.03
-0.16
-0.32
-0.46
-0.55
-0.54
-0.43
-0.23
0.02
0.27
0.48
0.59
0.58
0.42
0.19
-0.03
-0.12
-0.04
0.16
0.36
0.46
0.41
0.27
0.19
0.25
0.46
0.71
0.84
0.76
0.46
0.02
-0.43
-0.81
-1.08
-1.25
-1.31
-1.25
-1.02
-0.61
-0.05
0.56
1.08
1.38
1.39
1.14
0.75
0.35
0.05
-0.13
-0.23
-0.30
-0.38
-0.44
-0.45
-0.40
-0.34
-0.31
-0.36
-0.49
-0.64
-0.77
-0.82
-0.81
-0.73
-0.59
-0.37
-0.07
0.25
0.51
0.62
0.59
0.46
0.36
0.36
0.45
0.57
0.61
0.51
0.29
0.01
-0.22
-0.36
-0.41
-0.41
-0.39
-0.34
-0.23
-0.08
0.11
0.29
0.39
0.42
0.43
0.49
0.64
0.89
1.13
1.26
1.19
0.91
0.51
0.14
-0.11
-0.18
-0.10
0.03
0.12
0.09
-0.07
-0.31
-0.55
-0.74
-0.81
-0.78
-0.69
-0.59
-0.49
-0.39
-0.26
-0.10
0.07
0.18
0.18
0.07
-0.12
-0.33
-0.49
-0.55
-0.50
-0.36
-0.17
0.05
0.22
0.33
0.36
0.32
0.25
0.20
0.19
0.21
0.21
0.15
-0.02
-0.28
-0.55
-0.75
-0.79
-0.69
-0.50
-0.33
-0.26
-0.29
-0.35
-0.36
-0.25
-0.07
0.10
0.17
0.13
0.04
0.02
0.11
0.29
0.47
0.55
0.51
0.37
0.24
0.18
0.18
0.22
0.23
0.18
0.08
-0.04
-0.16
-0.25
-0.32
-0.38
-0.41
-0.40
-0.35
-0.26
-0.16
-0.05
0.08
0.24
0.41
0.58
0.67
0.63
0.46
0.19
-0.10
-0.33
-0.46
-0.50
-0.45
-0.34
-0.19
-0.00
0.19
0.35
0.44
0.48
0.47
0.47
0.49
0.51
0.51
0.43
0.28
0.07
-0.15
-0.32
-0.41
-0.37
-0.23
0.01
0.25
0.43
0.50
0.47
0.40
0.35
0.38
0.48
0.57
0.57
0.44
0.20
-0.08
-0.34
-0.52
-0.63
-0.65
-0.62
-0.51
-0.33
-0.10
0.12
0.29
0.37
0.38
0.32
0.25
0.15
0.01
-0.17
-0.35
-0.46
-0.44
-0.26
0.03
0.34
0.54
0.60
0.52
0.37
0.25
0.19
0.18
0.16
0.06
-0.16
-0.44
-0.70
-0.80
-0.69
-0.41
-0.11
0.09
0.11
-0.03
-0.21
-0.31
-0.31
-0.26
-0.27
-0.39
-0.60
-0.77
-0.81
-0.66
-0.35
0.03
0.39
0.67
0.86
0.93
0.90
0.75
0.45
0.01
-0.57
-1.20
-1.76
-2.07
-2.00
-1.51
-0.71
0.17
0.87
1.19
1.09
0.72
0.29
0.00
-0.07
0.03
0.21
0.39
0.52
0.60
0.64
0.61
0.47
0.20
-0.16
-0.52
-0.74
-0.71
-0.41
0.04
0.47
0.71
0.66
0.38
0.01
-0.26
-0.38
-0.35
-0.26
-0.21
-0.22
-0.22
-0.14
0.05
0.29
0.46
0.50
0.43
0.37
0.39
0.53
0.67
0.73
0.63
0.43
0.26
0.24
0.40
0.67
0.93
1.04
0.94
0.62
0.17
-0.34
-0.81
-1.15
-1.32
-1.30
-1.13
-0.88
-0.60
-0.33
-0.10
0.10
0.22
0.25
0.17
0.01
-0.17
-0.30
-0.35
-0.30
-0.20
-0.08
0.04
0.14
0.20
0.21
0.13
-0.01
-0.18
-0.35
-0.46
-0.51
-0.50
-0.46
-0.42
-0.41
-0.42
-0.47
-0.50
-0.50
-0.44
-0.31
-0.13
0.05
0.19
0.25
0.25
0.26
0.33
0.47
0.67
0.86
0.97
0.95
0.82
0.64
0.51
0.49
0.60
0.75
0.85
0.82
0.65
0.40
0.16
0.00
-0.05
-0.02
0.04
0.10
0.09
0.01
-0.17
-0.42
-0.68
-0.87
-0.92
-0.79
-0.53
-0.27
-0.11
-0.12
-0.26
-0.40
-0.46
-0.39
-0.25
-0.14
-0.15
-0.29
-0.50
-0.71
-0.83
-0.83
-0.71
-0.50
-0.22
0.06
0.26
0.31
0.19
-0.01
-0.17
-0.13
0.15
0.60
1.04
1.32
1.36
1.19
0.92
0.65
0.42
0.21
-0.02
-0.25
-0.41
-0.42
-0.24
0.09
0.48
0.79
0.96
0.99
0.92
0.83
0.77
0.72
0.65
0.52
0.33
0.13
-0.02
-0.11
-0.19
-0.32
-0.55
-0.83
-1.04
-1.05
-0.79
-0.37
0.02
0.20
0.11
-0.20
-0.55
-0.78
-0.84
-0.76
-0.65
-0.55
-0.49
-0.42
-0.32
-0.18
-0.04
0.05
0.08
0.01
-0.16
-0.38
-0.63
-0.81
-0.84
-0.68
-0.34
0.10
0.52
0.81
0.93
0.87
0.68
0.41
0.12
-0.12
-0.25
-0.26
-0.16
-0.02
0.10
0.20
0.26
0.33
0.40
0.41
0.33
0.13
-0.12
-0.34
-0.42
-0.35
-0.20
-0.10
-0.13
-0.30
-0.55
-0.76
-0.84
-0.75
-0.51
-0.19
0.16
0.46
0.65
0.69
0.57
0.33
0.05
-0.20
-0.33
-0.33
-0.22
-0.07
0.06
0.13
0.15
0.14
0.17
0.27
0.47
0.71
0.93
1.04
1.00
0.81
0.55
0.31
0.20
0.25
0.42
0.60
0.69
0.64
0.48
0.29
0.14
0.04
-0.03
-0.12
-0.24
-0.37
-0.44
-0.42
-0.31
-0.18
-0.08
-0.05
-0.05
-0.02
0.08
0.22
0.33
0.27
0.02
-0.38
-0.78
-1.02
-1.03
-0.83
-0.58
-0.42
-0.43
-0.52
-0.56
-0.44
-0.19
0.05
0.12
-0.03
-0.30
-0.47
-0.40
-0.07
0.37
0.69
0.76
0.57
0.28
0.05
-0.01
0.08
0.26
0.43
0.54
0.62
0.71
0.80
0.86
0.83
0.67
0.37
-0.01
-0.39
-0.68
-0.85
-0.88
-0.81
-0.69
-0.58
-0.49
-0.43
-0.36
-0.25
-0.11
0.02
0.11
0.12
0.05
-0.05
-0.14
-0.16
-0.12
-0.02
0.08
0.16
0.16
0.11
0.04
-0.01
0.00
0.09
0.22
0.29
0.24
0.08
-0.14
-0.30
-0.32
-0.18
0.08
0.33
0.50
0.54
0.50
0.45
0.43
0.43
0.42
0.35
0.20
0.01
-0.14
-0.18
-0.09
0.08
0.22
0.25
0.11
-0.14
-0.41
-0.63
-0.74
-0.75
-0.70
-0.63
-0.56
-0.50
-0.41
-0.30
-0.20
-0.13
-0.07
-0.02
0.11
0.34
0.65
0.97
1.18
1.15
0.84
0.29
-0.40
-1.05
-1.52
-1.71
-1.59
-1.25
-0.81
-0.43
-0.21
-0.15
-0.20
-0.24
-0.21
-0.07
0.14
0.35
0.51
0.61
0.66
0.70
0.74
0.79
0.83
0.82
0.78
0.70
0.61
0.49
0.37
0.23
0.07
-0.09
-0.24
-0.34
-0.38
-0.36
-0.31
-0.24
-0.12
0.07
0.34
0.65
0.88
0.92
0.70
0.22
-0.38
-0.91
-1.19
-1.14
-0.83
-0.39
0.01
0.26
0.36
0.39
0.44
0.53
0.63
0.65
0.51
0.22
-0.12
-0.40
-0.52
-0.47
-0.34
-0.27
-0.35
-0.59
-0.90
-1.13
-1.18
-1.01
-0.70
-0.33
-0.02
0.19
0.31
0.34
0.31
0.21
0.08
-0.04
-0.09
-0.04
0.11
0.33
0.54
0.69
0.72
0.62
0.43
0.21
0.04
-0.01
0.07
0.22
0.35
0.38
0.31
0.20
0.16
0.24
0.43
0.66
0.84
0.91
0.84
0.65
0.38
0.07
-0.25
-0.54
-0.72
-0.78
-0.69
-0.52
-0.33
-0.21
-0.18
-0.24
-0.35
-0.48
-0.63
-0.77
-0.91
-0.98
-0.91
-0.63
-0.18
0.37
0.84
1.11
1.10
0.87
0.53
0.20
-0.05
-0.21
-0.33
-0.44
-0.53
-0.57
-0.51
-0.37
-0.19
-0.01
0.11
0.16
0.15
0.08
-0.01
-0.11
-0.16
-0.18
-0.16
-0.14
-0.13
-0.12
-0.06
0.09
0.34
0.63
0.87
0.97
0.87
0.59
0.21
-0.18
-0.49
-0.63
-0.60
-0.41
-0.12
0.18
0.38
0.42
0.29
0.03
-0.25
-0.47
-0.60
-0.60
-0.49
-0.32
-0.10
0.12
0.30
0.43
0.47
0.44
0.38
0.39
0.51
0.78
1.09
1.30
1.31
1.06
0.62
0.15
-0.23
-0.48
-0.62
-0.72
-0.80
-0.80
-0.65
-0.35
0.02
0.31
0.39
0.24
-0.03
-0.27
-0.34
-0.24
-0.04
0.14
0.20
0.15
0.01
-0.15
-0.32
-0.46
-0.56
-0.60
-0.53
-0.36
-0.14
0.05
0.14
0.12
0.01
-0.11
-0.22
-0.27
-0.29
-0.28
-0.22
-0.10
0.13
0.42
0.73
0.97
1.09
1.05
0.87
0.58
0.23
-0.12
-0.41
-0.58
-0.62
-0.55
-0.44
-0.36
-0.33
-0.35
-0.40
-0.41
-0.37
-0.30
-0.21
-0.13
-0.06
-0.01
0.02
0.04
0.06
0.13
0.27
0.50
0.76
0.97
1.05
0.94
0.66
0.30
-0.03
-0.23
-0.29
-0.25
-0.20
-0.21
-0.31
-0.42
-0.49
-0.43
-0.27
-0.04
0.13
0.16
0.03
-0.19
-0.40
-0.48
-0.40
-0.21
-0.01
0.10
0.09
-0.00
-0.11
-0.15
-0.09
0.02
0.14
0.21
0.23
0.26
0.32
0.41
0.48
0.46
0.29
-0.01
-0.38
-0.67
-0.78
-0.68
-0.41
-0.09
0.13
0.21
0.18
0.11
0.09
0.13
0.20
0.22
0.14
0.00
-0.11
-0.13
-0.04
0.07
0.11
0.03
-0.12
-0.23
-0.18
0.03
0.30
0.46
0.41
0.16
-0.17
-0.41
-0.47
-0.36
-0.17
-0.02
0.06
0.10
0.14
0.20
0.24
0.21
0.05
-0.19
-0.43
-0.58
-0.58
-0.43
-0.18
0.06
0.22
0.24
0.11
-0.12
-0.37
-0.53
-0.50
-0.25
0.13
0.52
0.75
0.73
0.46
0.05
-0.35
-0.59
-0.63
-0.48
-0.24
-0.01
0.17
0.27
0.33
0.38
0.42
0.46
0.46
0.41
0.33
0.28
0.34
0.52
0.79
1.00
1.03
0.82
0.45
0.09
-0.12
-0.11
0.03
0.16
0.16
0.02
-0.18
-0.30
-0.30
-0.22
-0.16
-0.19
-0.31
-0.46
-0.54
-0.55
-0.49
-0.44
-0.44
-0.47
-0.47
-0.39
-0.21
0.02
0.21
0.28
0.18
-0.05
-0.32
-0.50
-0.50
-0.32
-0.01
0.30
0.49
0.49
0.30
-0.02
-0.38
-0.67
-0.81
-0.75
-0.51
-0.15
0.24
0.55
0.70
0.67
0.47
0.20
-0.06
-0.22
-0.24
-0.14
0.01
0.14
0.19
0.14
-0.04
-0.30
-0.60
-0.83
-0.91
-0.75
-0.36
0.21
0.81
1.31
1.60
1.63
1.45
1.07
0.56
-0.04
-0.66
-1.14
-1.36
-1.19
-0.68
0.01
0.64
0.95
0.86
0.43
-0.11
-0.53
-0.67
-0.51
-0.18
0.16
0.35
0.36
0.20
-0.05
-0.32
-0.53
-0.61
-0.53
-0.27
0.13
0.54
0.81
0.85
0.67
0.37
0.14
0.07
0.18
0.36
0.47
0.43
0.28
0.08
-0.09
-0.24
-0.42
-0.64
-0.88
-1.02
-0.94
-0.59
-0.09
0.38
0.63
0.58
0.28
-0.09
-0.34
-0.37
-0.21
0.01
0.14
0.10
-0.11
-0.36
-0.52
-0.51
-0.35
-0.14
-0.01
0.00
-0.07
-0.15
-0.17
-0.11
-0.02
0.06
0.09
0.09
0.12
0.21
0.37
0.55
0.65
0.62
0.43
0.15
-0.15
-0.35
-0.42
-0.33
-0.16
0.02
0.14
0.16
0.10
-0.01
-0.14
-0.28
-0.44
-0.58
-0.67
-0.65
-0.47
-0.10
0.40
0.92
1.33
1.50
1.36
0.95
0.40
-0.12
-0.46
-0.54
-0.38
-0.10
0.17
0.35
0.41
0.38
0.30
0.21
0.12
0.05
0.01
0.01
0.04
0.07
0.07
0.04
-0.00
-0.00
0.05
0.17
0.30
0.39
0.40
0.32
0.17
-0.03
-0.25
-0.46
-0.63
-0.70
-0.67
-0.54
-0.40
-0.29
-0.27
-0.32
-0.38
-0.38
-0.31
-0.23
-0.24
-0.37
-0.60
-0.78
-0.79
-0.54
-0.11
0.35
0.65
0.74
0.63
0.45
0.30
0.23
0.19
0.13
0.01
-0.16
-0.36
-0.56
-0.72
-0.78
-0.68
-0.35
0.20
0.88
1.50
1.88
1.88
1.52
0.94
0.32
-0.19
-0.51
-0.65
-0.66
-0.58
-0.46
-0.28
-0.08
0.10
0.20
0.14
-0.10
-0.46
-0.85
-1.11
-1.15
-0.92
-0.50
-0.02
0.38
0.61
0.65
0.56
0.42
0.29
0.19
0.11
0.06
0.01
-0.04
-0.07
-0.11
-0.18
-0.29
-0.41
-0.48
-0.43
-0.26
-0.00
0.27
0.47
0.57
0.58
0.54
0.48
0.40
0.29
0.14
-0.00
-0.07
-0.00
0.20
0.46
0.66
0.72
0.61
0.39
0.16
-0.03
-0.12
-0.11
-0.04
0.05
0.11
0.10
0.01
-0.15
-0.32
-0.42
-0.41
-0.29
-0.13
-0.03
-0.05
-0.18
-0.36
-0.48
-0.47
-0.31
-0.06
0.21
0.41
0.51
0.49
0.38
0.23
0.08
-0.05
-0.15
-0.24
-0.35
-0.48
-0.58
-0.59
-0.50
-0.34
-0.20
-0.17
-0.27
-0.45
-0.63
-0.74
-0.76
-0.76
-0.79
-0.88
-0.94
-0.88
-0.62
-0.19
0.30
0.70
0.91
0.91
0.75
0.53
0.32
0.16
0.05
0.02
0.06
0.16
0.29
0.38
0.38
0.26
0.03
-0.22
-0.41
-0.45
-0.34
-0.14
0.10
0.33
0.55
0.76
0.95
1.05
1.00
0.77
0.40
0.00
-0.26
-0.30
-0.09
0.25
0.57
0.72
0.65
0.41
0.16
0.02
0.05
0.22
0.42
0.50
0.41
0.16
-0.14
-0.33
-0.31
-0.10
0.19
0.37
0.33
0.06
-0.25
-0.45
-0.42
-0.22
-0.01
0.09
0.02
-0.07
-0.05
0.15
0.44
0.61
0.50
0.10
-0.44
-0.89
-1.08
-1.01
-0.79
-0.55
-0.36
-0.23
-0.11
0.01
0.10
0.13
0.10
0.04
0.00
0.01
0.04
0.01
-0.14
-0.40
-0.66
-0.82
-0.78
-0.54
-0.18
0.17
0.41
0.49
0.43
0.30
0.15
0.03
-0.07
-0.14
-0.21
-0.27
-0.28
-0.23
-0.15
-0.05
-0.00
-0.01
-0.04
-0.05
0.01
0.13
0.26
0.34
0.37
0.36
0.35
0.36
0.40
0.43
0.45
0.47
0.51
0.56
0.58
0.52
0.36
0.12
-0.15
-0.39
-0.58
-0.71
-0.76
-0.73
-0.59
-0.35
-0.08
0.15
0.26
0.23
0.11
-0.03
-0.10
-0.08
0.02
0.17
0.32
0.44
0.49
0.46
0.35
0.17
-0.06
-0.28
-0.46
-0.61
-0.71
-0.79
-0.84
-0.85
-0.76
-0.58
-0.32
-0.07
0.08
0.08
-0.00
-0.08
-0.03
0.16
0.43
0.64
0.71
0.60
0.40
0.22
0.12
0.09
0.09
0.07
0.06
0.08
0.16
0.23
0.22
0.07
-0.20
-0.46
-0.57
-0.45
-0.17
0.14
0.32
0.32
0.21
0.13
0.21
0.44
0.72
0.88
0.83
0.61
0.32
0.05
-0.13
-0.24
-0.35
-0.46
-0.54
-0.51
-0.33
-0.02
0.31
0.55
0.63
0.55
0.35
0.12
-0.09
-0.26
-0.37
-0.45
-0.54
-0.65
-0.80
-0.92
-0.98
-0.94
-0.80
-0.60
-0.40
-0.23
-0.13
-0.06
-0.00
0.03
0.02
-0.05
-0.19
-0.33
-0.40
-0.34
-0.13
0.18
0.48
0.67
0.70
0.57
0.38
0.20
0.11
0.09
0.11
0.13
0.13
0.15
0.24
0.41
0.66
0.91
1.08
1.11
0.99
0.76
0.50
0.29
0.16
0.10
0.05
-0.02
-0.15
-0.30
-0.41
-0.45
-0.41
-0.32
-0.27
-0.28
-0.35
-0.43
-0.43
-0.33
-0.14
0.03
0.08
-0.05
-0.35
-0.70
-0.97
-1.01
-0.78
-0.36
0.12
0.48
0.65
0.64
0.52
0.40
0.31
0.25
0.19
0.09
-0.01
-0.08
-0.08
-0.03
0.05
0.15
0.28
0.46
0.72
0.99
1.19
1.22
1.05
0.70
0.27
-0.15
-0.49
-0.71
-0.81
-0.81
-0.71
-0.55
-0.36
-0.21
-0.16
-0.28
-0.53
-0.84
-1.10
-1.18
-1.02
-0.64
-0.16
0.29
0.58
0.68
0.61
0.46
0.34
0.27
0.26
0.25
0.21
0.14
0.06
0.03
0.06
0.16
0.26
0.31
0.29
0.20
0.08
-0.06
-0.17
-0.26
-0.34
-0.42
-0.49
-0.54
-0.57
-0.57
-0.53
-0.45
-0.33
-0.16
0.04
0.21
0.27
0.18
-0.03
-0.27
-0.43
-0.41
-0.23
0.01
0.18
0.21
0.11
-0.01
-0.03
0.09
0.31
0.54
0.68
0.71
0.68
0.63
0.62
0.64
0.64
0.60
0.50
0.36
0.21
0.08
-0.00
-0.06
-0.09
-0.14
-0.20
-0.25
-0.24
-0.15
0.03
0.20
0.29
0.24
0.07
-0.15
-0.30
-0.32
-0.24
-0.16
-0.15
-0.22
-0.29
-0.26
-0.08
0.18
0.41
0.50
0.41
0.21
-0.00
-0.17
-0.26
-0.31
-0.35
-0.39
-0.41
-0.41
-0.40
-0.41
-0.45
-0.45
-0.33
-0.02
0.43
0.89
1.14
1.03
0.54
-0.18
-0.87
-1.30
-1.33
-1.01
-0.51
-0.03
0.25
0.30
0.16
-0.07
-0.27
-0.35
-0.29
-0.12
0.10
0.33
0.50
0.58
0.55
0.42
0.23
0.06
-0.05
-0.07
-0.00
0.12
0.27
0.38
0.42
0.37
0.24
0.09
-0.03
-0.06
0.01
0.13
0.24
0.28
0.24
0.13
0.00
-0.13
-0.25
-0.35
-0.39
-0.33
-0.14
0.18
0.51
0.74
0.76
0.56
0.24
-0.06
-0.21
-0.18
-0.05
0.07
0.09
-0.01
-0.20
-0.38
-0.53
-0.63
-0.69
-0.72
-0.68
-0.54
-0.32
-0.06
0.14
0.20
0.10
-0.12
-0.37
-0.54
-0.59
-0.49
-0.28
-0.04
0.16
0.31
0.39
0.45
0.52
0.59
0.64
0.61
0.49
0.32
0.19
0.17
0.26
0.39
0.43
0.32
0.08
-0.18
-0.33
-0.30
-0.11
0.16
0.42
0.62
0.75
0.82
0.82
0.72
0.50
0.19
-0.13
-0.38
-0.53
-0.59
-0.61
-0.65
-0.73
-0.85
-0.97
-1.07
-1.11
-1.09
-0.97
-0.76
-0.47
-0.16
0.09
0.21
0.19
0.06
-0.08
-0.20
-0.27
-0.32
-0.37
-0.41
-0.36
-0.18
0.12
0.48
0.78
0.93
0.92
0.82
0.71
0.64
0.62
0.58
0.47
0.29
0.08
-0.09
-0.18
-0.17
-0.12
-0.03
0.06
0.15
0.22
0.24
0.19
0.06
-0.13
-0.34
-0.52
-0.63
-0.62
-0.52
-0.38
-0.26
-0.25
-0.39
-0.63
-0.86
-0.94
-0.76
-0.33
0.21
0.69
0.95
0.90
0.63
0.26
-0.07
-0.26
-0.32
-0.28
-0.19
-0.05
0.17
0.46
0.79
1.05
1.14
1.02
0.73
0.44
0.32
0.46
0.82
1.25
1.56
1.60
1.36
0.93
0.44
0.00
-0.34
-0.59
-0.76
-0.86
-0.88
-0.80
-0.64
-0.47
-0.33
-0.26
-0.25
-0.27
-0.25
-0.17
-0.02
0.18
0.38
0.54
0.58
0.47
0.20
-0.18
-0.56
-0.84
-0.94
-0.84
-0.65
-0.47
-0.43
-0.53
-0.72
-0.87
-0.86
-0.69
-0.41
-0.12
0.08
0.18
0.21
0.21
0.20
0.17
0.07
-0.07
-0.18
-0.19
-0.08
0.13
0.31
0.37
0.30
0.16
0.05
0.05
0.14
0.24
0.22
0.03
-0.27
-0.55
-0.69
-0.61
-0.33
0.03
0.35
0.53
0.58
0.55
0.54
0.58
0.70
0.83
0.89
0.85
0.70
0.50
0.32
0.21
0.15
0.09
0.01
-0.09
-0.17
-0.22
-0.23
-0.21
-0.20
-0.22
-0.26
-0.32
-0.38
-0.45
-0.51
-0.54
-0.51
-0.39
-0.17
0.09
0.30
0.39
0.38
0.29
0.20
0.15
0.17
0.21
0.25
0.24
0.16
0.02
-0.16
-0.35
-0.51
-0.61
-0.66
-0.66
-0.62
-0.55
-0.46
-0.34
-0.19
-0.02
0.17
0.34
0.47
0.54
0.52
0.41
0.21
-0.02
-0.22
-0.31
-0.27
-0.07
0.22
0.50
0.70
0.76
0.68
0.50
0.28
0.05
-0.22
-0.54
-0.90
-1.24
-1.44
-1.43
-1.17
-0.73
-0.24
0.21
0.52
0.68
0.73
0.72
0.69
0.67
0.64
0.60
0.50
0.35
0.18
0.09
0.13
0.35
0.67
0.97
1.11
1.01
0.71
0.32
-0.06
-0.34
-0.54
-0.68
-0.83
-0.97
-1.07
-1.09
-0.99
-0.80
-0.55
-0.29
-0.04
0.16
0.30
0.34
0.27
0.10
-0.13
-0.33
-0.46
-0.48
-0.42
-0.33
-0.23
-0.14
-0.07
-0.00
0.04
0.04
-0.05
-0.17
-0.26
-0.20
0.04
0.39
0.70
0.83
0.73
0.47
0.21
0.09
0.12
0.22
0.25
0.14
-0.07
-0.24
-0.25
-0.08
0.20
0.41
0.44
0.24
-0.09
-0.43
-0.63
-0.65
-0.50
-0.23
0.07
0.34
0.50
0.48
0.26
-0.14
-0.62
-1.02
-1.20
-1.05
-0.61
0.00
0.60
1.00
1.11
0.90
0.49
0.03
-0.32
-0.44
-0.30
-0.01
0.28
0.43
0.38
0.19
-0.00
-0.08
-0.02
0.12
0.23
0.23
0.10
-0.09
-0.26
-0.38
-0.45
-0.51
-0.55
-0.54
-0.41
-0.11
0.33
0.80
1.15
1.23
1.02
0.60
0.11
-0.29
-0.49
-0.45
-0.22
0.07
0.31
0.39
0.25
-0.05
-0.40
-0.68
-0.76
-0.61
-0.25
0.20
0.61
0.86
0.89
0.69
0.34
-0.05
-0.34
-0.46
-0.38
-0.18
0.04
0.18
0.20
0.13
0.02
-0.07
-0.10
-0.10
-0.08
-0.05
-0.00
0.06
0.13
0.18
0.17
0.10
-0.00
-0.10
-0.20
-0.30
-0.41
-0.56
-0.70
-0.78
-0.76
-0.63
-0.44
-0.24
-0.08
0.02
0.07
0.09
0.10
0.13
0.20
0.32
0.47
0.62
0.72
0.76
0.72
0.63
0.49
0.32
0.13
-0.05
-0.16
-0.16
-0.05
0.09
0.18
0.15
-0.01
-0.22
-0.39
-0.41
-0.29
-0.09
0.10
0.20
0.18
0.07
-0.08
-0.19
-0.21
-0.14
-0.01
0.13
0.21
0.17
0.03
-0.16
-0.29
-0.33
-0.29
-0.22
-0.22
-0.32
-0.46
-0.55
-0.48
-0.23
0.14
0.50
0.72
0.73
0.54
0.22
-0.09
-0.27
-0.26
-0.05
0.28
0.60
0.81
0.82
0.65
0.37
0.10
-0.08
-0.12
-0.04
0.09
0.20
0.24
0.21
0.13
0.03
-0.09
-0.25
-0.49
-0.81
-1.16
-1.46
-1.61
-1.55
-1.29
-0.88
-0.43
-0.03
0.23
0.34
0.34
0.28
0.22
0.21
0.27
0.39
0.56
0.75
0.94
1.05
0.98
0.67
0.14
-0.49
-1.03
-1.28
-1.16
-0.72
-0.13
0.37
0.63
0.63
0.45
0.24
0.12
0.11
0.15
0.16
0.07
-0.10
-0.29
-0.42
-0.41
-0.26
-0.00
0.28
0.52
0.65
0.68
0.63
0.55
0.49
0.42
0.33
0.17
-0.05
-0.28
-0.42
-0.37
-0.11
0.28
0.65
0.84
0.79
0.52
0.15
-0.19
-0.39
-0.48
-0.48
-0.45
-0.38
-0.23
0.05
0.40
0.71
0.85
0.74
0.39
-0.05
-0.40
-0.53
-0.45
-0.26
-0.14
-0.18
-0.37
-0.61
-0.77
-0.75
-0.55
-0.25
0.02
0.16
0.14
-0.01
-0.22
-0.41
-0.53
-0.55
-0.47
-0.29
-0.05
0.19
0.34
0.36
0.27
0.11
-0.02
-0.08
-0.09
-0.08
-0.08
-0.06
0.01
0.14
0.27
0.28
0.13
-0.15
-0.41
-0.52
-0.41
-0.15
0.10
0.18
0.09
-0.10
-0.21
-0.17
-0.00
0.18
0.29
0.31
0.32
0.39
0.57
0.80
0.97
0.97
0.81
0.53
0.27
0.08
0.00
-0.03
-0.06
-0.11
-0.16
-0.17
-0.13
-0.05
0.03
0.06
0.03
-0.05
-0.14
-0.18
-0.17
-0.10
-0.00
0.09
0.15
0.18
0.21
0.21
0.20
0.14
0.00
-0.19
-0.41
-0.59
-0.66
-0.61
-0.44
-0.21
0.01
0.18
0.27
0.28
0.23
0.13
-0.01
-0.15
-0.24
-0.23
-0.10
0.10
0.30
0.39
0.32
0.14
-0.06
-0.18
-0.18
-0.09
0.00
0.02
-0.08
-0.24
-0.40
-0.50
-0.52
-0.49
-0.42
-0.32
-0.18
0.01
0.22
0.40
0.47
0.39
0.18
-0.09
-0.29
-0.32
-0.14
0.19
0.56
0.82
0.87
0.71
0.41
0.09
-0.15
-0.25
-0.19
-0.04
0.15
0.29
0.32
0.22
-0.03
-0.37
-0.73
-0.99
-1.09
-1.03
-0.85
-0.62
-0.39
-0.18
-0.01
0.11
0.17
0.12
-0.01
-0.19
-0.32
-0.35
-0.28
-0.14
0.01
0.15
0.28
0.47
0.72
1.01
1.25
1.35
1.25
0.97
0.61
0.31
0.19
0.23
0.32
0.31
0.05
-0.47
-1.08
-1.55
-1.69
-1.45
-0.97
-0.49
-0.21
-0.18
-0.29
-0.35
-0.23
0.09
0.47
0.73
0.72
0.46
0.06
-0.26
-0.35
-0.18
0.18
0.54
0.76
0.78
0.66
0.51
0.40
0.35
0.30
0.21
0.05
-0.13
-0.25
-0.27
-0.19
-0.11
-0.10
-0.19
-0.35
-0.47
-0.44
-0.24
0.10
0.46
0.72
0.83
0.78
0.63
0.46
0.32
0.23
0.15
0.04
-0.12
-0.34
-0.57
-0.76
-0.86
-0.89
-0.86
-0.81
-0.73
-0.61
-0.41
-0.13
0.17
0.42
0.53
0.49
0.35
0.21
0.14
0.18
0.29
0.40
0.43
0.39
0.28
0.13
-0.04
-0.22
-0.41
-0.59
-0.74
-0.84
-0.91
-0.95
-0.96
-0.91
-0.78
-0.56
-0.29
-0.04
0.11
0.15
0.16
0.22
0.39
0.65
0.90
1.04
1.03
0.92
0.77
0.68
0.65
0.60
0.47
0.24
-0.01
-0.16
-0.13
0.10
0.43
0.74
0.88
0.83
0.62
0.36
0.15
0.06
0.07
0.12
0.10
-0.02
-0.24
-0.47
-0.61
-0.59
-0.43
-0.21
-0.01
0.08
0.06
-0.06
-0.24
-0.44
-0.62
-0.73
-0.74
-0.62
-0.40
-0.16
0.06
0.20
0.29
0.37
0.44
0.48
0.46
0.34
0.15
-0.02
-0.09
-0.01
0.15
0.29
0.31
0.15
-0.13
-0.43
-0.60
-0.60
-0.46
-0.28
-0.18
-0.21
-0.34
-0.46
-0.45
-0.27
0.04
0.37
0.59
0.62
0.49
0.24
-0.00
-0.17
-0.23
-0.16
0.01
0.20
0.33
0.34
0.17
-0.12
-0.44
-0.68
-0.72
-0.56
-0.24
0.11
0.37
0.48
0.45
0.38
0.33
0.34
0.36
0.31
0.13
-0.16
-0.46
-0.66
-0.67
-0.53
-0.33
-0.19
-0.16
-0.22
-0.27
-0.26
-0.19
-0.09
-0.01
0.02
0.03
0.05
0.07
0.08
0.07
0.03
-0.01
-0.03
0.00
0.04
0.05
0.01
-0.02
0.01
0.18
0.48
0.83
1.09
1.17
1.02
0.69
0.29
-0.05
-0.24
-0.25
-0.12
0.06
0.22
0.28
0.26
0.19
0.14
0.12
0.12
0.06
-0.10
-0.34
-0.57
-0.69
-0.66
-0.53
-0.39
-0.31
-0.30
-0.29
-0.23
-0.11
0.01
0.06
-0.02
-0.16
-0.30
-0.37
-0.37
-0.36
-0.38
-0.44
-0.49
-0.49
-0.41
-0.31
-0.22
-0.19
-0.19
-0.18
-0.11
0.02
0.17
0.28
0.32
0.29
0.25
0.25
0.32
0.46
0.60
0.68
0.66
0.55
0.42
0.34
0.33
0.40
0.47
0.46
0.34
0.11
-0.16
-0.40
-0.54
-0.55
-0.45
-0.28
-0.05
0.19
0.43
0.58
0.58
0.39
0.04
-0.40
-0.81
-1.08
-1.14
-0.98
-0.65
-0.21
0.25
0.61
0.81
0.78
0.56
0.25
-0.04
-0.20
-0.20
-0.05
0.15
0.32
0.42
0.41
0.30
0.09
-0.15
-0.36
-0.49
-0.49
-0.38
-0.18
0.06
0.33
0.61
0.85
0.97
0.87
0.55
0.06
-0.44
-0.78
-0.87
-0.72
-0.46
-0.23
-0.08
0.00
0.07
0.16
0.26
0.32
0.29
0.20
0.08
-0.02
-0.10
-0.19
-0.33
-0.46
-0.54
-0.51
-0.37
-0.21
-0.12
-0.12
-0.16
-0.14
0.04
0.34
0.63
0.78
0.71
0.46
0.18
-0.02
-0.08
-0.05
-0.04
-0.09
-0.20
-0.31
-0.38
-0.39
-0.35
-0.27
-0.12
0.12
0.48
0.86
1.14
1.15
0.84
0.28
-0.30
-0.67
-0.73
-0.51
-0.21
-0.04
-0.12
-0.41
-0.77
-0.98
-0.95
-0.68
-0.27
0.17
0.57
0.88
1.09
1.17
1.08
0.79
0.33
-0.23
-0.76
-1.16
-1.34
-1.25
-0.92
-0.43
0.12
0.59
0.90
0.96
0.81
0.53
0.25
0.08
0.08
0.23
0.44
0.60
0.62
0.46
0.19
-0.11
-0.31
-0.35
-0.25
-0.08
0.04
0.04
-0.09
-0.32
-0.58
-0.81
-0.94
-0.94
-0.79
-0.53
-0.20
0.10
0.30
0.37
0.32
0.20
0.09
0.05
0.11
0.28
0.54
0.81
1.03
1.13
1.05
0.80
0.43
0.04
-0.30
-0.53
-0.65
-0.65
-0.55
-0.41
-0.24
-0.09
0.06
0.18
0.31
0.43
0.54
0.61
0.61
0.50
0.25
-0.11
-0.52
-0.88
-1.11
-1.15
-0.99
-0.71
-0.41
-0.18
-0.06
-0.01
0.04
0.13
0.30
0.50
0.67
0.78
0.81
0.78
0.77
0.78
0.81
0.77
0.58
0.19
-0.35
-0.89
-1.26
-1.35
-1.16
-0.76
-0.32
0.04
0.25
0.30
0.20
0.02
-0.18
-0.34
-0.39
-0.30
-0.10
0.14
0.34
0.41
0.34
0.15
-0.11
-0.37
-0.58
-0.69
-0.69
-0.58
-0.36
-0.07
0.22
0.43
0.50
0.40
0.18
-0.08
-0.24
-0.24
-0.06
0.22
0.48
0.64
0.63
0.49
0.25
-0.02
-0.29
-0.55
-0.75
-0.85
-0.80
-0.56
-0.20
0.20
0.49
0.56
0.36
-0.09
-0.65
-1.15
-1.45
-1.44
-1.14
-0.65
-0.14
0.26
0.50
0.57
0.55
0.48
0.41
0.34
0.30
0.32
0.42
0.57
0.71
0.76
0.70
0.57
0.46
0.41
0.39
0.34
0.18
-0.06
-0.27
-0.32
-0.16
0.14
0.44
0.59
0.53
0.32
0.08
-0.09
-0.16
-0.17
-0.18
-0.22
-0.28
-0.33
-0.33
-0.30
-0.23
-0.14
-0.04
0.08
0.19
0.27
0.26
0.15
-0.02
-0.19
-0.29
-0.27
-0.17
-0.04
0.09
0.22
0.33
0.44
0.50
0.47
0.32
0.07
-0.22
-0.45
-0.56
-0.55
-0.45
-0.33
-0.24
-0.18
-0.10
0.03
0.21
0.45
0.70
0.88
0.92
0.78
0.44
-0.04
-0.55
-1.00
-1.31
-1.42
-1.32
-1.04
-0.61
-0.11
0.34
0.64
0.72
0.55
0.25
-0.08
-0.30
-0.34
-0.21
0.01
0.25
0.44
0.54
0.56
0.51
0.39
0.27
0.20
0.25
0.39
0.58
0.70
0.67
0.47
0.16
-0.16
-0.40
-0.53
-0.56
-0.51
-0.43
-0.32
-0.18
-0.04
0.06
0.03
-0.13
-0.39
-0.68
-0.90
-0.99
-0.93
-0.74
-0.45
-0.11
0.20
0.45
0.56
0.55
0.46
0.37
0.35
0.41
0.51
0.56
0.50
0.34
0.15
0.01
-0.02
0.02
0.08
0.06
-0.09
-0.35
-0.63
-0.81
-0.79
-0.54
-0.10
0.40
0.83
1.04
0.98
0.68
0.24
-0.18
-0.51
-0.67
-0.71
-0.65
-0.54
-0.39
-0.19
0.04
0.24
0.38
0.41
0.36
0.30
0.27
0.31
0.39
0.44
0.45
0.42
0.41
0.44
0.50
0.51
0.39
0.10
-0.27
-0.61
-0.79
-0.77
-0.63
-0.49
-0.43
-0.44
-0.43
-0.34
-0.15
0.05
0.17
0.17
0.08
-0.03
-0.08
-0.08
-0.05
-0.01
0.05
0.20
0.43
0.70
0.89
0.90
0.73
0.44
0.17
-0.02
-0.11
-0.14
-0.13
-0.09
0.01
0.14
0.26
0.26
0.12
-0.13
-0.37
-0.51
-0.53
-0.49
-0.47
-0.55
-0.69
-0.81
-0.81
-0.65
-0.37
-0.06
0.19
0.33
0.38
0.39
0.40
0.44
0.49
0.50
0.44
0.33
0.18
0.02
-0.12
-0.24
-0.35
-0.45
-0.52
-0.53
-0.46
-0.34
-0.18
-0.03
0.09
0.14
0.15
0.12
0.10
0.13
0.26
0.46
0.66
0.76
0.66
0.34
-0.11
-0.51
-0.67
-0.53
-0.13
0.36
0.74
0.86
0.70
0.35
-0.03
-0.30
-0.39
-0.31
-0.14
0.03
0.11
0.08
-0.03
-0.20
-0.37
-0.53
-0.64
-0.68
-0.65
-0.56
-0.45
-0.36
-0.32
-0.30
-0.22
-0.01
0.35
0.81
1.25
1.52
1.55
1.35
0.99
0.59
0.22
-0.09
-0.32
-0.47
-0.51
-0.43
-0.26
-0.03
0.14
0.17
0.01
-0.31
-0.70
-1.05
-1.26
-1.30
-1.17
-0.91
-0.59
-0.29
-0.07
0.05
0.07
0.04
0.04
0.10
0.25
0.46
0.66
0.77
0.76
0.63
0.46
0.35
0.37
0.54
0.81
1.06
1.20
1.11
0.77
0.23
-0.35
-0.80
-1.01
-0.92
-0.62
-0.26
0.01
0.08
-0.04
-0.28
-0.51
-0.64
-0.64
-0.53
-0.34
-0.10
0.14
0.36
0.51
0.55
0.47
0.28
0.06
-0.09
-0.12
-0.01
0.18
0.36
0.43
0.33
0.05
-0.31
-0.65
-0.88
-0.94
-0.87
-0.73
-0.59
-0.49
-0.42
-0.35
-0.26
-0.16
-0.09
-0.08
-0.14
-0.25
-0.35
-0.39
-0.33
-0.18
0.04
0.26
0.45
0.54
0.54
0.51
0.49
0.52
0.58
0.59
0.48
0.25
-0.00
-0.11
0.07
0.52
1.09
1.52
1.62
1.32
0.76
0.15
-0.31
-0.52
-0.55
-0.51
-0.49
-0.52
-0.50
-0.35
-0.05
0.35
0.70
0.86
0.78
0.51
0.16
-0.11
-0.22
-0.14
0.04
0.19
0.23
0.12
-0.06
-0.22
-0.29
-0.33
-0.43
-0.68
-1.08
-1.49
-1.72
-1.61
-1.19
-0.62
-0.13
0.13
0.15
0.04
-0.03
0.01
0.13
0.24
0.25
0.14
-0.03
-0.18
-0.22
-0.14
0.03
0.24
0.40
0.48
0.48
0.41
0.35
0.33
0.32
0.29
0.18
0.01
-0.17
-0.26
-0.19
0.03
0.33
0.61
0.79
0.86
0.84
0.72
0.50
0.21
-0.11
-0.35
-0.42
-0.29
-0.05
0.15
0.17
-0.03
-0.35
-0.64
-0.78
-0.70
-0.47
-0.22
-0.09
-0.13
-0.29
-0.47
-0.57
-0.52
-0.34
-0.12
0.06
0.14
0.11
-0.01
-0.16
-0.30
-0.38
-0.34
-0.16
0.13
0.46
0.75
0.94
1.03
1.07
1.08
1.06
0.95
0.73
0.41
0.09
-0.15
-0.27
-0.30
-0.31
-0.35
-0.41
-0.45
-0.39
-0.25
-0.08
0.04
0.02
-0.13
-0.35
-0.54
-0.62
-0.56
-0.38
-0.16
0.03
0.16
0.21
0.24
0.29
0.36
0.44
0.49
0.48
0.41
0.31
0.20
0.08
-0.04
-0.18
-0.33
-0.48
-0.56
-0.54
-0.36
-0.06
0.29
0.56
0.63
0.43
0.03
-0.43
-0.76
-0.81
-0.60
-0.27
0.00
0.07
-0.09
-0.38
-0.67
-0.84
-0.90
-0.87
-0.82
-0.75
-0.62
-0.40
-0.08
0.27
0.52
0.58
0.42
0.12
-0.18
-0.34
-0.26
0.05
0.48
0.86
1.08
1.07
0.88
0.61
0.37
0.24
0.22
0.26
0.30
0.30
0.27
0.21
0.16
0.13
0.13
0.16
0.23
0.34
0.44
0.47
0.39
0.20
-0.04
-0.21
-0.23
-0.12
0.02
0.05
-0.11
-0.42
-0.73
-0.88
-0.77
-0.44
0.00
0.40
0.67
0.78
0.74
0.56
0.26
-0.15
-0.58
-0.90
-0.98
-0.75
-0.29
0.25
0.65
0.76
0.53
0.07
-0.43
-0.77
-0.85
-0.66
-0.29
0.15
0.53
0.78
0.81
0.61
0.25
-0.20
-0.61
-0.85
-0.88
-0.70
-0.39
-0.05
0.23
0.40
0.45
0.39
0.25
0.08
-0.08
-0.13
-0.03
0.21
0.53
0.84
1.02
0.99
0.73
0.28
-0.26
-0.77
-1.10
-1.17
-0.98
-0.61
-0.22
0.07
0.16
0.09
-0.06
-0.18
-0.20
-0.12
0.01
0.11
0.17
0.21
0.29
0.47
0.74
1.03
1.23
1.24
1.04
0.67
0.27
-0.03
-0.15
-0.14
-0.11
-0.16
-0.32
-0.54
-0.70
-0.69
-0.52
-0.27
-0.08
-0.03
-0.12
-0.31
-0.50
-0.63
-0.67
-0.62
-0.47
-0.25
0.00
0.23
0.36
0.34
0.21
0.03
-0.14
-0.28
-0.39
-0.51
-0.65
-0.77
-0.83
-0.80
-0.65
-0.42
-0.15
0.13
0.37
0.56
0.66
0.67
0.63
0.57
0.57
0.66
0.80
0.94
0.99
0.93
0.73
0.47
0.23
0.05
-0.01
0.00
0.04
0.06
0.02
-0.07
-0.15
-0.21
-0.22
-0.20
-0.17
-0.11
-0.04
0.04
0.10
0.10
-0.02
-0.22
-0.47
-0.68
-0.79
-0.76
-0.61
-0.41
-0.22
-0.11
-0.12
-0.22
-0.35
-0.42
-0.36
-0.16
0.11
0.35
0.49
0.53
0.52
0.53
0.59
0.68
0.73
0.66
0.48
0.22
-0.04
-0.22
-0.31
-0.33
-0.35
-0.40
-0.45
-0.45
-0.38
-0.25
-0.11
-0.08
-0.19
-0.40
-0.63
-0.73
-0.63
-0.38
-0.07
0.14
0.19
0.07
-0.15
-0.38
-0.55
-0.62
-0.57
-0.38
-0.11
0.20
0.44
0.54
0.49
0.34
0.15
0.00
-0.07
-0.06
0.02
0.14
0.29
0.43
0.52
0.53
0.46
0.34
0.19
0.09
0.06
0.14
0.33
0.58
0.83
0.97
0.96
0.74
0.39
-0.01
-0.33
-0.51
-0.56
-0.52
-0.42
-0.29
-0.08
0.21
0.54
0.81
0.94
0.88
0.68
0.45
0.26
0.15
0.09
-0.02
-0.21
-0.45
-0.67
-0.76
-0.69
-0.51
-0.32
-0.23
-0.30
-0.50
-0.72
-0.87
-0.88
-0.72
-0.45
-0.12
0.17
0.36
0.40
0.27
0.00
-0.33
-0.62
-0.75
-0.65
-0.35
0.08
0.49
0.76
0.82
0.69
0.42
0.09
-0.24
-0.47
-0.54
-0.37
0.00
0.51
0.95
1.17
1.07
0.69
0.20
-0.21
-0.38
-0.30
-0.09
0.11
0.17
0.06
-0.17
-0.43
-0.63
-0.75
-0.78
-0.71
-0.57
-0.34
-0.04
0.26
0.49
0.61
0.61
0.53
0.43
0.36
0.32
0.30
0.31
0.37
0.50
0.71
0.94
1.07
0.96
0.60
0.03
-0.55
-0.94
-1.01
-0.76
-0.32
0.10
0.35
0.40
0.28
0.14
0.06
0.04
0.02
-0.07
-0.28
-0.55
-0.80
-0.94
-0.97
-0.91
-0.82
-0.72
-0.62
-0.50
-0.38
-0.32
-0.40
-0.63
-0.96
-1.26
-1.40
-1.32
-1.05
-0.71
-0.42
-0.22
-0.11
-0.03
0.06
0.14
0.16
0.09
-0.04
-0.11
0.00
0.35
0.87
1.38
1.70
1.69
1.41
1.00
0.65
0.49
0.55
0.73
0.92
1.04
1.05
0.99
0.85
0.66
0.43
0.14
-0.16
-0.44
-0.65
-0.77
-0.78
-0.68
-0.46
-0.14
0.25
0.61
0.83
0.83
0.58
0.16
-0.27
-0.55
-0.57
-0.30
0.16
0.64
0.96
1.01
0.81
0.44
0.05
-0.25
-0.39
-0.41
-0.40
-0.40
-0.45
-0.50
-0.51
-0.45
-0.36
-0.28
-0.27
-0.34
-0.44
-0.50
-0.45
-0.27
-0.02
0.22
0.36
0.35
0.18
-0.05
-0.25
-0.33
-0.27
-0.10
0.06
0.14
0.12
0.06
0.04
0.12
0.28
0.44
0.49
0.40
0.16
-0.13
-0.40
-0.59
-0.71
-0.76
-0.76
-0.73
-0.68
-0.62
-0.56
-0.54
-0.52
-0.48
-0.37
-0.16
0.14
0.43
0.64
0.69
0.57
0.32
0.04
-0.21
-0.35
-0.39
-0.35
-0.27
-0.16
-0.02
0.18
0.42
0.67
0.85
0.90
0.82
0.69
0.58
0.58
0.67
0.75
0.72
0.51
0.16
-0.23
-0.51
-0.59
-0.46
-0.19
0.12
0.38
0.50
0.46
0.28
0.06
-0.11
-0.13
0.03
0.31
0.61
0.80
0.82
0.65
0.35
-0.00
-0.32
-0.54
-0.63
-0.59
-0.45
-0.27
-0.13
-0.08
-0.14
-0.23
-0.27
-0.20
-0.05
0.12
0.20
0.16
-0.01
-0.22
-0.41
-0.54
-0.64
-0.76
-0.89
-0.97
-0.90
-0.62
-0.17
0.32
0.64
0.65
0.37
-0.07
-0.45
-0.64
-0.65
-0.58
-0.54
-0.56
-0.56
-0.45
-0.17
0.22
0.56
0.73
0.65
0.41
0.14
-0.03
-0.05
0.04
0.18
0.33
0.50
0.70
0.94
1.16
1.27
1.16
0.81
0.29
-0.24
-0.64
-0.78
-0.68
-0.44
-0.18
0.02
0.15
0.25
0.35
0.43
0.41
0.24
-0.07
-0.40
-0.61
-0.61
-0.40
-0.13
0.03
-0.07
-0.41
-0.88
-1.27
-1.44
-1.34
-1.02
-0.59
-0.15
0.21
0.48
0.64
0.72
0.73
0.73
0.76
0.83
0.93
1.01
1.01
0.87
0.62
0.30
-0.02
-0.26
-0.41
-0.45
-0.38
-0.23
-0.03
0.16
0.24
0.18
-0.01
-0.26
-0.43
-0.45
-0.29
-0.01
0.25
0.40
0.38
0.21
-0.00
-0.17
-0.23
-0.18
-0.11
-0.06
-0.08
-0.13
-0.14
-0.08
0.01
0.06
-0.01
-0.21
-0.45
-0.59
-0.54
-0.31
-0.01
0.21
0.24
0.11
-0.11
-0.30
-0.39
-0.40
-0.38
-0.37
-0.38
-0.35
-0.23
-0.02
0.26
0.53
0.72
0.81
0.81
0.74
0.60
0.41
0.16
-0.13
-0.44
-0.70
-0.84
-0.79
-0.50
-0.04
0.47
0.85
0.94
0.73
0.30
-0.17
-0.51
-0.65
-0.62
-0.48
-0.32
-0.15
0.03
0.22
0.37
0.43
0.38
0.25
0.13
0.12
0.23
0.43
0.60
0.65
0.54
0.32
0.07
-0.10
-0.17
-0.19
-0.22
-0.34
-0.54
-0.72
-0.79
-0.65
-0.32
0.11
0.50
0.75
0.80
0.67
0.44
0.20
0.03
-0.04
-0.01
0.06
0.09
0.04
-0.10
-0.26
-0.38
-0.42
-0.37
-0.27
-0.17
-0.07
0.04
0.18
0.34
0.50
0.61
0.64
0.57
0.40
0.19
-0.03
-0.22
-0.33
-0.38
-0.40
-0.41
-0.43
-0.41
-0.30
-0.05
0.27
0.55
0.67
0.56
0.29
0.01
-0.11
-0.01
0.19
0.35
0.31
0.04
-0.35
-0.66
-0.74
-0.55
-0.20
0.15
0.36
0.35
0.18
-0.07
-0.26
-0.34
-0.28
-0.11
0.07
0.18
0.17
0.03
-0.17
-0.34
-0.38
-0.26
-0.02
0.25
0.45
0.51
0.43
0.27
0.07
-0.11
-0.26
-0.37
-0.47
-0.54
-0.59
-0.60
-0.58
-0.51
-0.42
-0.32
-0.19
-0.03
0.17
0.38
0.52
0.56
0.46
0.27
0.03
-0.16
-0.28
-0.31
-0.27
-0.17
-0.02
0.14
0.27
0.30
0.18
-0.09
-0.43
-0.70
-0.77
-0.58
-0.19
0.27
0.62
0.76
0.62
0.29
-0.12
-0.45
-0.59
-0.52
-0.26
0.09
0.38
0.51
0.44
0.19
-0.13
-0.39
-0.49
-0.40
-0.18
0.08
0.26
0.31
0.25
0.13
0.04
0.04
0.14
0.29
0.38
0.33
0.10
-0.25
-0.58
-0.74
-0.66
-0.37
-0.00
0.30
0.46
0.47
0.40
0.31
0.24
0.15
0.03
-0.13
-0.29
-0.37
-0.31
-0.10
0.22
0.57
0.85
0.99
1.00
0.92
0.82
0.73
0.64
0.51
0.34
0.18
0.12
0.21
0.41
0.62
0.67
0.46
0.03
-0.48
-0.91
-1.16
-1.21
-1.14
-1.03
-0.93
-0.84
-0.74
-0.62
-0.55
-0.57
-0.70
-0.86
-0.94
-0.83
-0.50
-0.05
0.37
0.62
0.65
0.53
0.38
0.28
0.26
0.26
0.18
-0.01
-0.26
-0.44
-0.42
-0.19
0.15
0.45
0.57
0.46
0.20
-0.06
-0.23
-0.29
-0.27
-0.24
-0.24
-0.23
-0.14
0.05
0.35
0.67
0.94
1.08
1.06
0.91
0.67
0.43
0.22
0.09
0.01
-0.01
-0.01
0.04
0.12
0.20
0.25
0.18
-0.00
-0.26
-0.46
-0.50
-0.33
-0.00
0.34
0.54
0.52
0.28
-0.08
-0.43
-0.69
-0.79
-0.76
-0.63
-0.46
-0.27
-0.10
0.06
0.16
0.18
0.10
-0.08
-0.31
-0.50
-0.59
-0.56
-0.44
-0.27
-0.12
-0.01
0.03
0.02
-0.04
-0.11
-0.16
-0.15
-0.05
0.13
0.34
0.48
0.48
0.30
-0.00
-0.35
-0.61
-0.72
-0.64
-0.39
-0.05
0.29
0.56
0.68
0.65
0.52
0.36
0.25
0.24
0.30
0.39
0.45
0.46
0.43
0.40
0.41
0.45
0.49
0.45
0.32
0.09
-0.20
-0.48
-0.71
-0.85
-0.87
-0.72
-0.39
0.12
0.74
1.36
1.85
2.08
2.01
1.65
1.08
0.43
-0.19
-0.67
-0.97
-1.12
-1.14
-1.10
-1.04
-0.95
-0.85
-0.72
-0.58
-0.44
-0.34
-0.29
-0.29
-0.30
-0.28
-0.19
-0.04
0.15
0.29
0.34
0.27
0.12
-0.02
-0.09
-0.05
0.02
0.03
-0.10
-0.35
-0.61
-0.74
-0.64
-0.35
0.01
0.29
0.41
0.38
0.31
0.31
0.43
0.60
0.73
0.70
0.49
0.17
-0.10
-0.19
-0.04
0.30
0.68
0.93
0.97
0.81
0.57
0.34
0.19
0.07
-0.09
-0.31
-0.59
-0.84
-0.99
-1.02
-0.95
-0.86
-0.80
-0.76
-0.70
-0.57
-0.38
-0.16
0.04
0.18
0.25
0.27
0.26
0.20
0.11
-0.00
-0.12
-0.22
-0.31
-0.41
-0.53
-0.64
-0.63
-0.45
-0.07
0.43
0.91
1.23
1.35
1.29
1.12
0.91
0.66
0.35
-0.02
-0.39
-0.68
-0.79
-0.67
-0.37
0.03
0.39
0.60
0.61
0.45
0.21
0.02
-0.01
0.12
0.36
0.62
0.79
0.82
0.72
0.54
0.35
0.18
0.03
-0.12
-0.29
-0.45
-0.59
-0.68
-0.73
-0.78
-0.85
-0.95
-1.04
-1.07
-0.99
-0.79
-0.52
-0.22
0.04
0.21
0.27
0.21
0.04
-0.16
-0.29
-0.26
-0.06
0.23
0.49
0.59
0.54
0.41
0.33
0.33
0.37
0.36
0.21
-0.03
-0.26
-0.34
-0.21
0.05
0.29
0.37
0.23
-0.05
-0.33
-0.47
-0.43
-0.27
-0.12
-0.06
-0.12
-0.25
-0.33
-0.27
-0.05
0.26
0.54
0.68
0.66
0.54
0.41
0.39
0.51
0.70
0.85
0.85
0.64
0.28
-0.14
-0.49
-0.69
-0.73
-0.66
-0.53
-0.37
-0.22
-0.10
-0.01
-0.01
-0.10
-0.24
-0.38
-0.44
-0.40
-0.31
-0.26
-0.33
-0.55
-0.85
-1.11
-1.23
-1.13
-0.82
-0.35
0.17
0.64
0.98
1.14
1.12
0.93
0.65
0.32
0.01
-0.24
-0.42
-0.48
-0.39
-0.16
0.19
0.58
0.93
1.17
1.24
1.13
0.87
0.53
0.23
0.05
0.08
0.28
0.56
0.80
0.87
0.75
0.46
0.12
-0.20
-0.45
-0.63
-0.76
-0.81
-0.79
-0.70
-0.56
-0.46
-0.44
-0.51
-0.60
-0.65
-0.60
-0.45
-0.26
-0.11
-0.08
-0.18
-0.38
-0.58
-0.71
-0.73
-0.63
-0.47
-0.34
-0.27
-0.24
-0.19
-0.05
0.19
0.47
0.68
0.75
0.68
0.53
0.42
0.40
0.47
0.59
0.69
0.76
0.81
0.88
0.95
0.99
0.93
0.74
0.45
0.11
-0.19
-0.37
-0.41
-0.31
-0.15
-0.02
0.02
-0.04
-0.20
-0.37
-0.54
-0.67
-0.79
-0.90
-0.97
-0.97
-0.82
-0.52
-0.12
0.28
0.58
0.68
0.57
0.29
-0.09
-0.47
-0.77
-0.91
-0.87
-0.68
-0.41
-0.14
0.04
0.12
0.11
0.07
0.03
-0.00
-0.03
-0.07
-0.09
-0.04
0.12
0.38
0.65
0.83
0.84
0.67
0.42
0.20
0.11
0.16
0.29
0.40
0.43
0.35
0.19
0.02
-0.12
-0.17
-0.13
-0.05
0.05
0.11
0.13
0.13
0.15
0.19
0.25
0.28
0.22
0.05
-0.18
-0.43
-0.64
-0.79
-0.87
-0.88
-0.76
-0.47
-0.03
0.46
0.85
1.02
0.93
0.67
0.38
0.17
0.07
0.01
-0.07
-0.20
-0.34
-0.43
-0.41
-0.29
-0.14
-0.05
-0.06
-0.18
-0.32
-0.36
-0.23
0.05
0.38
0.58
0.53
0.25
-0.13
-0.41
-0.46
-0.27
0.01
0.22
0.23
0.09
-0.03
0.00
0.24
0.57
0.80
0.74
0.37
-0.19
-0.71
-0.97
-0.89
-0.55
-0.12
0.24
0.42
0.44
0.36
0.24
0.12
-0.02
-0.16
-0.29
-0.37
-0.38
-0.31
-0.18
-0.02
0.15
0.29
0.37
0.35
0.22
0.00
-0.24
-0.44
-0.59
-0.70
-0.80
-0.89
-0.93
-0.84
-0.56
-0.11
0.41
0.86
1.13
1.19
1.09
0.89
0.66
0.43
0.20
-0.01
-0.16
-0.19
-0.12
0.04
0.19
0.28
0.26
0.17
0.10
0.11
0.24
0.42
0.56
0.55
0.36
0.03
-0.32
-0.57
-0.66
-0.60
-0.48
-0.38
-0.37
-0.42
-0.46
-0.42
-0.27
-0.07
0.09
0.13
0.01
-0.21
-0.43
-0.52
-0.41
-0.12
0.26
0.59
0.73
0.66
0.43
0.17
-0.01
-0.04
0.08
0.23
0.32
0.30
0.16
-0.00
-0.11
-0.14
-0.14
-0.18
-0.30
-0.47
-0.60
-0.55
-0.29
0.15
0.60
0.90
0.97
0.81
0.52
0.24
0.04
-0.07
-0.13
-0.15
-0.14
-0.11
-0.07
-0.08
-0.16
-0.32
-0.52
-0.67
-0.74
-0.70
-0.59
-0.44
-0.24
0.04
0.39
0.78
1.12
1.30
1.30
1.11
0.79
0.44
0.11
-0.15
-0.29
-0.32
-0.26
-0.21
-0.22
-0.35
-0.58
-0.83
-1.00
-1.02
-0.87
-0.59
-0.27
0.03
0.27
0.43
0.47
0.37
0.10
-0.31
-0.77
-1.14
-1.31
-1.22
-0.93
-0.54
-0.18
0.09
0.30
0.49
0.72
0.98
1.22
1.35
1.32
1.11
0.75
0.35
0.02
-0.14
-0.06
0.21
0.56
0.83
0.90
0.74
0.43
0.11
-0.11
-0.20
-0.22
-0.23
-0.26
-0.30
-0.27
-0.14
0.02
0.13
0.07
-0.19
-0.59
-0.96
-1.17
-1.11
-0.84
-0.47
-0.17
-0.09
-0.23
-0.51
-0.82
-1.05
-1.17
-1.19
-1.12
-0.92
-0.53
0.05
0.74
1.35
1.64
1.48
0.91
0.16
-0.45
-0.68
-0.50
-0.04
0.44
0.75
0.80
0.61
0.28
-0.07
-0.34
-0.47
-0.39
-0.13
0.26
0.68
1.00
1.16
1.17
1.11
1.05
1.01
0.94
0.79
0.54
0.26
0.05
-0.03
0.02
0.09
0.05
-0.16
-0.53
-0.92
-1.17
-1.19
-0.97
-0.62
-0.27
-0.04
0.03
-0.02
-0.11
-0.17
-0.20
-0.21
-0.23
-0.25
-0.27
-0.25
-0.21
-0.21
-0.30
-0.50
-0.73
-0.86
-0.79
-0.49
-0.05
0.39
0.71
0.83
0.76
0.53
0.22
-0.13
-0.46
-0.67
-0.69
-0.49
-0.10
0.33
0.67
0.80
0.72
0.52
0.33
0.24
0.26
0.34
0.39
0.34
0.16
-0.11
-0.42
-0.68
-0.82
-0.79
-0.61
-0.31
0.02
0.30
0.49
0.58
0.60
0.62
0.66
0.71
0.75
0.76
0.72
0.65
0.56
0.46
0.34
0.16
-0.09
-0.39
-0.70
-0.96
-1.14
-1.21
-1.19
-1.10
-0.96
-0.76
-0.50
-0.19
0.13
0.45
0.71
0.87
0.92
0.82
0.62
0.37
0.13
-0.08
-0.25
-0.38
-0.48
-0.51
-0.46
-0.33
-0.19
-0.10
-0.12
-0.20
-0.26
-0.22
-0.04
0.24
0.53
0.76
0.90
0.95
0.93
0.88
0.81
0.72
0.61
0.47
0.28
0.02
-0.29
-0.57
-0.72
-0.68
-0.48
-0.24
-0.10
-0.14
-0.35
-0.62
-0.85
-0.94
-0.90
-0.75
-0.54
-0.31
-0.10
0.08
0.22
0.32
0.37
0.36
0.28
0.12
-0.10
-0.31
-0.41
-0.34
-0.10
0.23
0.54
0.73
0.76
0.66
0.49
0.29
0.08
-0.10
-0.22
-0.23
-0.13
0.03
0.15
0.16
0.03
-0.16
-0.32
-0.33
-0.17
0.10
0.36
0.51
0.48
0.29
0.02
-0.23
-0.42
-0.51
-0.53
-0.52
-0.51
-0.46
-0.33
-0.11
0.18
0.44
0.56
0.51
0.35
0.20
0.18
0.36
0.69
1.03
1.22
1.17
0.88
0.46
0.05
-0.27
-0.47
-0.57
-0.64
-0.69
-0.70
-0.64
-0.50
-0.32
-0.16
-0.10
-0.17
-0.34
-0.55
-0.73
-0.83
-0.86
-0.83
-0.74
-0.57
-0.30
0.07
0.49
0.90
1.22
1.44
1.57
1.58
1.47
1.21
0.78
0.23
-0.34
-0.81
-1.07
-1.08
-0.92
-0.69
-0.51
-0.44
-0.48
-0.60
-0.75
-0.87
-0.94
-0.88
-0.66
-0.24
0.31
0.88
1.32
1.46
1.25
0.74
0.08
-0.51
-0.89
-0.98
-0.85
-0.60
-0.34
-0.12
0.04
0.17
0.25
0.27
0.22
0.07
-0.13
-0.32
-0.44
-0.43
-0.29
-0.03
0.27
0.56
0.80
0.95
0.98
0.89
0.68
0.37
0.02
-0.29
-0.49
-0.56
-0.53
-0.45
-0.38
-0.33
-0.26
-0.13
0.07
0.32
0.58
0.79
0.93
0.97
0.93
0.82
0.68
0.57
0.52
0.52
0.50
0.37
0.09
-0.29
-0.64
-0.86
-0.89
-0.79
-0.67
-0.60
-0.56
-0.45
-0.21
0.15
0.52
0.72
0.65
0.35
-0.05
-0.35
-0.44
-0.29
0.01
0.31
0.52
0.56
0.47
0.31
0.10
-0.10
-0.30
-0.50
-0.68
-0.80
-0.82
-0.74
-0.59
-0.43
-0.32
-0.26
-0.22
-0.16
-0.08
-0.03
-0.08
-0.27
-0.54
-0.80
-0.92
-0.85
-0.59
-0.21
0.20
0.57
0.87
1.06
1.12
1.01
0.74
0.38
0.02
-0.21
-0.24
-0.08
0.17
0.39
0.50
0.46
0.31
0.13
-0.02
-0.07
-0.01
0.14
0.33
0.50
0.55
0.47
0.24
-0.06
-0.33
-0.47
-0.44
-0.28
-0.09
0.04
0.03
-0.08
-0.25
-0.36
-0.35
-0.21
-0.02
0.13
0.15
0.03
-0.16
-0.30
-0.29
-0.14
0.06
0.18
0.15
-0.01
-0.21
-0.36
-0.41
-0.40
-0.39
-0.42
-0.46
-0.44
-0.29
-0.03
0.28
0.51
0.60
0.51
0.29
0.03
-0.22
-0.40
-0.50
-0.50
-0.39
-0.18
0.07
0.33
0.52
0.60
0.58
0.50
0.43
0.43
0.48
0.53
0.50
0.34
0.10
-0.13
-0.26
-0.24
-0.11
0.08
0.22
0.29
0.28
0.22
0.16
0.11
0.07
0.05
0.04
0.04
0.03
-0.03
-0.13
-0.30
-0.51
-0.71
-0.85
-0.86
-0.70
-0.41
-0.08
0.15
0.20
0.11
-0.00
0.02
0.23
0.57
0.84
0.89
0.67
0.31
-0.01
-0.11
0.02
0.26
0.42
0.39
0.19
-0.09
-0.29
-0.34
-0.28
-0.22
-0.23
-0.33
-0.44
-0.46
-0.34
-0.10
0.17
0.39
0.52
0.58
0.59
0.59
0.52
0.36
0.09
-0.24
-0.53
-0.71
-0.75
-0.71
-0.65
-0.61
-0.55
-0.42
-0.15
0.23
0.61
0.83
0.77
0.45
-0.00
-0.37
-0.48
-0.31
0.06
0.43
0.64
0.63
0.45
0.20
-0.04
-0.23
-0.39
-0.56
-0.71
-0.78
-0.71
-0.48
-0.14
0.17
0.31
0.19
-0.16
-0.60
-0.97
-1.12
-1.02
-0.73
-0.36
-0.05
0.13
0.18
0.13
0.06
0.02
0.06
0.19
0.42
0.70
0.96
1.14
1.18
1.08
0.87
0.61
0.37
0.23
0.20
0.28
0.41
0.53
0.55
0.42
0.14
-0.21
-0.51
-0.64
-0.55
-0.28
0.07
0.38
0.56
0.59
0.54
0.47
0.46
0.52
0.64
0.75
0.80
0.74
0.58
0.42
0.36
0.53
0.93
1.45
1.86
1.99
1.76
1.25
0.70
0.36
0.37
0.71
1.26
1.82
2.23
2.34
2.02
1.20
-0.13
-1.80
-3.48
-4.74
-5.21
-4.74
-3.48
-1.84
-0.28
0.80
1.19
0.94
0.22
-0.73
-1.63
-2.27
-2.51
-2.32
-1.77
-1.02
-0.26
0.35
0.76
0.97
1.07
1.09
1.05
0.91
0.62
0.23
-0.19
-0.51
-0.61
-0.46
-0.13
0.24
0.47
0.50
0.40
0.34
0.49
0.91
1.49
2.03
2.33
2.35
2.20
2.08
2.17
2.46
2.83
3.04
2.94
2.47
1.73
0.91
0.23
-0.13
-0.09
0.32
0.94
1.55
1.97
2.09
1.95
1.69
1.49
1.46
1.56
1.70
1.73
1.59
1.28
0.91
0.58
0.38
0.27
0.17
-0.05
-0.50
-1.23
-2.20
-3.32
-4.45
-5.42
-6.14
-6.56
-6.72
-6.68
-6.55
-6.45
-6.45
-6.55
-6.68
-6.70
-6.44
-5.80
-4.78
-3.48
-2.11
-0.87
0.09
0.73
1.08
1.21
1.17
1.00
0.73
0.43
0.21
0.16
0.30
0.59
0.91
1.15
1.24
1.22
1.16
1.12
1.11
1.07
0.92
0.66
0.36
0.15
0.18
0.49
1.01
1.58
2.04
2.28
2.31
2.21
2.04
1.85
1.64
1.43
1.22
1.07
0.98
0.93
0.86
0.71
0.49
0.28
0.19
0.25
0.43
0.61
0.71
0.70
0.61
0.51
0.42
0.28
0.07
-0.23
-0.53
-0.72
-0.73
-0.57
-0.37
-0.24
-0.26
-0.39
-0.53
-0.60
-0.56
-0.45
-0.34
-0.27
-0.25
-0.27
-0.32
-0.40
-0.55
-0.75
-0.98
-1.17
-1.25
-1.16
-0.91
-0.56
-0.19
0.12
0.32
0.37
0.30
0.20
0.11
0.08
0.10
0.13
0.12
0.06
-0.02
-0.09
-0.10
-0.07
-0.05
-0.07
-0.18
-0.36
-0.58
-0.76
-0.87
-0.88
-0.81
-0.69
-0.57
-0.53
-0.64
-0.94
-1.41
-1.93
-2.33
-2.45
-2.15
-1.46
-0.47
0.62
1.62
2.36
2.80
2.93
2.81
2.54
2.24
2.03
2.01
2.14
2.31
2.31
1.99
1.33
0.50
-0.24
-0.62
-0.55
-0.13
0.43
0.87
1.07
1.04
0.88
0.69
0.55
0.43
0.26
0.02
-0.26
-0.51
-0.63
-0.59
-0.41
-0.18
0.01
0.07
0.01
-0.14
-0.27
-0.35
-0.34
-0.26
-0.16
-0.09
-0.10
-0.17
-0.28
-0.41
-0.50
-0.56
-0.61
-0.67
-0.77
-0.87
-0.94
-0.93
-0.86
-0.73
-0.56
-0.34
-0.06
0.29
0.65
0.93
1.03
0.89
0.59
0.25
0.02
-0.06
-0.02
0.08
0.16
0.19
0.16
0.09
-0.03
-0.20
-0.38
-0.50
-0.50
-0.38
-0.20
-0.09
-0.09
-0.20
-0.32
-0.36
-0.25
-0.03
0.23
0.46
0.61
0.65
0.58
0.43
0.26
0.15
0.14
0.23
0.35
0.40
0.33
0.20
0.12
0.21
0.46
0.72
0.83
0.67
0.29
-0.16
-0.47
-0.56
-0.45
-0.26
-0.11
-0.07
-0.10
-0.17
-0.23
-0.28
-0.36
-0.47
-0.58
-0.61
-0.53
-0.35
-0.14
-0.01
0.01
-0.09
-0.20
-0.23
-0.10
0.15
0.40
0.51
0.40
0.13
-0.17
-0.33
-0.26
-0.00
0.28
0.40
0.28
-0.06
-0.44
-0.70
-0.70
-0.43
0.01
0.47
0.80
0.93
0.83
0.55
0.16
-0.20
-0.44
-0.49
-0.35
-0.10
0.16
0.33
0.38
0.30
0.13
-0.11
-0.38
-0.63
-0.79
-0.80
-0.63
-0.34
-0.01
0.26
0.41
0.46
0.42
0.34
0.22
0.05
-0.15
-0.34
-0.46
-0.44
-0.30
-0.13
-0.06
-0.15
-0.41
-0.70
-0.84
-0.71
-0.29
0.30
0.89
1.29
1.44
1.36
1.15
0.88
0.57
0.21
-0.15
-0.45
-0.60
-0.53
-0.29
-0.01
0.16
0.14
-0.05
-0.30
-0.47
-0.47
-0.31
-0.03
0.27
0.53
0.67
0.70
0.64
0.54
0.48
0.49
0.55
0.58
0.52
0.31
0.01
-0.27
-0.44
-0.46
-0.37
-0.29
-0.28
-0.37
-0.48
-0.51
-0.38
-0.06
0.35
0.71
0.87
0.73
0.31
-0.23
-0.72
-0.97
-0.93
-0.65
-0.27
0.06
0.22
0.18
-0.03
-0.35
-0.65
-0.85
-0.84
-0.60
-0.15
0.40
0.92
1.26
1.34
1.15
0.74
0.21
-0.31
-0.69
-0.83
-0.70
-0.39
-0.06
0.12
0.04
-0.24
-0.57
-0.76
-0.69
-0.39
0.01
0.33
0.48
0.44
0.32
0.23
0.22
0.26
0.28
0.20
0.00
-0.26
-0.50
-0.62
-0.57
-0.38
-0.12
0.13
0.30
0.39
0.45
0.51
0.60
0.68
0.69
0.57
0.33
0.08
-0.05
0.01
0.23
0.48
0.63
0.59
0.42
0.24
0.14
0.14
0.16
0.11
-0.07
-0.33
-0.55
-0.63
-0.54
-0.31
-0.05
0.17
0.25
0.17
-0.07
-0.44
-0.84
-1.16
-1.30
-1.23
-1.00
-0.72
-0.51
-0.41
-0.40
-0.41
-0.37
-0.28
-0.18
-0.09
-0.03
0.05
0.20
0.44
0.72
0.97
1.06
0.96
0.70
0.37
0.11
-0.01
0.03
0.18
0.35
0.47
0.51
0.46
0.34
0.17
-0.06
-0.31
-0.52
-0.62
-0.54
-0.30
0.03
0.33
0.50
0.52
0.41
0.27
0.15
0.10
0.08
0.04
-0.05
-0.16
-0.28
-0.37
-0.43
-0.46
-0.50
-0.53
-0.54
-0.47
-0.28
-0.00
0.32
0.59
0.74
0.73
0.59
0.38
0.17
0.01
-0.09
-0.15
-0.19
-0.25
-0.35
-0.48
-0.60
-0.65
-0.57
-0.34
0.00
0.36
0.61
0.66
0.49
0.16
-0.19
-0.44
-0.54
-0.47
-0.30
-0.10
0.10
0.24
0.34
0.38
0.34
0.23
0.06
-0.15
-0.34
-0.46
-0.47
-0.37
-0.17
0.08
0.30
0.44
0.47
0.37
0.21
0.06
-0.01
0.02
0.12
0.21
0.24
0.17
0.04
-0.09
-0.17
-0.19
-0.18
-0.17
-0.19
-0.26
-0.33
-0.37
-0.35
-0.25
-0.10
0.10
0.29
0.47
0.62
0.73
0.77
0.73
0.60
0.38
0.10
-0.16
-0.35
-0.42
-0.39
-0.26
-0.09
0.12
0.33
0.51
0.59
0.50
0.22
-0.18
-0.59
-0.86
-0.92
-0.80
-0.60
-0.47
-0.46
-0.56
-0.62
-0.54
-0.27
0.09
0.41
0.55
0.50
0.38
0.33
0.44
0.69
0.93
1.01
0.85
0.49
0.09
-0.22
-0.34
-0.30
-0.20
-0.11
-0.08
-0.07
-0.02
0.11
0.28
0.43
0.50
0.46
0.34
0.22
0.19
0.26
0.40
0.54
0.62
0.64
0.61
0.54
0.42
0.24
-0.02
-0.33
-0.63
-0.83
-0.89
-0.81
-0.62
-0.39
-0.17
0.00
0.08
0.04
-0.12
-0.36
-0.58
-0.67
-0.58
-0.33
0.00
0.25
0.29
0.11
-0.21
-0.51
-0.64
-0.56
-0.34
-0.14
-0.09
-0.18
-0.33
-0.40
-0.32
-0.13
0.06
0.12
-0.02
-0.29
-0.57
-0.72
-0.72
-0.60
-0.44
-0.33
-0.30
-0.35
-0.40
-0.38
-0.25
-0.01
0.29
0.54
0.66
0.61
0.44
0.26
0.14
0.13
0.22
0.35
0.49
0.61
0.73
0.85
0.97
1.10
1.17
1.16
1.02
0.69
0.20
-0.38
-0.92
-1.27
-1.32
-1.08
-0.63
-0.15
0.22
0.39
0.39
0.30
0.20
0.17
0.22
0.31
0.39
0.42
0.38
0.26
0.10
-0.04
-0.15
-0.20
-0.19
-0.10
0.06
0.28
0.47
0.56
0.48
0.22
-0.17
-0.53
-0.71
-0.61
-0.24
0.27
0.75
1.01
0.96
0.62
0.12
-0.38
-0.75
-0.96
-1.01
-0.97
-0.85
-0.66
-0.42
-0.17
0.01
0.07
-0.02
-0.17
-0.31
-0.39
-0.41
-0.46
-0.58
-0.75
-0.84
-0.72
-0.36
0.19
0.74
1.13
1.27
1.16
0.88
0.52
0.14
-0.19
-0.44
-0.54
-0.49
-0.30
-0.05
0.18
0.32
0.36
0.31
0.21
0.10
0.01
-0.03
-0.01
0.08
0.19
0.32
0.41
0.47
0.48
0.45
0.39
0.28
0.13
-0.05
-0.17
-0.20
-0.10
0.08
0.24
0.31
0.27
0.18
0.14
0.20
0.32
0.42
0.42
0.28
0.06
-0.15
-0.31
-0.41
-0.50
-0.62
-0.78
-0.88
-0.85
-0.64
-0.30
0.03
0.22
0.21
0.01
-0.26
-0.50
-0.61
-0.58
-0.43
-0.22
0.01
0.24
0.44
0.60
0.70
0.72
0.61
0.40
0.11
-0.18
-0.40
-0.48
-0.43
-0.29
-0.14
-0.06
-0.10
-0.24
-0.44
-0.63
-0.81
-0.95
-1.04
-1.04
-0.90
-0.58
-0.10
0.45
0.95
1.29
1.40
1.32
1.12
0.89
0.68
0.48
0.28
0.07
-0.13
-0.25
-0.26
-0.16
0.03
0.24
0.42
0.55
0.61
0.60
0.52
0.40
0.26
0.14
0.06
0.01
-0.02
-0.04
-0.05
0.01
0.15
0.38
0.62
0.78
0.77
0.57
0.20
-0.23
-0.63
-0.90
-1.01
-0.98
-0.89
-0.84
-0.85
-0.90
-0.91
-0.81
-0.58
-0.29
-0.04
0.08
0.07
-0.04
-0.18
-0.29
-0.37
-0.40
-0.37
-0.24
0.03
0.39
0.74
0.96
0.95
0.70
0.29
-0.14
-0.47
-0.62
-0.60
-0.46
-0.28
-0.10
0.03
0.13
0.19
0.25
0.33
0.46
0.62
0.79
0.91
0.96
0.89
0.72
0.46
0.18
-0.06
-0.23
-0.29
-0.27
-0.20
-0.10
-0.01
0.06
0.08
0.06
-0.01
-0.13
-0.29
-0.46
-0.61
-0.69
-0.67
-0.54
-0.31
-0.03
0.21
0.36
0.41
0.38
0.35
0.34
0.31
0.20
-0.07
-0.48
-0.90
-1.12
-1.03
-0.60
0.01
0.57
0.90
0.93
0.73
0.40
0.05
-0.25
-0.48
-0.65
-0.77
-0.85
-0.94
-1.01
-1.02
-0.91
-0.61
-0.15
0.34
0.69
0.79
0.68
0.52
0.50
0.69
1.03
1.33
1.44
1.31
1.02
0.71
0.49
0.37
0.29
0.21
0.09
-0.03
-0.10
-0.12
-0.11
-0.12
-0.21
-0.37
-0.59
-0.82
-0.99
-1.08
-1.10
-1.10
-1.08
-1.06
-0.99
-0.84
-0.58
-0.26
0.03
0.24
0.35
0.41
0.50
0.63
0.79
0.88
0.84
0.62
0.28
-0.10
-0.41
-0.57
-0.56
-0.40
-0.15
0.10
0.27
0.33
0.29
0.18
0.05
-0.06
-0.13
-0.16
-0.12
-0.01
0.16
0.34
0.47
0.49
0.38
0.19
-0.00
-0.13
-0.13
-0.00
0.24
0.54
0.81
0.95
0.89
0.64
0.28
-0.10
-0.39
-0.56
-0.62
-0.61
-0.57
-0.48
-0.31
-0.05
0.28
0.58
0.78
0.81
0.65
0.34
-0.05
-0.40
-0.61
-0.63
-0.47
-0.22
-0.00
0.11
0.08
-0.05
-0.23
-0.42
-0.60
-0.76
-0.88
-0.93
-0.85
-0.63
-0.32
0.02
0.30
0.48
0.54
0.50
0.38
0.20
-0.02
-0.24
-0.41
-0.48
-0.41
-0.22
0.05
0.34
0.58
0.76
0.85
0.88
0.81
0.65
0.40
0.10
-0.20
-0.47
-0.70
-0.86
-0.95
-0.93
-0.77
-0.48
-0.14
0.11
0.20
0.10
-0.11
-0.31
-0.39
-0.33
-0.18
0.01
0.19
0.38
0.58
0.75
0.84
0.81
0.66
0.47
0.30
0.21
0.19
0.19
0.18
0.16
0.17
0.23
0.29
0.30
0.19
-0.05
-0.37
-0.66
-0.84
-0.85
-0.70
-0.42
-0.09
0.23
0.47
0.59
0.59
0.51
0.39
0.30
0.25
0.24
0.25
0.23
0.18
0.09
0.00
-0.07
-0.13
-0.17
-0.21
-0.25
-0.29
-0.31
-0.27
-0.14
0.10
0.36
0.57
0.62
0.48
0.16
-0.23
-0.59
-0.81
-0.83
-0.65
-0.35
-0.03
0.18
0.21
0.06
-0.18
-0.37
-0.42
-0.27
-0.01
0.26
0.43
0.47
0.41
0.32
0.25
0.21
0.20
0.18
0.12
0.04
-0.04
-0.11
-0.12
-0.06
0.04
0.16
0.24
0.26
0.23
0.19
0.18
0.21
0.25
0.22
0.11
-0.08
-0.30
-0.49
-0.62
-0.70
-0.77
-0.83
-0.87
-0.86
-0.76
-0.62
-0.49
-0.41
-0.42
-0.47
-0.50
-0.43
-0.22
0.09
0.43
0.69
0.78
0.66
0.40
0.12
-0.04
-0.01
0.19
0.46
0.65
0.67
0.50
0.21
-0.08
-0.29
-0.39
-0.39
-0.35
-0.31
-0.30
-0.29
-0.21
-0.04
0.22
0.50
0.72
0.79
0.73
0.63
0.57
0.60
0.63
0.53
0.21
-0.32
-0.93
-1.38
-1.52
-1.28
-0.77
-0.16
0.36
0.70
0.82
0.75
0.56
0.27
-0.06
-0.37
-0.58
-0.61
-0.41
-0.01
0.48
0.89
1.09
1.01
0.68
0.23
-0.17
-0.39
-0.36
-0.13
0.15
0.35
0.38
0.22
-0.03
-0.25
-0.34
-0.26
-0.02
0.30
0.62
0.84
0.89
0.70
0.28
-0.30
-0.90
-1.36
-1.54
-1.39
-0.99
-0.48
-0.06
0.13
0.06
-0.20
-0.51
-0.70
-0.67
-0.42
-0.03
0.36
0.64
0.76
0.75
0.67
0.56
0.47
0.39
0.31
0.22
0.13
0.05
-0.02
-0.08
-0.16
-0.28
-0.43
-0.59
-0.70
-0.66
-0.45
-0.05
0.44
0.90
1.19
1.22
1.00
0.63
0.23
-0.07
-0.22
-0.23
-0.15
-0.03
0.07
0.14
0.17
0.15
0.08
-0.03
-0.16
-0.25
-0.28
-0.24
-0.13
0.03
0.20
0.33
0.38
0.33
0.17
-0.04
-0.21
-0.28
-0.21
-0.05
0.12
0.22
0.19
0.05
-0.14
-0.31
-0.42
-0.45
-0.42
-0.32
-0.16
0.04
0.22
0.34
0.36
0.27
0.11
-0.03
-0.13
-0.13
-0.04
0.12
0.29
0.43
0.50
0.45
0.27
-0.02
-0.35
-0.61
-0.73
-0.67
-0.51
-0.34
-0.24
-0.25
-0.33
-0.40
-0.42
-0.38
-0.35
-0.41
-0.58
-0.80
-0.96
-0.93
-0.68
-0.26
0.21
0.61
0.87
1.00
1.05
1.10
1.18
1.27
1.32
1.24
0.99
0.57
0.09
-0.31
-0.51
-0.43
-0.14
0.21
0.46
0.48
0.30
0.03
-0.20
-0.25
-0.11
0.13
0.33
0.39
0.24
-0.04
-0.36
-0.60
-0.69
-0.62
-0.45
-0.27
-0.12
-0.02
0.04
0.08
0.11
0.08
-0.01
-0.18
-0.38
-0.54
-0.61
-0.56
-0.41
-0.24
-0.13
-0.11
-0.16
-0.23
-0.28
-0.26
-0.20
-0.13
-0.05
0.04
0.14
0.25
0.29
0.22
0.03
-0.23
-0.46
-0.56
-0.48
-0.28
-0.05
0.10
0.11
0.03
-0.05
-0.04
0.10
0.31
0.48
0.54
0.43
0.22
-0.00
-0.14
-0.14
-0.02
0.15
0.32
0.46
0.56
0.63
0.62
0.51
0.31
0.12
0.03
0.09
0.26
0.41
0.39
0.19
-0.15
-0.47
-0.64
-0.61
-0.43
-0.22
-0.10
-0.12
-0.25
-0.43
-0.60
-0.69
-0.67
-0.52
-0.27
0.06
0.39
0.66
0.82
0.88
0.84
0.74
0.58
0.38
0.15
-0.09
-0.27
-0.32
-0.22
-0.02
0.21
0.36
0.37
0.28
0.12
-0.05
-0.19
-0.31
-0.44
-0.58
-0.68
-0.71
-0.66
-0.56
-0.48
-0.43
-0.44
-0.43
-0.35
-0.20
0.01
0.20
0.30
0.23
-0.00
-0.37
-0.77
-1.09
-1.24
-1.13
-0.79
-0.28
0.26
0.70
0.93
0.95
0.80
0.59
0.39
0.26
0.17
0.05
-0.12
-0.32
-0.49
-0.54
-0.42
-0.12
0.29
0.72
1.06
1.20
1.10
0.80
0.41
0.06
-0.11
-0.05
0.24
0.64
0.99
1.18
1.18
1.03
0.80
0.58
0.39
0.22
0.04
-0.15
-0.34
-0.44
-0.40
-0.23
0.01
0.21
0.27
0.15
-0.10
-0.39
-0.61
-0.70
-0.67
-0.58
-0.51
-0.52
-0.65
-0.84
-1.00
-1.05
-0.94
-0.71
-0.42
-0.17
0.02
0.15
0.27
0.41
0.53
0.57
0.47
0.20
-0.17
-0.54
-0.79
-0.85
-0.72
-0.43
-0.08
0.25
0.48
0.55
0.47
0.25
-0.01
-0.22
-0.27
-0.11
0.24
0.67
1.04
1.21
1.14
0.86
0.49
0.17
-0.01
-0.05
0.02
0.13
0.21
0.21
0.12
-0.05
-0.27
-0.49
-0.64
-0.68
-0.59
-0.43
-0.26
-0.14
-0.10
-0.07
-0.02
0.12
0.30
0.47
0.57
0.59
0.58
0.61
0.70
0.81
0.81
0.63
0.24
-0.26
-0.71
-0.97
-0.97
-0.76
-0.49
-0.29
-0.27
-0.42
-0.60
-0.66
-0.49
-0.07
0.47
0.93
1.08
0.85
0.32
-0.30
-0.77
-0.96
-0.84
-0.55
-0.25
-0.06
-0.05
-0.17
-0.32
-0.43
-0.49
-0.52
-0.57
-0.65
-0.74
-0.80
-0.76
-0.60
-0.34
-0.03
0.26
0.47
0.58
0.60
0.56
0.48
0.40
0.34
0.31
0.31
0.37
0.45
0.53
0.55
0.50
0.34
0.11
-0.11
-0.22
-0.17
0.04
0.33
0.59
0.75
0.75
0.64
0.48
0.34
0.24
0.21
0.22
0.23
0.24
0.21
0.17
0.14
0.12
0.15
0.20
0.26
0.31
0.31
0.26
0.14
-0.05
-0.28
-0.50
-0.63
-0.63
-0.51
-0.33
-0.18
-0.11
-0.13
-0.22
-0.34
-0.47
-0.61
-0.76
-0.85
-0.82
-0.64
-0.35
-0.04
0.18
0.26
0.26
0.31
0.45
0.66
0.80
0.74
0.44
-0.02
-0.46
-0.69
-0.67
-0.47
-0.23
-0.08
-0.08
-0.18
-0.28
-0.28
-0.14
0.10
0.39
0.69
0.94
1.14
1.28
1.32
1.24
1.01
0.62
0.14
-0.36
-0.78
-1.03
-1.06
-0.87
-0.54
-0.16
0.17
0.38
0.42
0.32
0.14
-0.06
-0.22
-0.35
-0.42
-0.45
-0.42
-0.35
-0.24
-0.12
0.00
0.13
0.26
0.37
0.42
0.38
0.24
0.02
-0.18
-0.28
-0.25
-0.10
0.08
0.21
0.26
0.23
0.16
0.09
0.03
-0.03
-0.14
-0.31
-0.52
-0.73
-0.90
-0.95
-0.82
-0.54
-0.16
0.18
0.35
0.29
0.03
-0.31
-0.56
-0.61
-0.44
-0.13
0.15
0.26
0.17
-0.03
-0.18
-0.17
0.04
0.34
0.57
0.62
0.45
0.15
-0.14
-0.28
-0.22
-0.01
0.26
0.51
0.65
0.68
0.61
0.48
0.31
0.13
-0.03
-0.13
-0.12
0.00
0.23
0.49
0.66
0.65
0.44
0.06
-0.35
-0.66
-0.80
-0.78
-0.65
-0.49
-0.35
-0.24
-0.15
-0.05
0.05
0.11
0.13
0.09
0.02
-0.01
0.04
0.17
0.32
0.39
0.28
-0.03
-0.46
-0.83
-0.97
-0.82
-0.45
-0.02
0.29
0.43
0.42
0.35
0.30
0.25
0.14
-0.05
-0.30
-0.46
-0.41
-0.08
0.45
1.01
1.37
1.40
1.09
0.58
0.06
-0.30
-0.43
-0.37
-0.22
-0.11
-0.06
-0.06
-0.04
0.05
0.20
0.35
0.43
0.40
0.24
0.01
-0.22
-0.36
-0.38
-0.32
-0.25
-0.25
-0.37
-0.58
-0.78
-0.86
-0.78
-0.57
-0.37
-0.28
-0.33
-0.43
-0.45
-0.29
0.03
0.39
0.68
0.81
0.80
0.72
0.62
0.47
0.23
-0.12
-0.50
-0.76
-0.74
-0.38
0.23
0.83
1.19
1.15
0.73
0.15
-0.34
-0.55
-0.46
-0.19
0.02
0.03
-0.22
-0.60
-0.94
-1.08
-1.00
-0.77
-0.49
-0.25
-0.06
0.09
0.24
0.36
0.38
0.25
-0.03
-0.38
-0.67
-0.76
-0.59
-0.20
0.30
0.74
0.99
0.98
0.72
0.32
-0.07
-0.29
-0.27
-0.02
0.33
0.62
0.71
0.54
0.20
-0.17
-0.44
-0.52
-0.45
-0.31
-0.22
-0.23
-0.30
-0.35
-0.30
-0.10
0.22
0.57
0.89
1.08
1.11
0.98
0.71
0.36
0.01
-0.28
-0.48
-0.58
-0.62
-0.63
-0.63
-0.57
-0.44
-0.18
0.18
0.58
0.93
1.11
1.09
0.87
0.54
0.20
-0.04
-0.14
-0.07
0.11
0.31
0.46
0.48
0.37
0.15
-0.10
-0.32
-0.45
-0.47
-0.40
-0.29
-0.21
-0.21
-0.31
-0.47
-0.60
-0.62
-0.47
-0.18
0.14
0.39
0.47
0.42
0.33
0.29
0.33
0.36
0.27
-0.04
-0.51
-0.97
-1.20
-1.10
-0.72
-0.26
0.07
0.14
-0.02
-0.25
-0.39
-0.37
-0.21
-0.01
0.14
0.19
0.18
0.16
0.13
0.10
0.05
-0.02
-0.06
-0.02
0.12
0.32
0.50
0.59
0.56
0.44
0.32
0.29
0.40
0.59
0.72
0.67
0.41
0.00
-0.39
-0.62
-0.64
-0.52
-0.39
-0.33
-0.35
-0.38
-0.33
-0.14
0.15
0.44
0.64
0.69
0.59
0.37
0.09
-0.18
-0.35
-0.33
-0.12
0.23
0.58
0.75
0.67
0.35
-0.07
-0.37
-0.43
-0.26
0.00
0.16
0.10
-0.16
-0.46
-0.60
-0.45
-0.07
0.36
0.63
0.60
0.27
-0.19
-0.61
-0.83
-0.80
-0.59
-0.29
0.01
0.25
0.40
0.46
0.42
0.31
0.11
-0.14
-0.41
-0.63
-0.72
-0.61
-0.29
0.18
0.70
1.12
1.28
1.15
0.75
0.24
-0.23
-0.50
-0.54
-0.41
-0.21
-0.07
-0.02
-0.06
-0.12
-0.14
-0.12
-0.08
-0.06
-0.06
-0.08
-0.11
-0.15
-0.20
-0.27
-0.35
-0.44
-0.50
-0.55
-0.57
-0.56
-0.50
-0.38
-0.20
0.01
0.17
0.21
0.13
-0.06
-0.24
-0.34
-0.28
-0.09
0.19
0.45
0.64
0.71
0.69
0.58
0.42
0.25
0.10
0.04
0.12
0.33
0.64
0.91
1.04
0.96
0.67
0.25
-0.19
-0.54
-0.74
-0.75
-0.60
-0.34
-0.07
0.12
0.14
-0.03
-0.35
-0.74
-1.07
-1.27
-1.30
-1.21
-1.06
-0.91
-0.78
-0.65
-0.52
-0.36
-0.17
0.01
0.17
0.28
0.34
0.37
0.43
0.57
0.77
0.98
1.09
1.03
0.79
0.49
0.28
0.25
0.41
0.62
0.74
0.68
0.49
0.30
0.26
0.35
0.46
0.41
0.11
-0.39
-0.87
-1.13
-1.05
-0.69
-0.22
0.16
0.32
0.31
0.22
0.20
0.29
0.48
0.68
0.81
0.82
0.73
0.59
0.44
0.31
0.21
0.12
-0.00
-0.16
-0.36
-0.55
-0.69
-0.75
-0.75
-0.74
-0.78
-0.90
-1.06
-1.13
-1.04
-0.75
-0.33
0.08
0.35
0.40
0.25
-0.01
-0.29
-0.49
-0.57
-0.52
-0.34
-0.09
0.20
0.44
0.60
0.61
0.48
0.26
0.01
-0.17
-0.23
-0.13
0.09
0.38
0.66
0.87
0.97
0.93
0.76
0.47
0.09
-0.32
-0.67
-0.87
-0.85
-0.63
-0.31
0.03
0.29
0.46
0.56
0.62
0.63
0.55
0.35
0.04
-0.29
-0.55
-0.65
-0.61
-0.50
-0.42
-0.43
-0.49
-0.50
-0.39
-0.13
0.20
0.46
0.56
0.48
0.31
0.16
0.12
0.16
0.19
0.11
-0.09
-0.35
-0.52
-0.52
-0.34
-0.05
0.24
0.46
0.60
0.72
0.85
0.99
1.08
1.08
0.94
0.70
0.41
0.15
-0.04
-0.19
-0.32
-0.49
-0.70
-0.90
-1.03
-1.03
-0.90
-0.69
-0.49
-0.37
-0.33
-0.33
-0.32
-0.26
-0.18
-0.12
-0.13
-0.17
-0.19
-0.14
-0.01
0.14
0.25
0.27
0.21
0.13
0.09
0.11
0.15
0.16
0.12
0.03
-0.04
-0.06
0.02
0.20
0.41
0.61
0.71
0.63
0.37
-0.02
-0.43
-0.70
-0.74
-0.55
-0.26
-0.01
0.08
-0.03
-0.25
-0.47
-0.59
-0.57
-0.45
-0.31
-0.21
-0.19
-0.23
-0.29
-0.29
-0.18
0.05
0.35
0.64
0.81
0.82
0.68
0.49
0.36
0.36
0.49
0.68
0.82
0.86
0.80
0.70
0.59
0.50
0.39
0.24
0.04
-0.17
-0.34
-0.42
-0.42
-0.39
-0.37
-0.39
-0.43
-0.47
-0.48
-0.44
-0.32
-0.12
0.17
0.49
0.79
0.98
1.02
0.90
0.65
0.32
-0.05
-0.42
-0.75
-0.99
-1.08
-0.99
-0.72
-0.37
-0.05
0.11
0.07
-0.13
-0.34
-0.41
-0.26
0.06
0.42
0.63
0.62
0.40
0.09
-0.18
-0.34
-0.37
-0.34
-0.31
-0.31
-0.33
-0.37
-0.42
-0.46
-0.47
-0.41
-0.27
-0.07
0.11
0.22
0.22
0.12
-0.06
-0.27
-0.47
-0.60
-0.60
-0.43
-0.10
0.33
0.76
1.03
1.05
0.82
0.45
0.09
-0.10
-0.03
0.25
0.62
0.88
0.91
0.69
0.30
-0.12
-0.45
-0.62
-0.64
-0.53
-0.30
0.01
0.35
0.67
0.88
0.93
0.81
0.58
0.31
0.06
-0.12
-0.24
-0.31
-0.36
-0.37
-0.35
-0.31
-0.27
-0.27
-0.32
-0.43
-0.55
-0.63
-0.61
-0.46
-0.22
0.05
0.25
0.31
0.22
0.02
-0.21
-0.39
-0.48
-0.47
-0.40
-0.29
-0.17
-0.03
0.13
0.27
0.35
0.30
0.10
-0.23
-0.57
-0.79
-0.77
-0.52
-0.14
0.22
0.41
0.42
0.33
0.29
0.38
0.60
0.82
0.90
0.77
0.49
0.19
0.00
0.01
0.16
0.33
0.42
0.36
0.21
0.05
-0.07
-0.12
-0.11
-0.09
-0.09
-0.12
-0.18
-0.21
-0.18
-0.05
0.18
0.42
0.57
0.55
0.33
-0.00
-0.33
-0.52
-0.53
-0.43
-0.34
-0.34
-0.46
-0.60
-0.65
-0.54
-0.30
0.00
0.26
0.42
0.49
0.52
0.54
0.53
0.44
0.22
-0.08
-0.38
-0.57
-0.56
-0.34
0.01
0.37
0.63
0.72
0.65
0.45
0.21
-0.02
-0.20
-0.27
-0.21
-0.03
0.23
0.51
0.72
0.77
0.64
0.32
-0.10
-0.55
-0.92
-1.13
-1.16
-1.06
-0.90
-0.74
-0.59
-0.44
-0.20
0.12
0.51
0.83
0.98
0.91
0.67
0.38
0.14
-0.03
-0.17
-0.30
-0.41
-0.44
-0.32
-0.04
0.29
0.53
0.59
0.46
0.24
0.06
0.02
0.11
0.25
0.33
0.27
0.07
-0.25
-0.57
-0.79
-0.83
-0.69
-0.43
-0.17
-0.03
-0.05
-0.18
-0.32
-0.33
-0.20
0.04
0.28
0.41
0.40
0.30
0.19
0.14
0.18
0.25
0.28
0.20
0.01
-0.20
-0.36
-0.39
-0.30
-0.15
-0.02
0.06
0.06
0.03
-0.05
-0.17
-0.32
-0.45
-0.49
-0.38
-0.14
0.14
0.33
0.35
0.18
-0.08
-0.30
-0.42
-0.45
-0.45
-0.48
-0.56
-0.62
-0.62
-0.51
-0.32
-0.13
0.02
0.09
0.10
0.09
0.11
0.16
0.24
0.33
0.39
0.43
0.44
0.46
0.52
0.62
0.71
0.73
0.62
0.39
0.13
-0.04
-0.05
0.13
0.39
0.60
0.64
0.47
0.16
-0.13
-0.27
-0.21
0.03
0.30
0.47
0.43
0.19
-0.16
-0.47
-0.64
-0.64
-0.49
-0.29
-0.13
-0.05
-0.06
-0.09
-0.08
-0.02
0.11
0.28
0.42
0.49
0.45
0.30
0.08
-0.14
-0.24
-0.16
0.09
0.41
0.64
0.64
0.35
-0.10
-0.52
-0.77
-0.79
-0.70
-0.63
-0.65
-0.72
-0.73
-0.59
-0.33
-0.04
0.16
0.23
0.22
0.23
0.32
0.43
0.46
0.32
0.05
-0.23
-0.39
-0.36
-0.16
0.10
0.34
0.50
0.55
0.47
0.23
-0.16
-0.67
-1.18
-1.51
-1.54
-1.23
-0.72
-0.18
0.19
0.31
0.23
0.07
-0.02
0.02
0.17
0.36
0.52
0.63
0.70
0.76
0.79
0.77
0.66
0.46
0.21
0.01
-0.07
0.01
0.22
0.46
0.63
0.64
0.50
0.27
0.06
-0.04
-0.02
0.09
0.23
0.33
0.39
0.40
0.40
0.40
0.42
0.45
0.48
0.50
0.49
0.39
0.17
-0.17
-0.58
-0.94
-1.12
-1.09
-0.87
-0.55
-0.22
0.07
0.31
0.47
0.52
0.41
0.12
-0.29
-0.71
-1.02
-1.12
-1.03
-0.80
-0.51
-0.23
-0.00
0.15
0.21
0.16
0.04
-0.09
-0.17
-0.15
-0.02
0.16
0.35
0.50
0.56
0.55
0.48
0.36
0.21
0.06
-0.07
-0.14
-0.17
-0.15
-0.13
-0.13
-0.21
-0.37
-0.58
-0.78
-0.85
-0.73
-0.41
-0.00
0.37
0.59
0.61
0.47
0.27
0.09
-0.02
-0.06
-0.05
-0.02
0.03
0.11
0.22
0.35
0.45
0.48
0.44
0.35
0.26
0.20
0.18
0.18
0.17
0.09
-0.04
-0.20
-0.33
-0.41
-0.42
-0.42
-0.41
-0.43
-0.43
-0.40
-0.30
-0.11
0.14
0.40
0.59
0.63
0.48
0.16
-0.25
-0.58
-0.69
-0.54
-0.16
0.27
0.58
0.65
0.50
0.26
0.08
0.07
0.24
0.52
0.76
0.84
0.69
0.33
-0.13
-0.58
-0.93
-1.13
-1.18
-1.10
-0.93
-0.71
-0.48
-0.27
-0.12
-0.02
0.07
0.20
0.39
0.59
0.71
0.69
0.50
0.21
-0.08
-0.29
-0.39
-0.44
-0.49
-0.54
-0.56
-0.46
-0.22
0.07
0.27
0.26
0.01
-0.35
-0.65
-0.73
-0.56
-0.22
0.15
0.44
0.62
0.70
0.71
0.63
0.45
0.17
-0.15
-0.36
-0.36
-0.13
0.24
0.60
0.84
0.92
0.87
0.78
0.69
0.60
0.47
0.31
0.14
0.02
-0.02
-0.00
0.01
-0.06
-0.22
-0.42
-0.58
-0.61
-0.50
-0.30
-0.09
0.03
0.07
0.05
0.05
0.11
0.23
0.37
0.47
0.51
0.48
0.44
0.41
0.39
0.37
0.28
0.11
-0.15
-0.42
-0.65
-0.80
-0.84
-0.79
-0.69
-0.55
-0.38
-0.22
-0.08
0.00
-0.01
-0.11
-0.26
-0.42
-0.54
-0.62
-0.67
-0.70
-0.70
-0.67
-0.59
-0.47
-0.35
-0.24
-0.17
-0.10
-0.03
0.08
0.20
0.31
0.35
0.34
0.34
0.40
0.56
0.80
0.99
1.02
0.81
0.42
0.02
-0.21
-0.17
0.10
0.44
0.66
0.63
0.37
0.00
-0.34
-0.57
-0.66
-0.66
-0.61
-0.53
-0.40
-0.23
-0.05
0.09
0.18
0.23
0.32
0.55
0.92
1.34
1.64
1.64
1.32
0.76
0.18
-0.23
-0.37
-0.27
-0.09
0.03
0.05
0.01
0.00
0.06
0.14
0.14
-0.06
-0.46
-0.96
-1.37
-1.53
-1.36
-0.95
-0.45
-0.03
0.21
0.26
0.17
0.01
-0.15
-0.25
-0.24
-0.08
0.22
0.54
0.77
0.77
0.51
0.08
-0.35
-0.63
-0.66
-0.46
-0.10
0.29
0.64
0.86
0.92
0.82
0.57
0.22
-0.15
-0.48
-0.69
-0.73
-0.62
-0.40
-0.11
0.16
0.34
0.39
0.28
0.07
-0.18
-0.36
-0.43
-0.38
-0.26
-0.13
-0.03
0.05
0.09
0.06
-0.06
-0.29
-0.57
-0.77
-0.76
-0.46
0.04
0.55
0.88
0.94
0.78
0.55
0.40
0.36
0.36
0.28
0.04
-0.31
-0.67
-0.90
-0.94
-0.82
-0.64
-0.47
-0.34
-0.22
-0.10
0.01
0.04
-0.07
-0.31
-0.57
-0.71
-0.63
-0.33
0.08
0.44
0.63
0.62
0.48
0.32
0.24
0.26
0.34
0.41
0.41
0.33
0.21
0.09
0.04
0.07
0.14
0.18
0.14
-0.01
-0.24
-0.46
-0.61
-0.60
-0.42
-0.11
0.27
0.62
0.84
0.91
0.84
0.72
0.62
0.60
0.64
0.68
0.66
0.54
0.34
0.14
-0.02
-0.11
-0.11
-0.07
-0.01
0.02
-0.02
-0.16
-0.40
-0.70
-0.93
-1.01
-0.86
-0.52
-0.12
0.17
0.25
0.12
-0.13
-0.39
-0.57
-0.68
-0.79
-0.94
-1.13
-1.26
-1.24
-1.00
-0.55
0.03
0.59
0.98
1.10
0.95
0.59
0.18
-0.13
-0.23
-0.10
0.21
0.60
0.97
1.28
1.50
1.64
1.66
1.52
1.20
0.72
0.18
-0.31
-0.62
-0.71
-0.61
-0.42
-0.24
-0.15
-0.15
-0.18
-0.20
-0.20
-0.22
-0.30
-0.44
-0.59
-0.66
-0.62
-0.48
-0.34
-0.31
-0.45
-0.72
-0.99
-1.12
-1.01
-0.70
-0.29
0.07
0.30
0.39
0.43
0.50
0.65
0.85
1.01
1.02
0.82
0.43
-0.02
-0.39
-0.52
-0.38
-0.02
0.38
0.65
0.72
0.60
0.43
0.31
0.27
0.25
0.13
-0.12
-0.45
-0.72
-0.78
-0.60
-0.27
0.05
0.24
0.22
0.05
-0.17
-0.33
-0.37
-0.28
-0.10
0.15
0.40
0.58
0.62
0.48
0.14
-0.33
-0.81
-1.14
-1.24
-1.06
-0.68
-0.22
0.20
0.51
0.67
0.70
0.62
0.44
0.18
-0.10
-0.32
-0.41
-0.37
-0.26
-0.16
-0.14
-0.21
-0.29
-0.32
-0.24
-0.09
0.07
0.17
0.17
0.12
0.07
0.06
0.06
0.05
-0.01
-0.10
-0.17
-0.16
-0.08
0.04
0.13
0.15
0.12
0.11
0.17
0.33
0.55
0.75
0.86
0.86
0.77
0.64
0.52
0.43
0.37
0.30
0.19
0.06
-0.08
-0.19
-0.28
-0.38
-0.50
-0.63
-0.74
-0.76
-0.65
-0.42
-0.17
0.00
0.01
-0.15
-0.41
-0.63
-0.72
-0.61
-0.31
0.10
0.54
0.89
1.07
1.03
0.80
0.44
0.05
-0.25
-0.38
-0.35
-0.19
0.02
0.21
0.31
0.31
0.20
0.02
-0.17
-0.28
-0.26
-0.09
0.17
0.44
0.59
0.57
0.42
0.22
0.05
-0.02
-0.01
0.05
0.11
0.13
0.11
0.03
-0.07
-0.16
-0.20
-0.14
0.02
0.22
0.36
0.33
0.12
-0.23
-0.62
-0.95
-1.18
-1.30
-1.31
-1.21
-0.97
-0.63
-0.27
-0.02
0.00
-0.20
-0.55
-0.87
-1.00
-0.87
-0.52
-0.06
0.40
0.80
1.10
1.29
1.35
1.26
1.01
0.62
0.19
-0.18
-0.41
-0.47
-0.39
-0.21
0.04
0.33
0.62
0.85
0.95
0.86
0.59
0.22
-0.14
-0.36
-0.38
-0.22
0.05
0.31
0.52
0.64
0.70
0.73
0.75
0.76
0.74
0.67
0.56
0.45
0.34
0.24
0.11
-0.10
-0.37
-0.63
-0.75
-0.65
-0.34
0.06
0.38
0.46
0.27
-0.09
-0.52
-0.92
-1.24
-1.49
-1.62
-1.58
-1.31
-0.82
-0.21
0.31
0.59
0.54
0.23
-0.18
-0.51
-0.65
-0.58
-0.36
-0.08
0.16
0.31
0.35
0.27
0.08
-0.18
-0.44
-0.61
-0.64
-0.51
-0.29
-0.04
0.15
0.27
0.33
0.39
0.45
0.49
0.48
0.40
0.32
0.33
0.50
0.83
1.19
1.40
1.36
1.04
0.56
0.10
-0.19
-0.27
-0.17
-0.02
0.10
0.11
0.02
-0.12
-0.26
-0.34
-0.34
-0.27
-0.17
-0.07
-0.00
0.02
-0.02
-0.12
-0.28
-0.51
-0.76
-1.00
-1.19
-1.27
-1.21
-1.03
-0.75
-0.43
-0.13
0.11
0.27
0.36
0.42
0.44
0.43
0.41
0.41
0.50
0.69
0.93
1.11
1.09
0.83
0.38
-0.07
-0.36
-0.41
-0.27
-0.10
-0.02
-0.06
-0.16
-0.23
-0.21
-0.13
-0.06
-0.07
-0.18
-0.33
-0.44
-0.45
-0.35
-0.18
0.00
0.13
0.16
0.09
-0.02
-0.13
-0.16
-0.09
0.07
0.27
0.41
0.43
0.33
0.16
0.01
-0.05
-0.01
0.04
0.03
-0.06
-0.18
-0.22
-0.13
0.06
0.23
0.22
0.00
-0.34
-0.63
-0.69
-0.46
0.01
0.54
0.96
1.17
1.14
0.90
0.52
0.06
-0.40
-0.81
-1.07
-1.16
-1.06
-0.84
-0.57
-0.32
-0.13
-0.01
0.06
0.07
0.03
-0.08
-0.23
-0.36
-0.40
-0.27
-0.01
0.31
0.55
0.64
0.58
0.46
0.40
0.46
0.61
0.76
0.80
0.69
0.46
0.23
0.06
0.00
-0.00
0.01
-0.00
-0.01
0.01
0.09
0.18
0.23
0.18
0.03
-0.19
-0.39
-0.51
-0.52
-0.40
-0.18
0.11
0.38
0.54
0.50
0.20
-0.29
-0.82
-1.21
-1.35
-1.23
-0.90
-0.49
-0.08
0.26
0.47
0.54
0.49
0.36
0.22
0.17
0.23
0.39
0.60
0.76
0.83
0.85
0.83
0.82
0.77
0.61
0.27
-0.24
-0.79
-1.23
-1.39
-1.20
-0.74
-0.19
0.24
0.41
0.32
0.06
-0.21
-0.40
-0.47
-0.49
-0.49
-0.51
-0.50
-0.42
-0.26
-0.06
0.10
0.16
0.13
0.08
0.05
0.07
0.08
-0.01
-0.24
-0.56
-0.81
-0.83
-0.54
-0.02
0.50
0.82
0.82
0.54
0.17
-0.11
-0.19
-0.09
0.09
0.22
0.30
0.36
0.47
0.67
0.89
1.03
1.02
0.86
0.61
0.40
0.30
0.29
0.26
0.12
-0.18
-0.55
-0.83
-0.87
-0.62
-0.16
0.30
0.59
0.64
0.53
0.41
0.40
0.52
0.65
0.65
0.45
0.08
-0.33
-0.65
-0.78
-0.75
-0.63
-0.53
-0.51
-0.59
-0.71
-0.80
-0.80
-0.73
-0.64
-0.56
-0.53
-0.50
-0.41
-0.22
0.04
0.27
0.38
0.31
0.12
-0.12
-0.31
-0.42
-0.43
-0.37
-0.22
0.00
0.28
0.57
0.78
0.87
0.82
0.67
0.47
0.25
0.02
-0.21
-0.41
-0.52
-0.48
-0.25
0.12
0.51
0.80
0.91
0.81
0.58
0.32
0.14
0.08
0.13
0.20
0.23
0.17
0.04
-0.10
-0.18
-0.15
-0.04
0.07
0.09
-0.03
-0.25
-0.52
-0.74
-0.82
-0.73
-0.48
-0.13
0.21
0.43
0.47
0.35
0.15
-0.02
-0.07
-0.01
0.09
0.17
0.20
0.20
0.18
0.16
0.11
-0.03
-0.25
-0.47
-0.58
-0.49
-0.18
0.27
0.70
1.00
1.06
0.89
0.52
0.05
-0.38
-0.63
-0.63
-0.44
-0.20
-0.09
-0.20
-0.48
-0.75
-0.79
-0.48
0.09
0.69
1.06
1.10
0.84
0.44
0.08
-0.15
-0.24
-0.25
-0.25
-0.25
-0.27
-0.32
-0.40
-0.52
-0.62
-0.66
-0.61
-0.45
-0.23
-0.06
0.02
-0.01
-0.12
-0.25
-0.35
-0.38
-0.35
-0.25
-0.10
0.08
0.22
0.31
0.33
0.30
0.28
0.28
0.28
0.20
0.00
-0.30
-0.60
-0.76
-0.71
-0.48
-0.18
0.04
0.12
0.11
0.11
0.21
0.40
0.59
0.68
0.66
0.56
0.47
0.43
0.44
0.41
0.31
0.13
-0.06
-0.18
-0.19
-0.09
0.05
0.14
0.11
-0.09
-0.45
-0.87
-1.25
-1.45
-1.36
-0.97
-0.36
0.31
0.85
1.13
1.16
1.01
0.83
0.72
0.68
0.67
0.61
0.45
0.24
0.07
0.02
0.10
0.26
0.39
0.40
0.26
0.01
-0.28
-0.52
-0.67
-0.70
-0.67
-0.61
-0.59
-0.61
-0.65
-0.65
-0.58
-0.43
-0.22
0.02
0.26
0.48
0.65
0.77
0.82
0.78
0.66
0.45
0.18
-0.12
-0.38
-0.56
-0.58
-0.43
-0.16
0.14
0.38
0.50
0.50
0.42
0.32
0.21
0.11
0.03
-0.04
-0.11
-0.21
-0.39
-0.64
-0.93
-1.13
-1.15
-0.93
-0.51
-0.01
0.43
0.73
0.88
0.91
0.89
0.85
0.78
0.69
0.56
0.40
0.22
0.04
-0.12
-0.21
-0.21
-0.14
-0.03
0.02
-0.04
-0.21
-0.40
-0.49
-0.35
0.04
0.56
1.02
1.20
1.02
0.54
-0.07
-0.58
-0.83
-0.84
-0.71
-0.61
-0.62
-0.74
-0.87
-0.93
-0.89
-0.78
-0.67
-0.58
-0.46
-0.23
0.13
0.57
0.96
1.18
1.17
0.96
0.64
0.32
0.06
-0.11
-0.18
-0.15
-0.03
0.13
0.27
0.33
0.27
0.14
0.02
-0.01
0.06
0.17
0.19
0.06
-0.21
-0.54
-0.79
-0.86
-0.75
-0.53
-0.29
-0.09
0.09
0.28
0.49
0.71
0.86
0.86
0.68
0.39
0.11
-0.03
0.03
0.28
0.57
0.76
0.77
0.59
0.29
0.02
-0.16
-0.21
-0.17
-0.13
-0.15
-0.23
-0.36
-0.47
-0.52
-0.51
-0.48
-0.49
-0.58
-0.75
-0.96
-1.11
-1.17
-1.08
-0.88
-0.58
-0.23
0.13
0.48
0.75
0.87
0.77
0.46
0.01
-0.43
-0.71
-0.70
-0.43
-0.05
0.24
0.28
0.02
-0.41
-0.81
-0.96
-0.79
-0.35
0.19
0.63
0.84
0.81
0.65
0.49
0.44
0.53
0.68
0.80
0.78
0.62
0.36
0.14
0.05
0.13
0.33
0.53
0.63
0.56
0.35
0.09
-0.16
-0.36
-0.51
-0.63
-0.72
-0.76
-0.71
-0.56
-0.34
-0.11
0.08
0.20
0.27
0.35
0.44
0.52
0.56
0.49
0.30
0.00
-0.30
-0.52
-0.58
-0.47
-0.23
0.02
0.18
0.17
-0.01
-0.29
-0.57
-0.77
-0.86
-0.83
-0.73
-0.55
-0.32
-0.05
0.21
0.42
0.52
0.52
0.45
0.38
0.36
0.44
0.60
0.81
0.99
1.05
0.92
0.60
0.18
-0.21
-0.43
-0.40
-0.14
0.24
0.59
0.82
0.89
0.83
0.68
0.46
0.19
-0.09
-0.34
-0.49
-0.52
-0.43
-0.28
-0.15
-0.12
-0.25
-0.54
-0.97
-1.42
-1.75
-1.83
-1.59
-1.08
-0.49
-0.02
0.18
0.09
-0.15
-0.35
-0.36
-0.15
0.19
0.53
0.75
0.77
0.64
0.40
0.10
-0.20
-0.44
-0.55
-0.48
-0.21
0.22
0.69
1.09
1.29
1.27
1.07
0.78
0.50
0.30
0.21
0.20
0.27
0.38
0.51
0.62
0.66
0.59
0.41
0.14
-0.14
-0.37
-0.51
-0.55
-0.56
-0.61
-0.76
-0.97
-1.14
-1.13
-0.87
-0.37
0.21
0.69
0.93
0.89
0.67
0.43
0.30
0.30
0.39
0.47
0.50
0.48
0.43
0.34
0.20
-0.06
-0.40
-0.75
-0.98
-0.99
-0.79
-0.48
-0.20
-0.04
-0.02
-0.06
-0.04
0.09
0.33
0.56
0.64
0.51
0.20
-0.17
-0.44
-0.49
-0.32
-0.01
0.29
0.45
0.44
0.27
0.04
-0.19
-0.36
-0.50
-0.62
-0.74
-0.81
-0.80
-0.66
-0.40
-0.06
0.27
0.51
0.59
0.47
0.20
-0.11
-0.35
-0.42
-0.31
-0.07
0.16
0.28
0.22
0.00
-0.25
-0.41
-0.40
-0.22
0.07
0.33
0.47
0.46
0.33
0.16
0.01
-0.08
-0.14
-0.22
-0.32
-0.41
-0.43
-0.30
-0.04
0.28
0.53
0.59
0.44
0.16
-0.11
-0.23
-0.17
0.00
0.15
0.17
0.02
-0.24
-0.50
-0.66
-0.66
-0.50
-0.24
0.07
0.36
0.58
0.69
0.67
0.53
0.32
0.14
0.08
0.16
0.31
0.44
0.42
0.22
-0.09
-0.37
-0.49
-0.41
-0.18
0.11
0.36
0.50
0.53
0.47
0.33
0.12
-0.11
-0.29
-0.35
-0.23
0.05
0.38
0.60
0.60
0.37
-0.02
-0.40
-0.64
-0.69
-0.59
-0.42
-0.31
-0.29
-0.39
-0.55
-0.72
-0.88
-1.02
-1.10
-1.06
-0.85
-0.43
0.14
0.72
1.18
1.40
1.37
1.17
0.94
0.79
0.75
0.76
0.70
0.50
0.16
-0.25
-0.58
-0.76
-0.74
-0.59
-0.41
-0.28
-0.22
-0.17
-0.08
0.11
0.36
0.61
0.76
0.78
0.68
0.52
0.40
0.36
0.39
0.42
0.36
0.15
-0.17
-0.49
-0.68
-0.67
-0.49
-0.24
-0.04
0.02
-0.03
-0.15
-0.27
-0.39
-0.53
-0.70
-0.85
-0.88
-0.73
-0.39
0.05
0.43
0.64
0.61
0.37
0.00
-0.36
-0.61
-0.68
-0.54
-0.26
0.08
0.39
0.59
0.65
0.59
0.41
0.14
-0.18
-0.49
-0.73
-0.83
-0.75
-0.52
-0.21
0.08
0.30
0.42
0.43
0.36
0.23
0.07
-0.07
-0.13
-0.07
0.08
0.25
0.37
0.39
0.35
0.31
0.35
0.45
0.57
0.63
0.57
0.42
0.26
0.14
0.09
0.12
0.20
0.31
0.46
0.62
0.73
0.69
0.39
-0.16
-0.84
-1.46
-1.83
-1.85
-1.56
-1.12
-0.69
-0.34
-0.10
0.11
0.33
0.55
0.69
0.66
0.43
0.06
-0.29
-0.51
-0.52
-0.37
-0.15
0.05
0.19
0.26
0.29
0.30
0.28
0.21
0.08
-0.07
-0.19
-0.23
-0.18
-0.06
0.08
0.21
0.31
0.34
0.32
0.23
0.10
-0.04
-0.13
-0.11
0.04
0.28
0.53
0.70
0.71
0.60
0.44
0.31
0.26
0.28
0.33
0.33
0.26
0.12
-0.10
-0.35
-0.63
-0.90
-1.15
-1.32
-1.38
-1.32
-1.12
-0.80
-0.42
-0.03
0.29
0.48
0.50
0.35
0.14
-0.03
-0.06
0.06
0.26
0.44
0.52
0.51
0.44
0.38
0.32
0.29
0.27
0.30
0.44
0.69
1.01
1.24
1.24
0.96
0.45
-0.13
-0.61
-0.88
-0.93
-0.80
-0.59
-0.37
-0.21
-0.18
-0.32
-0.60
-0.92
-1.12
-1.08
-0.80
-0.44
-0.17
-0.15
-0.36
-0.65
-0.83
-0.79
-0.56
-0.29
-0.09
-0.03
-0.04
-0.02
0.09
0.25
0.40
0.48
0.50
0.51
0.58
0.71
0.84
0.86
0.73
0.50
0.30
0.26
0.44
0.77
1.11
1.32
1.31
1.10
0.77
0.42
0.11
-0.14
-0.31
-0.40
-0.37
-0.23
-0.01
0.20
0.27
0.17
-0.08
-0.38
-0.64
-0.79
-0.84
-0.82
-0.78
-0.73
-0.69
-0.63
-0.56
-0.53
-0.56
-0.64
-0.74
-0.80
-0.74
-0.56
-0.27
0.09
0.48
0.83
1.07
1.16
1.06
0.77
0.37
-0.05
-0.35
-0.47
-0.41
-0.24
-0.03
0.13
0.23
0.27
0.27
0.26
0.24
0.25
0.29
0.41
0.61
0.84
1.07
1.22
1.27
1.21
1.07
0.86
0.60
0.29
-0.08
-0.48
-0.86
-1.13
-1.23
-1.14
-0.91
-0.66
-0.50
-0.47
-0.56
-0.67
-0.72
-0.69
-0.62
-0.59
-0.66
-0.80
-0.91
-0.88
-0.68
-0.33
0.05
0.33
0.42
0.31
0.09
-0.11
-0.16
0.01
0.38
0.81
1.15
1.28
1.16
0.86
0.51
0.23
0.09
0.07
0.15
0.29
0.43
0.57
0.67
0.71
0.66
0.53
0.33
0.12
-0.05
-0.13
-0.15
-0.15
-0.18
-0.29
-0.44
-0.57
-0.63
-0.58
-0.43
-0.22
0.00
0.19
0.31
0.34
0.28
0.12
-0.10
-0.33
-0.53
-0.67
-0.77
-0.83
-0.86
-0.84
-0.75
-0.60
-0.41
-0.23
-0.10
0.01
0.13
0.29
0.46
0.56
0.54
0.35
0.06
-0.22
-0.37
-0.33
-0.14
0.10
0.27
0.31
0.22
0.09
-0.02
-0.06
-0.06
-0.07
-0.12
-0.19
-0.19
-0.07
0.17
0.47
0.67
0.65
0.35
-0.15
-0.69
-1.07
-1.17
-0.96
-0.53
-0.06
0.30
0.47
0.45
0.37
0.31
0.34
0.45
0.54
0.54
0.44
0.28
0.15
0.13
0.22
0.35
0.44
0.40
0.22
-0.06
-0.32
-0.51
-0.58
-0.57
-0.55
-0.52
-0.48
-0.36
-0.11
0.21
0.53
0.74
0.77
0.67
0.51
0.40
0.38
0.42
0.43
0.36
0.18
-0.05
-0.28
-0.47
-0.62
-0.72
-0.78
-0.80
-0.76
-0.65
-0.50
-0.35
-0.22
-0.14
-0.09
-0.03
0.04
0.15
0.25
0.34
0.41
0.47
0.52
0.56
0.56
0.48
0.32
0.12
-0.07
-0.17
-0.17
-0.08
0.06
0.18
0.25
0.25
0.22
0.15
0.03
-0.17
-0.41
-0.62
-0.69
-0.53
-0.17
0.25
0.51
0.49
0.17
-0.27
-0.62
-0.72
-0.58
-0.33
-0.15
-0.12
-0.19
-0.21
-0.07
0.26
0.67
1.02
1.16
1.04
0.71
0.31
-0.01
-0.16
-0.13
0.03
0.21
0.33
0.35
0.27
0.09
-0.16
-0.49
-0.83
-1.11
-1.20
-1.00
-0.50
0.15
0.77
1.14
1.16
0.87
0.42
-0.04
-0.37
-0.54
-0.56
-0.46
-0.25
0.05
0.43
0.82
1.12
1.24
1.13
0.81
0.38
-0.05
-0.38
-0.56
-0.57
-0.46
-0.28
-0.11
-0.04
-0.06
-0.17
-0.30
-0.39
-0.41
-0.36
-0.29
-0.20
-0.12
-0.05
0.00
0.02
-0.00
-0.07
-0.11
-0.06
0.12
0.40
0.69
0.84
0.76
0.46
0.04
-0.35
-0.58
-0.62
-0.53
-0.42
-0.40
-0.51
-0.70
-0.89
-0.98
-0.91
-0.70
-0.38
-0.05
0.23
0.37
0.36
0.21
-0.01
-0.24
-0.42
-0.53
-0.57
-0.53
-0.41
-0.18
0.11
0.42
0.64
0.73
0.66
0.51
0.38
0.34
0.40
0.46
0.45
0.32
0.11
-0.11
-0.24
-0.29
-0.27
-0.25
-0.22
-0.16
-0.01
0.26
0.59
0.87
1.00
0.91
0.61
0.19
-0.23
-0.54
-0.70
-0.70
-0.57
-0.35
-0.11
0.09
0.21
0.20
0.04
-0.22
-0.49
-0.66
-0.61
-0.34
0.10
0.55
0.86
0.91
0.67
0.25
-0.24
-0.64
-0.89
-0.96
-0.87
-0.65
-0.33
0.03
0.38
0.64
0.75
0.69
0.52
0.35
0.27
0.33
0.53
0.80
1.05
1.21
1.23
1.08
0.78
0.38
-0.03
-0.38
-0.61
-0.72
-0.74
-0.70
-0.63
-0.51
-0.36
-0.24
-0.21
-0.29
-0.43
-0.52
-0.47
-0.29
-0.09
0.01
-0.06
-0.24
-0.42
-0.49
-0.43
-0.30
-0.18
-0.11
-0.04
0.09
0.34
0.66
0.96
1.14
1.17
1.04
0.78
0.44
0.04
-0.38
-0.79
-1.13
-1.36
-1.44
-1.38
-1.20
-0.93
-0.63
-0.33
-0.08
0.13
0.29
0.43
0.54
0.63
0.66
0.60
0.43
0.17
-0.12
-0.36
-0.47
-0.39
-0.13
0.26
0.68
0.99
1.12
1.02
0.77
0.46
0.20
0.03
-0.10
-0.26
-0.49
-0.79
-1.06
-1.18
-1.11
-0.85
-0.49
-0.13
0.18
0.43
0.65
0.82
0.93
0.90
0.70
0.35
-0.09
-0.50
-0.76
-0.80
-0.63
-0.30
0.10
0.45
0.67
0.69
0.52
0.23
-0.08
-0.29
-0.33
-0.22
-0.03
0.14
0.22
0.18
0.07
-0.05
-0.12
-0.14
-0.13
-0.12
-0.13
-0.12
-0.08
0.01
0.13
0.24
0.30
0.29
0.21
0.06
-0.11
-0.29
-0.43
-0.49
-0.47
-0.36
-0.19
0.02
0.23
0.42
0.60
0.74
0.82
0.82
0.73
0.57
0.38
0.21
0.10
0.04
0.02
0.02
0.06
0.19
0.42
0.71
0.96
1.07
0.94
0.61
0.17
-0.27
-0.58
-0.78
-0.91
-1.03
-1.18
-1.33
-1.39
-1.32
-1.10
-0.78
-0.45
-0.17
0.01
0.06
-0.00
-0.14
-0.31
-0.47
-0.60
-0.68
-0.69
-0.63
-0.49
-0.28
-0.01
0.27
0.46
0.53
0.44
0.25
0.04
-0.12
-0.17
-0.15
-0.07
0.02
0.12
0.23
0.35
0.45
0.50
0.46
0.36
0.23
0.16
0.18
0.30
0.48
0.67
0.81
0.86
0.80
0.61
0.33
0.02
-0.21
-0.29
-0.17
0.10
0.42
0.66
0.75
0.69
0.53
0.36
0.23
0.16
0.11
0.10
0.12
0.17
0.23
0.24
0.17
0.02
-0.16
-0.26
-0.26
-0.16
-0.09
-0.16
-0.41
-0.77
-1.08
-1.20
-1.07
-0.76
-0.41
-0.18
-0.14
-0.28
-0.50
-0.70
-0.79
-0.75
-0.60
-0.35
-0.06
0.24
0.49
0.64
0.67
0.60
0.49
0.40
0.39
0.47
0.58
0.66
0.66
0.56
0.39
0.19
0.00
-0.14
-0.24
-0.32
-0.39
-0.47
-0.59
-0.75
-0.93
-1.07
-1.11
-0.97
-0.65
-0.22
0.19
0.42
0.40
0.13
-0.24
-0.54
-0.61
-0.38
0.06
0.54
0.87
0.92
0.67
0.21
-0.25
-0.54
-0.56
-0.32
0.04
0.34
0.44
0.34
0.12
-0.07
-0.11
0.03
0.30
0.61
0.87
1.00
0.98
0.80
0.45
-0.02
-0.52
-0.93
-1.10
-0.98
-0.59
-0.07
0.42
0.69
0.70
0.47
0.15
-0.10
-0.17
-0.07
0.11
0.26
0.27
0.13
-0.11
-0.34
-0.47
-0.47
-0.35
-0.15
0.08
0.30
0.49
0.61
0.65
0.63
0.55
0.46
0.38
0.31
0.22
0.10
-0.05
-0.21
-0.33
-0.36
-0.30
-0.18
-0.09
-0.09
-0.19
-0.36
-0.53
-0.63
-0.64
-0.59
-0.49
-0.38
-0.25
-0.11
0.03
0.17
0.27
0.30
0.27
0.18
0.05
-0.10
-0.26
-0.38
-0.41
-0.33
-0.15
0.06
0.22
0.26
0.17
0.01
-0.14
-0.23
-0.24
-0.19
-0.12
-0.05
-0.01
-0.00
-0.02
-0.05
-0.09
-0.11
-0.09
-0.02
0.12
0.28
0.43
0.53
0.57
0.55
0.48
0.41
0.33
0.25
0.16
0.07
-0.03
-0.10
-0.13
-0.09
-0.02
0.06
0.08
0.03
-0.10
-0.25
-0.34
-0.33
-0.20
-0.00
0.18
0.27
0.25
0.17
0.10
0.10
0.16
0.24
0.29
0.28
0.28
0.32
0.44
0.59
0.68
0.64
0.49
0.29
0.10
-0.03
-0.14
-0.28
-0.48
-0.69
-0.87
-0.94
-0.89
-0.72
-0.48
-0.22
0.01
0.15
0.18
0.11
0.03
0.01
0.12
0.33
0.54
0.63
0.55
0.31
-0.01
-0.32
-0.56
-0.72
-0.80
-0.78
-0.62
-0.29
0.16
0.57
0.80
0.73
0.40
-0.00
-0.26
-0.21
0.10
0.51
0.77
0.73
0.42
-0.03
-0.40
-0.56
-0.51
-0.34
-0.14
0.02
0.14
0.21
0.22
0.17
0.05
-0.08
-0.17
-0.15
-0.05
0.05
0.08
-0.03
-0.27
-0.58
-0.86
-1.03
-1.03
-0.85
-0.53
-0.14
0.23
0.50
0.61
0.56
0.42
0.28
0.21
0.21
0.23
0.19
0.05
-0.18
-0.44
-0.62
-0.65
-0.47
-0.14
0.26
0.59
0.73
0.65
0.38
0.05
-0.22
-0.34
-0.30
-0.18
-0.04
0.09
0.21
0.39
0.64
0.93
1.15
1.20
1.01
0.61
0.08
-0.46
-0.86
-1.04
-0.96
-0.65
-0.24
0.13
0.34
0.31
0.07
-0.26
-0.54
-0.66
-0.58
-0.40
-0.23
-0.15
-0.22
-0.38
-0.57
-0.69
-0.70
-0.56
-0.28
0.07
0.43
0.70
0.83
0.80
0.66
0.45
0.23
0.06
-0.04
-0.02
0.10
0.31
0.49
0.55
0.39
0.04
-0.39
-0.73
-0.85
-0.68
-0.31
0.15
0.55
0.82
0.91
0.84
0.61
0.25
-0.18
-0.61
-0.89
-0.95
-0.77
-0.44
-0.09
0.16
0.24
0.18
0.07
0.03
0.08
0.23
0.40
0.53
0.57
0.54
0.48
0.40
0.33
0.24
0.10
-0.12
-0.40
-0.69
-0.92
-0.99
-0.85
-0.53
-0.11
0.26
0.46
0.43
0.20
-0.12
-0.40
-0.51
-0.42
-0.17
0.15
0.46
0.70
0.86
0.96
1.02
1.01
0.88
0.59
0.16
-0.33
-0.76
-1.01
-1.02
-0.83
-0.53
-0.22
0.02
0.22
0.41
0.63
0.84
0.98
0.98
0.83
0.58
0.32
0.15
0.05
0.00
-0.07
-0.18
-0.31
-0.41
-0.43
-0.40
-0.37
-0.41
-0.58
-0.86
-1.17
-1.41
-1.46
-1.26
-0.84
-0.33
0.11
0.34
0.31
0.11
-0.10
-0.18
-0.05
0.24
0.56
0.78
0.84
0.74
0.55
0.35
0.18
0.06
-0.02
-0.06
-0.06
-0.05
-0.03
-0.05
-0.11
-0.23
-0.36
-0.47
-0.54
-0.56
-0.55
-0.50
-0.43
-0.35
-0.29
-0.29
-0.38
-0.53
-0.66
-0.67
-0.49
-0.13
0.31
0.71
0.93
0.96
0.84
0.68
0.60
0.64
0.79
0.95
1.03
0.95
0.70
0.37
0.06
-0.12
-0.10
0.06
0.28
0.43
0.42
0.27
0.01
-0.27
-0.48
-0.60
-0.66
-0.67
-0.63
-0.50
-0.27
0.05
0.39
0.65
0.75
0.67
0.44
0.13
-0.20
-0.52
-0.79
-0.97
-1.01
-0.89
-0.62
-0.25
0.11
0.36
0.46
0.41
0.26
0.10
-0.01
-0.05
-0.00
0.10
0.23
0.36
0.45
0.44
0.31
0.06
-0.26
-0.57
-0.73
-0.69
-0.44
-0.07
0.27
0.48
0.51
0.44
0.36
0.33
0.36
0.39
0.34
0.19
-0.06
-0.33
-0.52
-0.57
-0.52
-0.41
-0.33
-0.34
-0.42
-0.52
-0.54
-0.42
-0.16
0.16
0.45
0.63
0.68
0.65
0.60
0.57
0.54
0.47
0.32
0.06
-0.27
-0.57
-0.73
-0.70
-0.51
-0.24
-0.02
0.05
-0.07
-0.33
-0.63
-0.84
-0.89
-0.75
-0.48
-0.18
0.03
0.07
-0.06
-0.25
-0.36
-0.26
0.06
0.50
0.86
0.99
0.85
0.57
0.32
0.23
0.29
0.43
0.52
0.53
0.51
0.51
0.58
0.69
0.74
0.70
0.54
0.35
0.21
0.17
0.19
0.23
0.20
0.06
-0.15
-0.34
-0.43
-0.37
-0.20
-0.01
0.07
-0.00
-0.18
-0.34
-0.39
-0.31
-0.17
-0.06
-0.06
-0.15
-0.26
-0.30
-0.26
-0.19
-0.19
-0.33
-0.59
-0.87
-1.01
-0.91
-0.57
-0.07
0.42
0.71
0.70
0.43
0.02
-0.31
-0.44
-0.33
-0.05
0.27
0.52
0.63
0.62
0.50
0.32
0.09
-0.17
-0.43
-0.63
-0.72
-0.67
-0.49
-0.24
-0.01
0.12
0.12
0.03
-0.09
-0.15
-0.14
-0.07
0.02
0.08
0.13
0.19
0.30
0.47
0.64
0.75
0.71
0.50
0.17
-0.20
-0.51
-0.67
-0.68
-0.54
-0.34
-0.13
0.07
0.32
0.65
1.01
1.31
1.38
1.11
0.53
-0.18
-0.78
-1.07
-0.99
-0.65
-0.26
-0.00
0.02
-0.14
-0.36
-0.48
-0.44
-0.26
-0.05
0.08
0.07
-0.04
-0.17
-0.19
-0.05
0.21
0.48
0.62
0.51
0.18
-0.30
-0.76
-1.05
-1.08
-0.85
-0.42
0.10
0.61
1.00
1.19
1.13
0.83
0.33
-0.22
-0.69
-0.94
-0.95
-0.76
-0.50
-0.27
-0.14
-0.06
0.03
0.19
0.37
0.47
0.38
0.10
-0.32
-0.70
-0.88
-0.79
-0.47
-0.05
0.32
0.54
0.59
0.53
0.43
0.37
0.37
0.42
0.44
0.36
0.17
-0.12
-0.42
-0.60
-0.59
-0.37
-0.01
0.36
0.64
0.83
0.95
1.06
1.20
1.30
1.28
1.09
0.72
0.27
-0.14
-0.39
-0.46
-0.39
-0.27
-0.19
-0.21
-0.32
-0.48
-0.64
-0.75
-0.76
-0.65
-0.45
-0.19
0.05
0.21
0.28
0.27
0.24
0.23
0.27
0.34
0.39
0.34
0.16
-0.14
-0.48
-0.74
-0.82
-0.72
-0.51
-0.32
-0.28
-0.44
-0.71
-0.95
-1.07
-1.00
-0.81
-0.57
-0.34
-0.13
0.08
0.33
0.58
0.77
0.85
0.78
0.58
0.33
0.12
0.00
0.03
0.20
0.46
0.72
0.92
1.04
1.08
1.07
1.03
0.94
0.77
0.50
0.14
-0.24
-0.57
-0.79
-0.90
-0.91
-0.83
-0.67
-0.41
-0.10
0.19
0.36
0.32
0.03
-0.42
-0.91
-1.27
-1.38
-1.23
-0.88
-0.47
-0.13
0.06
0.11
0.08
0.08
0.18
0.36
0.56
0.65
0.57
0.33
0.03
-0.21
-0.30
-0.24
-0.11
0.04
0.17
0.30
0.47
0.66
0.79
0.78
0.56
0.20
-0.17
-0.38
-0.37
-0.13
0.24
0.63
0.92
1.07
1.03
0.83
0.52
0.19
-0.09
-0.24
-0.23
-0.09
0.10
0.25
0.26
0.08
-0.30
-0.81
-1.33
-1.69
-1.74
-1.44
-0.89
-0.28
0.19
0.41
0.42
0.33
0.26
0.25
0.24
0.13
-0.12
-0.46
-0.77
-0.91
-0.81
-0.53
-0.21
0.00
0.02
-0.14
-0.35
-0.48
-0.45
-0.30
-0.11
0.03
0.09
0.14
0.26
0.51
0.84
1.15
1.30
1.27
1.09
0.84
0.63
0.50
0.42
0.34
0.22
0.06
-0.09
-0.20
-0.26
-0.28
-0.32
-0.44
-0.65
-0.93
-1.18
-1.27
-1.11
-0.68
-0.11
0.43
0.75
0.76
0.53
0.18
-0.12
-0.29
-0.32
-0.32
-0.37
-0.51
-0.67
-0.73
-0.58
-0.21
0.32
0.84
1.19
1.30
1.15
0.81
0.36
-0.11
-0.51
-0.78
-0.88
-0.78
-0.50
-0.12
0.26
0.52
0.59
0.48
0.24
0.02
-0.08
-0.01
0.22
0.51
0.78
0.99
1.14
1.27
1.39
1.48
1.45
1.24
0.86
0.41
0.02
-0.22
-0.32
-0.35
-0.42
-0.60
-0.84
-1.04
-1.10
-1.00
-0.79
-0.58
-0.48
-0.51
-0.64
-0.80
-0.92
-1.00
-1.02
-1.01
-0.96
-0.82
-0.59
-0.26
0.08
0.37
0.53
0.55
0.48
0.39
0.34
0.37
0.47
0.60
0.68
0.68
0.59
0.42
0.21
0.01
-0.17
-0.32
-0.47
-0.62
-0.76
-0.87
-0.88
-0.76
-0.53
-0.25
0.02
0.21
0.34
0.48
0.65
0.87
1.08
1.18
1.11
0.88
0.55
0.26
0.11
0.14
0.34
0.57
0.69
0.59
0.22
-0.33
-0.89
-1.28
-1.38
-1.21
-0.86
-0.48
-0.12
0.22
0.56
0.86
1.03
0.94
0.56
0.00
-0.52
-0.84
-0.88
-0.74
-0.59
-0.56
-0.64
-0.75
-0.76
-0.62
-0.35
-0.01
0.33
0.60
0.79
0.86
0.79
0.60
0.35
0.14
0.02
0.01
0.04
0.05
0.01
-0.06
-0.10
-0.05
0.08
0.22
0.29
0.23
0.07
-0.07
-0.06
0.14
0.50
0.86
1.05
0.95
0.56
-0.02
-0.64
-1.12
-1.36
-1.34
-1.08
-0.67
-0.20
0.22
0.47
0.48
0.26
-0.14
-0.56
-0.85
-0.88
-0.60
-0.11
0.43
0.83
0.99
0.90
0.66
0.40
0.21
0.12
0.07
0.01
-0.10
-0.20
-0.25
-0.18
-0.00
0.20
0.35
0.36
0.22
0.00
-0.21
-0.32
-0.26
-0.04
0.26
0.52
0.62
0.51
0.22
-0.15
-0.45
-0.58
-0.51
-0.32
-0.13
-0.03
-0.06
-0.14
-0.18
-0.12
0.02
0.15
0.18
0.08
-0.08
-0.21
-0.22
-0.12
0.02
0.08
0.02
-0.13
-0.25
-0.25
-0.13
0.01
0.03
-0.15
-0.50
-0.84
-0.98
-0.78
-0.29
0.31
0.76
0.86
0.56
-0.01
-0.59
-0.93
-0.89
-0.51
0.06
0.62
1.01
1.18
1.17
1.05
0.89
0.68
0.40
0.05
-0.32
-0.61
-0.72
-0.62
-0.38
-0.14
-0.02
-0.06
-0.20
-0.29
-0.22
0.02
0.35
0.61
0.71
0.64
0.46
0.26
0.10
-0.03
-0.14
-0.24
-0.30
-0.29
-0.17
0.03
0.24
0.36
0.30
0.08
-0.22
-0.50
-0.66
-0.68
-0.57
-0.39
-0.21
-0.05
0.11
0.30
0.52
0.70
0.77
0.66
0.41
0.08
-0.22
-0.42
-0.52
-0.53
-0.52
-0.48
-0.39
-0.22
0.03
0.33
0.60
0.77
0.85
0.84
0.80
0.74
0.63
0.46
0.20
-0.12
-0.41
-0.59
-0.61
-0.47
-0.27
-0.13
-0.11
-0.22
-0.38
-0.51
-0.57
-0.57
-0.53
-0.50
-0.45
-0.35
-0.18
0.01
0.17
0.23
0.16
0.03
-0.08
-0.11
-0.04
0.09
0.22
0.29
0.26
0.15
-0.01
-0.16
-0.23
-0.20
-0.08
0.02
0.03
-0.09
-0.30
-0.48
-0.50
-0.31
0.02
0.38
0.63
0.72
0.68
0.57
0.46
0.35
0.23
0.06
-0.13
-0.30
-0.39
-0.37
-0.27
-0.13
-0.01
0.06
0.10
0.13
0.15
0.15
0.12
0.05
-0.03
-0.07
0.00
0.20
0.47
0.68
0.71
0.48
0.05
-0.43
-0.78
-0.88
-0.72
-0.41
-0.12
0.05
0.05
-0.05
-0.18
-0.24
-0.21
-0.12
-0.02
0.07
0.12
0.14
0.13
0.08
-0.04
-0.27
-0.57
-0.89
-1.10
-1.10
-0.87
-0.46
0.01
0.40
0.62
0.70
0.70
0.72
0.79
0.89
0.94
0.87
0.69
0.44
0.23
0.14
0.19
0.30
0.37
0.32
0.15
-0.04
-0.11
0.00
0.28
0.58
0.70
0.51
0.04
-0.55
-1.05
-1.28
-1.21
-0.93
-0.58
-0.27
-0.01
0.22
0.43
0.60
0.64
0.52
0.26
-0.05
-0.28
-0.38
-0.34
-0.25
-0.21
-0.25
-0.34
-0.40
-0.37
-0.24
-0.09
0.01
0.01
-0.06
-0.10
-0.04
0.15
0.44
0.75
1.01
1.15
1.14
0.96
0.62
0.15
-0.35
-0.77
-1.01
-1.06
-0.93
-0.72
-0.51
-0.32
-0.17
-0.02
0.14
0.29
0.38
0.35
0.22
-0.00
-0.24
-0.42
-0.48
-0.39
-0.17
0.12
0.44
0.72
0.88
0.88
0.69
0.37
0.01
-0.23
-0.29
-0.16
0.03
0.13
0.04
-0.23
-0.57
-0.84
-0.94
-0.88
-0.73
-0.57
-0.47
-0.41
-0.35
-0.21
0.00
0.26
0.49
0.64
0.65
0.54
0.37
0.21
0.11
0.07
0.06
0.04
-0.01
-0.10
-0.19
-0.23
-0.17
-0.02
0.19
0.37
0.47
0.45
0.35
0.26
0.24
0.33
0.46
0.51
0.39
0.11
-0.23
-0.47
-0.53
-0.41
-0.22
-0.05
0.04
0.08
0.14
0.21
0.24
0.11
-0.22
-0.70
-1.14
-1.33
-1.17
-0.72
-0.15
0.32
0.55
0.56
0.45
0.38
0.45
0.65
0.90
1.06
1.02
0.76
0.33
-0.15
-0.55
-0.80
-0.88
-0.83
-0.72
-0.56
-0.37
-0.13
0.12
0.33
0.39
0.28
0.02
-0.26
-0.40
-0.32
-0.02
0.35
0.65
0.74
0.65
0.44
0.25
0.18
0.21
0.32
0.44
0.53
0.60
0.67
0.72
0.71
0.60
0.38
0.10
-0.18
-0.39
-0.51
-0.52
-0.44
-0.29
-0.10
0.07
0.16
0.09
-0.16
-0.53
-0.91
-1.13
-1.13
-0.92
-0.65
-0.46
-0.44
-0.55
-0.70
-0.75
-0.68
-0.54
-0.40
-0.32
-0.32
-0.33
-0.32
-0.25
-0.15
-0.01
0.15
0.34
0.57
0.81
1.02
1.15
1.17
1.06
0.84
0.53
0.16
-0.20
-0.50
-0.69
-0.71
-0.57
-0.27
0.11
0.48
0.71
0.72
0.48
0.09
-0.32
-0.57
-0.59
-0.38
-0.08
0.13
0.15
-0.01
-0.24
-0.38
-0.34
-0.12
0.19
0.45
0.56
0.47
0.24
-0.05
-0.29
-0.43
-0.45
-0.37
-0.23
-0.05
0.16
0.39
0.64
0.85
1.01
1.05
0.95
0.73
0.41
0.09
-0.16
-0.31
-0.32
-0.25
-0.15
-0.05
0.01
0.04
0.08
0.16
0.27
0.37
0.38
0.27
0.07
-0.15
-0.27
-0.22
-0.03
0.24
0.46
0.54
0.42
0.14
-0.24
-0.62
-0.96
-1.18
-1.28
-1.23
-1.06
-0.81
-0.53
-0.22
0.10
0.41
0.66
0.76
0.66
0.37
-0.04
-0.41
-0.60
-0.58
-0.39
-0.14
0.08
0.23
0.37
0.51
0.65
0.73
0.66
0.40
-0.00
-0.44
-0.78
-0.94
-0.91
-0.76
-0.54
-0.32
-0.15
0.01
0.15
0.30
0.43
0.52
0.52
0.40
0.19
-0.03
-0.20
-0.25
-0.22
-0.15
-0.12
-0.15
-0.20
-0.21
-0.12
0.07
0.31
0.54
0.69
0.72
0.63
0.43
0.17
-0.08
-0.25
-0.31
-0.26
-0.16
-0.06
0.05
0.22
0.49
0.80
1.01
0.95
0.54
-0.14
-0.86
-1.32
-1.37
-1.00
-0.41
0.12
0.40
0.39
0.19
-0.03
-0.15
-0.16
-0.11
-0.08
-0.12
-0.20
-0.28
-0.33
-0.35
-0.39
-0.46
-0.55
-0.58
-0.45
-0.17
0.17
0.44
0.51
0.35
0.03
-0.30
-0.50
-0.53
-0.39
-0.16
0.09
0.36
0.63
0.91
1.12
1.20
1.06
0.71
0.25
-0.14
-0.34
-0.28
-0.03
0.27
0.51
0.63
0.62
0.53
0.37
0.16
-0.05
-0.18
-0.15
0.09
0.47
0.84
1.02
0.94
0.64
0.25
-0.07
-0.26
-0.34
-0.38
-0.43
-0.47
-0.47
-0.40
-0.27
-0.16
-0.14
-0.21
-0.32
-0.40
-0.40
-0.35
-0.31
-0.31
-0.36
-0.40
-0.37
-0.25
-0.14
-0.11
-0.26
-0.54
-0.86
-1.03
-0.94
-0.62
-0.15
0.30
0.61
0.72
0.63
0.38
0.07
-0.24
-0.46
-0.50
-0.35
-0.04
0.34
0.63
0.73
0.60
0.31
-0.00
-0.21
-0.25
-0.14
0.05
0.22
0.34
0.37
0.38
0.39
0.41
0.42
0.34
0.14
-0.15
-0.46
-0.64
-0.60
-0.31
0.13
0.56
0.82
0.85
0.65
0.33
0.01
-0.21
-0.32
-0.38
-0.43
-0.52
-0.61
-0.67
-0.63
-0.48
-0.28
-0.09
0.00
-0.01
-0.08
-0.11
-0.04
0.14
0.33
0.42
0.36
0.17
-0.05
-0.18
-0.19
-0.12
-0.07
-0.10
-0.23
-0.38
-0.46
-0.41
-0.21
0.06
0.30
0.40
0.35
0.16
-0.06
-0.21
-0.23
-0.12
0.08
0.29
0.47
0.59
0.69
0.76
0.83
0.82
0.72
0.49
0.20
-0.06
-0.20
-0.20
-0.11
-0.02
-0.02
-0.11
-0.23
-0.27
-0.15
0.11
0.36
0.46
0.30
-0.11
-0.62
-1.04
-1.22
-1.10
-0.77
-0.37
-0.05
0.13
0.19
0.18
0.14
0.07
-0.06
-0.28
-0.56
-0.84
-1.02
-1.02
-0.86
-0.60
-0.33
-0.13
-0.02
-0.01
-0.05
-0.11
-0.16
-0.15
-0.05
0.15
0.38
0.55
0.58
0.45
0.18
-0.12
-0.36
-0.45
-0.36
-0.09
0.30
0.72
1.08
1.29
1.32
1.19
0.96
0.72
0.52
0.39
0.34
0.33
0.38
0.45
0.51
0.50
0.39
0.21
0.03
-0.08
-0.11
-0.09
-0.13
-0.32
-0.67
-1.06
-1.32
-1.28
-0.88
-0.19
0.56
1.11
1.29
1.07
0.56
-0.00
-0.42
-0.56
-0.43
-0.14
0.20
0.47
0.59
0.55
0.36
0.07
-0.27
-0.58
-0.82
-0.94
-0.93
-0.76
-0.45
-0.08
0.24
0.37
0.25
-0.11
-0.53
-0.81
-0.78
-0.43
0.09
0.54
0.68
0.45
-0.07
-0.68
-1.17
-1.45
-1.49
-1.33
-1.00
-0.54
0.02
0.61
1.12
1.44
1.50
1.35
1.07
0.78
0.58
0.45
0.38
0.29
0.18
0.02
-0.16
-0.37
-0.57
-0.72
-0.76
-0.66
-0.43
-0.12
0.17
0.36
0.44
0.43
0.36
0.28
0.19
0.11
0.04
-0.00
-0.00
0.06
0.15
0.24
0.28
0.22
0.04
-0.22
-0.50
-0.67
-0.64
-0.36
0.11
0.63
1.02
1.18
1.07
0.75
0.35
-0.04
-0.37
-0.59
-0.70
-0.68
-0.51
-0.22
0.11
0.39
0.51
0.44
0.21
-0.07
-0.30
-0.42
-0.41
-0.31
-0.20
-0.11
-0.03
0.04
0.12
0.20
0.28
0.36
0.47
0.61
0.77
0.88
0.86
0.66
0.31
-0.08
-0.40
-0.55
-0.54
-0.43
-0.31
-0.23
-0.19
-0.18
-0.18
-0.20
-0.22
-0.25
-0.23
-0.15
-0.01
0.16
0.29
0.35
0.35
0.32
0.31
0.30
0.24
0.06
-0.23
-0.55
-0.72
-0.65
-0.34
0.08
0.42
0.54
0.42
0.16
-0.08
-0.17
-0.07
0.16
0.39
0.52
0.50
0.35
0.11
-0.16
-0.37
-0.47
-0.48
-0.42
-0.39
-0.45
-0.63
-0.87
-1.08
-1.17
-1.11
-0.96
-0.77
-0.63
-0.52
-0.37
-0.11
0.28
0.73
1.08
1.23
1.16
0.95
0.74
0.65
0.69
0.76
0.71
0.42
-0.08
-0.63
-1.03
-1.09
-0.78
-0.24
0.30
0.63
0.65
0.40
0.04
-0.26
-0.43
-0.51
-0.60
-0.77
-0.99
-1.13
-1.05
-0.72
-0.20
0.33
0.72
0.86
0.79
0.59
0.40
0.31
0.34
0.45
0.62
0.76
0.85
0.84
0.72
0.53
0.30
0.08
-0.10
-0.24
-0.37
-0.49
-0.59
-0.67
-0.71
-0.71
-0.68
-0.62
-0.55
-0.48
-0.43
-0.40
-0.36
-0.28
-0.10
0.17
0.50
0.80
0.99
1.01
0.89
0.68
0.47
0.32
0.25
0.27
0.32
0.38
0.40
0.36
0.26
0.11
-0.05
-0.20
-0.28
-0.29
-0.24
-0.16
-0.09
-0.07
-0.12
-0.25
-0.44
-0.65
-0.84
-0.93
-0.88
-0.67
-0.37
-0.05
0.15
0.19
0.07
-0.13
-0.32
-0.45
-0.54
-0.63
-0.72
-0.77
-0.71
-0.46
-0.05
0.42
0.83
1.10
1.20
1.20
1.16
1.14
1.14
1.09
0.95
0.66
0.28
-0.15
-0.52
-0.77
-0.88
-0.86
-0.72
-0.51
-0.24
0.06
0.35
0.55
0.59
0.46
0.24
0.05
-0.02
0.07
0.24
0.38
0.41
0.31
0.15
-0.02
-0.17
-0.31
-0.48
-0.68
-0.88
-1.02
-1.02
-0.88
-0.64
-0.38
-0.14
0.05
0.18
0.28
0.34
0.34
0.28
0.18
0.08
0.01
-0.01
0.02
0.10
0.24
0.38
0.45
0.38
0.16
-0.14
-0.38
-0.40
-0.16
0.24
0.56
0.59
0.26
-0.32
-0.88
-1.18
-1.09
-0.68
-0.13
0.37
0.70
0.86
0.90
0.90
0.86
0.81
0.71
0.57
0.41
0.26
0.14
0.04
-0.07
-0.22
-0.39
-0.56
-0.67
-0.69
-0.58
-0.38
-0.14
0.04
0.08
-0.07
-0.34
-0.64
-0.85
-0.90
-0.78
-0.58
-0.36
-0.18
-0.04
0.08
0.22
0.37
0.50
0.57
0.59
0.58
0.57
0.55
0.50
0.39
0.22
0.03
-0.11
-0.14
-0.04
0.14
0.34
0.49
0.53
0.45
0.27
0.02
-0.24
-0.47
-0.61
-0.63
-0.53
-0.32
-0.04
0.22
0.40
0.42
0.28
0.02
-0.26
-0.41
-0.36
-0.13
0.14
0.30
0.23
-0.03
-0.30
-0.42
-0.28
0.05
0.41
0.61
0.59
0.42
0.23
0.12
0.09
0.09
0.04
-0.08
-0.27
-0.47
-0.67
-0.89
-1.11
-1.29
-1.34
-1.22
-0.92
-0.53
-0.14
0.20
0.50
0.79
1.08
1.34
1.47
1.43
1.24
0.98
0.78
0.69
0.70
0.72
0.66
0.45
0.15
-0.17
-0.41
-0.52
-0.50
-0.43
-0.37
-0.37
-0.38
-0.38
-0.29
-0.12
0.10
0.28
0.35
0.27
0.09
-0.14
-0.36
-0.54
-0.67
-0.75
-0.77
-0.72
-0.60
-0.43
-0.23
-0.03
0.14
0.29
0.40
0.44
0.41
0.27
0.08
-0.09
-0.15
-0.04
0.24
0.62
0.95
1.12
1.03
0.71
0.27
-0.15
-0.42
-0.51
-0.46
-0.41
-0.46
-0.65
-0.90
-1.09
-1.10
-0.92
-0.61
-0.27
-0.02
0.09
0.07
-0.04
-0.19
-0.33
-0.43
-0.48
-0.50
-0.48
-0.43
-0.33
-0.20
-0.05
0.10
0.22
0.30
0.31
0.29
0.24
0.22
0.24
0.34
0.49
0.67
0.84
0.95
1.00
1.02
1.02
1.02
1.00
0.90
0.67
0.32
-0.09
-0.47
-0.72
-0.80
-0.72
-0.55
-0.36
-0.19
-0.04
0.12
0.28
0.44
0.55
0.55
0.43
0.22
0.03
-0.06
0.02
0.23
0.42
0.46
0.25
-0.16
-0.64
-1.00
-1.11
-0.96
-0.63
-0.26
0.01
0.11
0.04
-0.14
-0.37
-0.57
-0.68
-0.69
-0.57
-0.35
-0.05
0.27
0.53
0.66
0.62
0.39
0.05
-0.32
-0.61
-0.76
-0.76
-0.65
-0.47
-0.26
-0.03
0.20
0.40
0.50
0.48
0.32
0.09
-0.13
-0.26
-0.26
-0.17
-0.02
0.15
0.33
0.53
0.73
0.91
1.02
1.01
0.88
0.65
0.35
0.04
-0.26
-0.52
-0.69
-0.74
-0.65
-0.45
-0.19
0.06
0.24
0.32
0.30
0.17
-0.05
-0.32
-0.57
-0.75
-0.79
-0.67
-0.44
-0.18
0.03
0.15
0.16
0.13
0.08
0.08
0.13
0.22
0.29
0.31
0.23
0.05
-0.19
-0.44
-0.62
-0.69
-0.64
-0.49
-0.29
-0.10
0.06
0.16
0.21
0.25
0.27
0.28
0.25
0.15
0.00
-0.14
-0.20
-0.11
0.10
0.36
0.54
0.58
0.45
0.23
0.00
-0.14
-0.16
-0.06
0.15
0.40
0.66
0.88
1.04
1.11
1.10
1.04
0.95
0.85
0.73
0.61
0.48
0.38
0.33
0.34
0.37
0.33
0.17
-0.14
-0.56
-1.00
-1.36
-1.57
-1.62
-1.52
-1.32
-1.08
-0.83
-0.60
-0.43
-0.37
-0.41
-0.52
-0.64
-0.69
-0.63
-0.48
-0.29
-0.10
0.05
0.15
0.24
0.34
0.49
0.69
0.94
1.18
1.34
1.36
1.20
0.91
0.56
0.25
0.02
-0.13
-0.22
-0.30
-0.35
-0.33
-0.20
0.01
0.23
0.33
0.22
-0.09
-0.50
-0.83
-0.92
-0.69
-0.19
0.41
0.89
1.10
0.99
0.64
0.21
-0.14
-0.35
-0.43
-0.46
-0.49
-0.51
-0.49
-0.41
-0.31
-0.28
-0.39
-0.64
-0.93
-1.11
-1.10
-0.90
-0.64
-0.44
-0.39
-0.43
-0.43
-0.26
0.07
0.45
0.70
0.70
0.48
0.21
0.07
0.18
0.49
0.86
1.10
1.14
1.00
0.76
0.53
0.35
0.19
0.02
-0.15
-0.29
-0.35
-0.32
-0.19
-0.01
0.18
0.28
0.27
0.14
-0.07
-0.27
-0.39
-0.39
-0.32
-0.23
-0.19
-0.19
-0.17
-0.08
0.11
0.35
0.58
0.71
0.71
0.57
0.35
0.10
-0.09
-0.17
-0.12
0.05
0.26
0.41
0.48
0.45
0.42
0.49
0.69
1.00
1.28
1.37
1.17
0.71
0.13
-0.37
-0.66
-0.70
-0.63
-0.60
-0.72
-1.00
-1.31
-1.52
-1.54
-1.37
-1.08
-0.79
-0.55
-0.42
-0.41
-0.51
-0.68
-0.85
-0.92
-0.80
-0.46
0.01
0.44
0.69
0.66
0.42
0.12
-0.07
-0.02
0.23
0.56
0.78
0.75
0.47
0.04
-0.35
-0.55
-0.48
-0.22
0.08
0.28
0.29
0.14
-0.05
-0.17
-0.17
-0.08
0.02
0.07
0.04
-0.01
-0.05
-0.04
0.01
0.05
0.08
0.07
0.07
0.09
0.14
0.22
0.28
0.26
0.11
-0.18
-0.56
-0.90
-1.04
-0.87
-0.37
0.34
1.08
1.66
1.96
1.93
1.61
1.06
0.38
-0.32
-0.89
-1.21
-1.20
-0.85
-0.28
0.31
0.73
0.87
0.76
0.52
0.32
0.28
0.39
0.60
0.77
0.81
0.71
0.51
0.32
0.20
0.18
0.20
0.17
0.02
-0.24
-0.52
-0.70
-0.68
-0.44
-0.11
0.16
0.23
0.07
-0.25
-0.62
-0.93
-1.13
-1.22
-1.21
-1.10
-0.88
-0.59
-0.30
-0.09
-0.05
-0.15
-0.31
-0.44
-0.46
-0.38
-0.25
-0.17
-0.16
-0.21
-0.27
-0.30
-0.28
-0.20
-0.10
0.03
0.20
0.39
0.58
0.71
0.73
0.62
0.41
0.20
0.08
0.10
0.27
0.53
0.80
0.99
1.01
0.85
0.52
0.12
-0.22
-0.38
-0.31
-0.07
0.19
0.32
0.21
-0.12
-0.54
-0.90
-1.08
-1.03
-0.81
-0.48
-0.13
0.19
0.44
0.59
0.61
0.47
0.18
-0.18
-0.51
-0.70
-0.71
-0.53
-0.24
0.07
0.34
0.50
0.56
0.51
0.37
0.20
0.03
-0.06
-0.05
0.04
0.18
0.29
0.37
0.38
0.33
0.22
0.02
-0.24
-0.50
-0.67
-0.66
-0.45
-0.12
0.21
0.44
0.55
0.55
0.51
0.47
0.42
0.29
0.04
-0.32
-0.73
-1.06
-1.19
-1.06
-0.67
-0.13
0.38
0.70
0.73
0.51
0.20
-0.05
-0.11
0.00
0.17
0.25
0.15
-0.11
-0.40
-0.58
-0.54
-0.26
0.19
0.65
0.99
1.12
0.98
0.62
0.16
-0.26
-0.52
-0.54
-0.35
-0.05
0.23
0.38
0.34
0.15
-0.12
-0.39
-0.62
-0.80
-0.92
-0.97
-0.89
-0.63
-0.21
0.29
0.75
1.03
1.06
0.89
0.59
0.29
0.05
-0.09
-0.15
-0.16
-0.15
-0.15
-0.18
-0.23
-0.28
-0.30
-0.24
-0.07
0.18
0.44
0.59
0.58
0.38
0.07
-0.23
-0.41
-0.42
-0.29
-0.12
-0.02
-0.04
-0.18
-0.36
-0.46
-0.43
-0.26
-0.02
0.19
0.28
0.24
0.12
-0.02
-0.10
-0.11
-0.07
-0.05
-0.10
-0.23
-0.40
-0.52
-0.53
-0.38
-0.10
0.21
0.45
0.56
0.53
0.43
0.32
0.26
0.23
0.20
0.13
0.04
-0.03
-0.02
0.09
0.26
0.42
0.51
0.51
0.45
0.36
0.24
0.10
-0.07
-0.23
-0.34
-0.34
-0.21
-0.01
0.16
0.21
0.06
-0.26
-0.66
-1.01
-1.19
-1.12
-0.85
-0.47
-0.09
0.18
0.30
0.27
0.14
-0.00
-0.10
-0.10
-0.01
0.17
0.39
0.65
0.89
1.08
1.18
1.14
0.95
0.58
0.09
-0.41
-0.78
-0.87
-0.64
-0.17
0.38
0.83
1.05
1.03
0.87
0.69
0.55
0.50
0.46
0.38
0.21
-0.07
-0.42
-0.78
-1.08
-1.25
-1.27
-1.15
-0.95
-0.70
-0.45
-0.19
0.07
0.28
0.40
0.39
0.28
0.13
0.04
0.05
0.12
0.16
0.09
-0.09
-0.32
-0.50
-0.57
-0.54
-0.48
-0.43
-0.42
-0.41
-0.35
-0.23
-0.08
0.02
0.03
-0.08
-0.26
-0.43
-0.52
-0.47
-0.31
-0.12
0.01
0.02
-0.09
-0.23
-0.32
-0.31
-0.20
-0.06
0.06
0.15
0.20
0.21
0.19
0.15
0.13
0.16
0.28
0.48
0.68
0.80
0.76
0.58
0.34
0.17
0.12
0.22
0.40
0.58
0.67
0.65
0.52
0.29
0.03
-0.22
-0.40
-0.50
-0.50
-0.42
-0.29
-0.12
0.06
0.21
0.34
0.45
0.56
0.66
0.73
0.69
0.50
0.14
-0.29
-0.65
-0.81
-0.71
-0.40
0.00
0.37
0.63
0.77
0.81
0.77
0.65
0.43
0.13
-0.19
-0.44
-0.54
-0.51
-0.41
-0.31
-0.27
-0.31
-0.37
-0.40
-0.34
-0.19
0.03
0.29
0.51
0.66
0.69
0.62
0.48
0.30
0.12
-0.05
-0.23
-0.40
-0.54
-0.58
-0.48
-0.25
-0.00
0.14
0.07
-0.20
-0.55
-0.79
-0.79
-0.55
-0.18
0.16
0.33
0.28
0.08
-0.17
-0.38
-0.55
-0.71
-0.89
-1.07
-1.18
-1.16
-0.95
-0.60
-0.21
0.10
0.25
0.22
0.08
-0.05
-0.08
0.04
0.28
0.55
0.79
0.93
1.01
1.04
1.03
0.98
0.85
0.64
0.39
0.20
0.11
0.15
0.24
0.26
0.12
-0.21
-0.65
-1.10
-1.43
-1.58
-1.52
-1.28
-0.91
-0.47
-0.02
0.42
0.83
1.17
1.39
1.42
1.22
0.84
0.37
-0.04
-0.28
-0.31
-0.21
-0.08
-0.03
-0.06
-0.13
-0.18
-0.17
-0.14
-0.15
-0.25
-0.42
-0.60
-0.72
-0.72
-0.61
-0.46
-0.34
-0.30
-0.35
-0.47
-0.58
-0.65
-0.62
-0.46
-0.18
0.21
0.64
1.00
1.21
1.23
1.09
0.86
0.64
0.49
0.44
0.49
0.60
0.73
0.83
0.86
0.79
0.63
0.40
0.16
-0.05
-0.23
-0.36
-0.47
-0.53
-0.51
-0.40
-0.21
0.01
0.17
0.20
0.08
-0.14
-0.38
-0.53
-0.53
-0.37
-0.16
-0.00
-0.02
-0.23
-0.56
-0.85
-0.93
-0.72
-0.27
0.27
0.70
0.88
0.76
0.40
-0.06
-0.47
-0.70
-0.67
-0.37
0.11
0.64
1.06
1.22
1.05
0.61
0.07
-0.39
-0.61
-0.56
-0.33
-0.04
0.16
0.22
0.16
0.03
-0.13
-0.30
-0.46
-0.62
-0.76
-0.87
-0.91
-0.85
-0.69
-0.42
-0.07
0.32
0.66
0.94
1.12
1.24
1.27
1.22
1.06
0.79
0.45
0.12
-0.11
-0.22
-0.25
-0.24
-0.22
-0.18
-0.08
0.07
0.21
0.28
0.23
0.07
-0.11
-0.21
-0.18
-0.03
0.17
0.35
0.44
0.44
0.39
0.31
0.19
0.00
-0.29
-0.65
-1.01
-1.24
-1.22
-0.91
-0.42
0.07
0.36
0.32
-0.03
-0.54
-1.00
-1.22
-1.13
-0.74
-0.18
0.40
0.83
0.99
0.85
0.45
-0.08
-0.55
-0.80
-0.74
-0.41
0.02
0.36
0.44
0.24
-0.15
-0.56
-0.81
-0.80
-0.53
-0.10
0.36
0.71
0.89
0.86
0.70
0.48
0.27
0.12
0.03
0.01
0.05
0.17
0.34
0.54
0.68
0.68
0.51
0.21
-0.08
-0.22
-0.14
0.11
0.40
0.60
0.64
0.54
0.35
0.15
-0.05
-0.24
-0.39
-0.46
-0.40
-0.22
0.00
0.16
0.16
-0.02
-0.30
-0.61
-0.85
-0.99
-1.01
-0.92
-0.73
-0.49
-0.22
0.01
0.17
0.26
0.30
0.36
0.46
0.60
0.72
0.75
0.64
0.41
0.16
-0.01
0.01
0.23
0.55
0.82
0.92
0.76
0.38
-0.11
-0.58
-0.92
-1.08
-1.06
-0.91
-0.70
-0.50
-0.38
-0.38
-0.44
-0.49
-0.45
-0.29
-0.06
0.12
0.16
0.04
-0.18
-0.36
-0.41
-0.32
-0.13
0.06
0.21
0.30
0.34
0.34
0.29
0.19
0.07
-0.03
-0.07
-0.01
0.10
0.20
0.24
0.20
0.10
-0.02
-0.12
-0.18
-0.14
0.02
0.31
0.67
0.99
1.12
0.96
0.51
-0.12
-0.74
-1.19
-1.33
-1.14
-0.71
-0.18
0.28
0.53
0.52
0.31
0.07
-0.06
0.00
0.23
0.50
0.67
0.65
0.46
0.20
-0.05
-0.24
-0.35
-0.38
-0.32
-0.14
0.16
0.50
0.81
0.97
0.96
0.83
0.66
0.51
0.41
0.35
0.29
0.23
0.17
0.15
0.12
0.05
-0.11
-0.34
-0.60
-0.78
-0.81
-0.69
-0.46
-0.23
-0.04
0.08
0.16
0.24
0.32
0.35
0.27
0.06
-0.28
-0.65
-0.94
-1.04
-0.93
-0.66
-0.32
-0.05
0.10
0.11
0.03
-0.07
-0.13
-0.13
-0.07
0.02
0.13
0.22
0.25
0.19
-0.01
-0.31
-0.65
-0.93
-1.03
-0.92
-0.63
-0.28
-0.02
0.05
-0.07
-0.28
-0.45
-0.46
-0.26
0.07
0.43
0.70
0.83
0.84
0.81
0.80
0.85
0.90
0.87
0.70
0.38
-0.02
-0.44
-0.80
-1.07
-1.26
-1.36
-1.33
-1.15
-0.78
-0.28
0.24
0.63
0.79
0.71
0.46
0.16
-0.09
-0.21
-0.21
-0.12
0.02
0.16
0.28
0.37
0.42
0.47
0.54
0.66
0.79
0.87
0.89
0.83
0.73
0.65
0.57
0.46
0.28
0.04
-0.22
-0.39
-0.41
-0.29
-0.12
0.04
0.14
0.21
0.29
0.37
0.42
0.39
0.27
0.10
-0.06
-0.15
-0.16
-0.13
-0.10
-0.06
-0.01
0.10
0.25
0.34
0.29
0.03
-0.43
-0.94
-1.34
-1.51
-1.42
-1.18
-0.92
-0.72
-0.57
-0.40
-0.15
0.16
0.43
0.54
0.44
0.20
-0.02
-0.10
-0.00
0.22
0.41
0.48
0.38
0.15
-0.11
-0.34
-0.48
-0.53
-0.49
-0.38
-0.23
-0.05
0.12
0.26
0.32
0.28
0.15
-0.04
-0.23
-0.37
-0.42
-0.38
-0.29
-0.19
-0.12
-0.04
0.07
0.27
0.53
0.78
0.92
0.90
0.74
0.52
0.38
0.36
0.41
0.41
0.26
-0.07
-0.46
-0.74
-0.76
-0.50
-0.10
0.21
0.24
-0.04
-0.50
-0.92
-1.08
-0.93
-0.52
-0.00
0.45
0.75
0.85
0.80
0.63
0.43
0.25
0.14
0.12
0.16
0.25
0.38
0.52
0.65
0.71
0.63
0.35
-0.09
-0.59
-1.00
-1.19
-1.12
-0.84
-0.48
-0.10
0.24
0.51
0.67
0.69
0.52
0.22
-0.10
-0.28
-0.24
-0.00
0.30
0.51
0.53
0.37
0.15
-0.03
-0.08
-0.03
0.03
0.02
-0.08
-0.21
-0.27
-0.16
0.09
0.40
0.59
0.55
0.27
-0.14
-0.49
-0.64
-0.52
-0.24
0.06
0.24
0.23
0.11
-0.02
-0.05
0.07
0.26
0.43
0.46
0.31
0.04
-0.27
-0.49
-0.57
-0.55
-0.50
-0.51
-0.59
-0.71
-0.78
-0.74
-0.58
-0.33
-0.08
0.13
0.27
0.32
0.29
0.18
0.01
-0.18
-0.31
-0.29
-0.08
0.26
0.61
0.82
0.80
0.57
0.23
-0.08
-0.26
-0.28
-0.23
-0.17
-0.15
-0.16
-0.16
-0.12
-0.06
-0.05
-0.15
-0.34
-0.57
-0.72
-0.66
-0.37
0.10
0.61
0.98
1.10
0.94
0.57
0.10
-0.32
-0.62
-0.74
-0.67
-0.46
-0.17
0.09
0.22
0.18
0.00
-0.23
-0.38
-0.40
-0.26
-0.04
0.18
0.33
0.39
0.37
0.31
0.24
0.18
0.13
0.09
0.06
0.06
0.08
0.16
0.28
0.42
0.55
0.67
0.77
0.86
0.93
0.92
0.78
0.50
0.15
-0.15
-0.32
-0.33
-0.29
-0.31
-0.43
-0.63
-0.77
-0.78
-0.62
-0.35
-0.10
0.05
0.07
-0.01
-0.16
-0.36
-0.57
-0.75
-0.83
-0.75
-0.48
-0.08
0.37
0.75
0.97
0.99
0.84
0.56
0.24
-0.06
-0.26
-0.37
-0.41
-0.41
-0.43
-0.45
-0.43
-0.35
-0.21
-0.05
0.05
0.08
0.05
0.03
0.07
0.18
0.33
0.46
0.51
0.47
0.35
0.19
0.03
-0.10
-0.18
-0.23
-0.28
-0.38
-0.58
-0.84
-1.03
-1.03
-0.75
-0.24
0.35
0.79
0.94
0.80
0.49
0.18
-0.03
-0.13
-0.21
-0.30
-0.36
-0.30
-0.08
0.27
0.61
0.80
0.76
0.55
0.32
0.21
0.24
0.35
0.38
0.25
-0.06
-0.43
-0.76
-0.94
-0.95
-0.83
-0.65
-0.44
-0.22
-0.01
0.23
0.45
0.63
0.72
0.71
0.62
0.54
0.54
0.64
0.80
0.91
0.84
0.58
0.19
-0.17
-0.37
-0.38
-0.29
-0.20
-0.21
-0.25
-0.22
-0.06
0.19
0.37
0.29
-0.07
-0.61
-1.06
-1.23
-1.04
-0.64
-0.25
-0.07
-0.12
-0.31
-0.47
-0.53
-0.48
-0.41
-0.41
-0.50
-0.61
-0.66
-0.58
-0.36
-0.09
0.12
0.19
0.10
-0.07
-0.21
-0.21
-0.07
0.16
0.39
0.53
0.57
0.56
0.60
0.73
0.96
1.19
1.34
1.32
1.14
0.84
0.50
0.18
-0.09
-0.27
-0.34
-0.30
-0.17
0.02
0.19
0.32
0.39
0.42
0.42
0.41
0.36
0.24
0.06
-0.12
-0.25
-0.29
-0.26
-0.23
-0.24
-0.31
-0.42
-0.52
-0.62
-0.72
-0.81
-0.86
-0.82
-0.62
-0.31
0.01
0.20
0.16
-0.08
-0.36
-0.51
-0.43
-0.18
0.08
0.19
0.07
-0.22
-0.52
-0.68
-0.65
-0.46
-0.22
-0.00
0.17
0.30
0.42
0.49
0.48
0.37
0.19
0.05
-0.00
0.08
0.26
0.46
0.60
0.66
0.66
0.61
0.52
0.38
0.18
-0.07
-0.31
-0.49
-0.55
-0.50
-0.34
-0.11
0.14
0.34
0.46
0.47
0.38
0.26
0.16
0.11
0.13
0.18
0.21
0.18
0.05
-0.16
-0.42
-0.67
-0.86
-0.92
-0.82
-0.59
-0.27
0.05
0.31
0.47
0.55
0.59
0.60
0.59
0.54
0.43
0.27
0.09
-0.08
-0.23
-0.37
-0.49
-0.59
-0.62
-0.57
-0.46
-0.33
-0.25
-0.25
-0.27
-0.24
-0.10
0.11
0.29
0.33
0.22
0.03
-0.07
0.00
0.23
0.49
0.63
0.59
0.43
0.26
0.16
0.14
0.14
0.08
-0.03
-0.11
-0.08
0.08
0.31
0.48
0.48
0.30
0.00
-0.29
-0.47
-0.49
-0.35
-0.10
0.20
0.50
0.72
0.79
0.70
0.44
0.08
-0.30
-0.64
-0.88
-0.99
-0.97
-0.84
-0.62
-0.36
-0.12
0.05
0.11
0.07
-0.07
-0.27
-0.48
-0.69
-0.88
-1.06
-1.24
-1.35
-1.35
-1.18
-0.83
-0.34
0.16
0.58
0.88
1.08
1.24
1.40
1.52
1.53
1.37
1.02
0.56
0.07
-0.36
-0.72
-1.03
-1.35
-1.66
-1.95
-2.15
-2.20
-2.07
-1.81
-1.47
-1.12
-0.79
-0.46
-0.11
0.30
0.75
1.20
1.59
1.89
2.10
2.26
2.43
2.61
2.80
2.95
2.99
2.89
2.61
2.17
1.61
0.96
0.30
-0.30
-0.74
-0.96
-0.93
-0.67
-0.26
0.15
0.40
0.33
-0.10
-0.82
-1.65
-2.37
-2.81
-2.93
-2.80
-2.57
-2.37
-2.26
-2.21
-2.18
-2.13
-2.12
-2.17
-2.33
-2.54
-2.75
-2.91
-3.05
-3.24
-3.52
-3.82
-3.94
-3.60
-2.60
-0.96
1.08
3.14
4.87
6.13
6.99
7.67
8.29
8.78
8.89
8.36
7.11
5.34
3.46
1.91
0.92
0.45
0.22
-0.04
-0.47
-1.00
-1.45
-1.67
-1.61
-1.36
-1.07
-0.82
-0.66
-0.55
-0.44
-0.32
-0.22
-0.16
-0.12
-0.09
-0.02
0.06
0.09
0.02
-0.15
-0.39
-0.62
-0.80
-0.93
-1.09
-1.33
-1.66
-1.96
-2.10
-1.97
-1.58
-1.06
-0.59
-0.31
-0.25
-0.32
-0.42
-0.43
-0.35
-0.23
-0.18
-0.24
-0.35
-0.43
-0.38
-0.17
0.13
0.40
0.53
0.50
0.36
0.23
0.21
0.31
0.47
0.56
0.51
0.34
0.12
-0.03
-0.06
0.01
0.09
0.06
-0.11
-0.39
-0.69
-0.91
-1.02
-1.04
-1.03
-1.03
-1.00
-0.88
-0.62
-0.20
0.32
0.82
1.18
1.37
1.40
1.35
1.30
1.24
1.13
0.93
0.64
0.34
0.15
0.14
0.30
0.55
0.75
0.82
0.73
0.49
0.17
-0.16
-0.44
-0.62
-0.68
-0.64
-0.55
-0.46
-0.43
-0.47
-0.55
-0.62
-0.66
-0.65
-0.62
-0.57
-0.49
-0.36
-0.14
0.13
0.39
0.50
0.41
0.10
-0.29
-0.59
-0.65
-0.43
-0.03
0.37
0.60
0.60
0.45
0.28
0.20
0.21
0.22
0.13
-0.11
-0.44
-0.73
-0.87
-0.82
-0.64
-0.44
-0.31
-0.26
-0.27
-0.26
-0.19
-0.06
0.08
0.18
0.22
0.21
0.17
0.11
0.06
0.02
0.01
0.05
0.13
0.23
0.33
0.37
0.34
0.26
0.12
-0.05
-0.26
-0.49
-0.72
-0.85
-0.83
-0.63
-0.27
0.12
0.42
0.55
0.48
0.30
0.11
-0.00
-0.02
0.03
0.08
0.11
0.14
0.20
0.35
0.58
0.81
0.95
0.90
0.68
0.39
0.16
0.11
0.24
0.48
0.72
0.86
0.88
0.80
0.67
0.51
0.35
0.20
0.08
0.01
-0.05
-0.13
-0.29
-0.50
-0.69
-0.76
-0.66
-0.41
-0.14
0.01
-0.04
-0.25
-0.52
-0.72
-0.80
-0.78
-0.73
-0.73
-0.79
-0.90
-1.00
-1.05
-1.00
-0.81
-0.45
0.06
0.66
1.21
1.58
1.65
1.42
0.97
0.46
0.04
-0.21
-0.30
-0.27
-0.19
-0.10
-0.03
0.06
0.15
0.23
0.28
0.27
0.19
0.05
-0.11
-0.26
-0.35
-0.36
-0.30
-0.22
-0.18
-0.20
-0.28
-0.36
-0.39
-0.31
-0.14
0.05
0.18
0.16
-0.02
-0.29
-0.54
-0.67
-0.65
-0.52
-0.40
-0.36
-0.39
-0.45
-0.42
-0.27
0.01
0.32
0.58
0.76
0.88
0.98
1.05
1.07
0.98
0.75
0.44
0.15
-0.01
0.01
0.15
0.32
0.41
0.40
0.33
0.28
0.32
0.43
0.56
0.62
0.55
0.39
0.19
0.04
-0.01
0.01
0.05
0.04
-0.04
-0.16
-0.25
-0.25
-0.15
-0.00
0.09
0.07
-0.08
-0.32
-0.55
-0.70
-0.73
-0.65
-0.53
-0.42
-0.35
-0.34
-0.35
-0.35
-0.33
-0.28
-0.21
-0.12
-0.01
0.10
0.16
0.09
-0.15
-0.53
-0.97
-1.31
-1.42
-1.28
-0.94
-0.53
-0.17
0.11
0.31
0.44
0.53
0.56
0.53
0.48
0.45
0.49
0.60
0.73
0.82
0.82
0.74
0.61
0.48
0.37
0.26
0.16
0.04
-0.07
-0.14
-0.16
-0.13
-0.06
0.02
0.09
0.12
0.14
0.16
0.21
0.29
0.33
0.27
0.04
-0.32
-0.71
-0.98
-1.02
-0.82
-0.46
-0.10
0.16
0.28
0.30
0.27
0.22
0.13
-0.03
-0.23
-0.40
-0.40
-0.16
0.29
0.82
1.26
1.45
1.32
0.94
0.40
-0.13
-0.53
-0.76
-0.81
-0.74
-0.63
-0.55
-0.54
-0.58
-0.64
-0.62
-0.49
-0.23
0.11
0.45
0.73
0.90
0.94
0.86
0.65
0.31
-0.11
-0.57
-0.95
-1.15
-1.13
-0.92
-0.61
-0.32
-0.11
0.01
0.07
0.11
0.13
0.14
0.12
0.08
0.02
-0.07
-0.20
-0.35
-0.47
-0.50
-0.39
-0.18
0.04
0.15
0.12
0.00
-0.10
-0.10
0.01
0.16
0.25
0.22
0.12
0.06
0.13
0.33
0.58
0.76
0.75
0.60
0.40
0.32
0.45
0.76
1.11
1.31
1.28
1.01
0.63
0.26
-0.00
-0.17
-0.30
-0.44
-0.58
-0.67
-0.68
-0.59
-0.44
-0.29
-0.17
-0.08
-0.00
0.07
0.11
0.10
0.03
-0.11
-0.25
-0.35
-0.38
-0.37
-0.34
-0.33
-0.36
-0.40
-0.45
-0.49
-0.52
-0.53
-0.51
-0.43
-0.29
-0.12
0.04
0.13
0.14
0.11
0.10
0.16
0.30
0.46
0.58
0.60
0.52
0.37
0.23
0.14
0.13
0.15
0.17
0.15
0.07
-0.06
-0.22
-0.36
-0.48
-0.55
-0.55
-0.46
-0.28
-0.01
0.27
0.48
0.53
0.42
0.21
0.01
-0.10
-0.09
-0.02
0.05
0.08
0.04
-0.07
-0.25
-0.48
-0.72
-0.91
-0.93
-0.71
-0.24
0.34
0.87
1.21
1.32
1.27
1.18
1.10
1.02
0.86
0.57
0.18
-0.20
-0.47
-0.54
-0.47
-0.39
-0.45
-0.71
-1.12
-1.48
-1.64
-1.50
-1.11
-0.59
-0.09
0.27
0.47
0.53
0.54
0.54
0.55
0.56
0.51
0.32
-0.01
-0.42
-0.76
-0.88
-0.71
-0.29
0.20
0.56
0.70
0.64
0.52
0.46
0.47
0.50
0.46
0.31
0.12
-0.06
-0.13
-0.13
-0.07
-0.02
0.01
0.02
-0.01
-0.11
-0.29
-0.52
-0.71
-0.74
-0.56
-0.21
0.19
0.50
0.60
0.50
0.27
-0.00
-0.23
-0.37
-0.40
-0.34
-0.21
-0.05
0.11
0.27
0.41
0.57
0.72
0.83
0.85
0.75
0.54
0.30
0.12
0.06
0.13
0.27
0.38
0.40
0.31
0.17
0.04
-0.05
-0.09
-0.12
-0.21
-0.35
-0.53
-0.69
-0.75
-0.70
-0.57
-0.46
-0.43
-0.51
-0.63
-0.67
-0.51
-0.11
0.40
0.86
1.07
0.94
0.54
0.05
-0.33
-0.49
-0.41
-0.22
-0.06
-0.03
-0.12
-0.26
-0.33
-0.27
-0.10
0.07
0.14
0.03
-0.21
-0.46
-0.58
-0.47
-0.18
0.18
0.46
0.56
0.46
0.23
-0.02
-0.20
-0.26
-0.20
-0.09
0.01
0.05
0.03
-0.02
-0.07
-0.07
-0.04
0.00
0.06
0.14
0.28
0.50
0.74
0.95
1.03
0.96
0.77
0.55
0.41
0.38
0.45
0.53
0.52
0.38
0.10
-0.22
-0.49
-0.61
-0.55
-0.38
-0.22
-0.16
-0.22
-0.34
-0.39
-0.29
-0.05
0.22
0.42
0.47
0.37
0.17
-0.07
-0.31
-0.55
-0.78
-0.96
-1.04
-1.00
-0.86
-0.71
-0.61
-0.63
-0.73
-0.81
-0.75
-0.51
-0.12
0.33
0.68
0.86
0.84
0.70
0.56
0.50
0.56
0.73
0.95
1.13
1.21
1.17
0.98
0.67
0.27
-0.18
-0.62
-0.99
-1.26
-1.39
-1.36
-1.20
-0.96
-0.73
-0.55
-0.44
-0.31
-0.11
0.20
0.57
0.88
1.00
0.88
0.59
0.26
0.04
-0.03
-0.01
-0.01
-0.15
-0.45
-0.79
-1.03
-1.03
-0.77
-0.35
0.06
0.34
0.45
0.46
0.46
0.52
0.59
0.59
0.44
0.13
-0.22
-0.47
-0.49
-0.27
0.09
0.43
0.65
0.71
0.66
0.59
0.55
0.54
0.56
0.58
0.60
0.59
0.53
0.39
0.15
-0.18
-0.51
-0.76
-0.88
-0.85
-0.71
-0.53
-0.34
-0.20
-0.13
-0.17
-0.28
-0.42
-0.51
-0.46
-0.25
0.06
0.37
0.57
0.61
0.48
0.26
-0.01
-0.27
-0.46
-0.54
-0.48
-0.28
0.02
0.34
0.59
0.69
0.62
0.44
0.20
-0.04
-0.26
-0.48
-0.66
-0.80
-0.84
-0.74
-0.52
-0.24
0.00
0.13
0.13
0.07
0.04
0.11
0.34
0.67
1.01
1.22
1.21
0.95
0.50
-0.01
-0.45
-0.70
-0.76
-0.67
-0.49
-0.28
-0.06
0.17
0.37
0.50
0.49
0.33
0.08
-0.12
-0.16
-0.01
0.24
0.43
0.45
0.29
0.03
-0.20
-0.32
-0.33
-0.29
-0.25
-0.21
-0.14
0.01
0.20
0.36
0.37
0.16
-0.23
-0.70
-1.10
-1.30
-1.28
-1.05
-0.69
-0.28
0.10
0.41
0.60
0.67
0.62
0.48
0.32
0.21
0.17
0.22
0.31
0.41
0.46
0.47
0.44
0.42
0.39
0.39
0.39
0.41
0.46
0.52
0.57
0.54
0.40
0.13
-0.20
-0.51
-0.72
-0.79
-0.74
-0.64
-0.55
-0.49
-0.46
-0.46
-0.45
-0.42
-0.39
-0.36
-0.34
-0.33
-0.33
-0.36
-0.41
-0.46
-0.45
-0.31
-0.04
0.31
0.62
0.74
0.57
0.16
-0.33
-0.71
-0.80
-0.59
-0.19
0.22
0.48
0.53
0.40
0.19
0.01
-0.09
-0.12
-0.12
-0.16
-0.26
-0.41
-0.53
-0.56
-0.43
-0.17
0.16
0.46
0.65
0.69
0.63
0.55
0.49
0.47
0.45
0.38
0.23
0.06
-0.05
-0.04
0.12
0.36
0.56
0.59
0.41
0.07
-0.27
-0.47
-0.44
-0.21
0.07
0.28
0.34
0.26
0.12
-0.00
-0.07
-0.09
-0.10
-0.12
-0.14
-0.16
-0.16
-0.13
-0.07
0.01
0.12
0.26
0.40
0.50
0.54
0.51
0.45
0.38
0.29
0.19
0.05
-0.12
-0.31
-0.45
-0.52
-0.50
-0.41
-0.29
-0.15
-0.01
0.11
0.20
0.25
0.26
0.25
0.22
0.20
0.17
0.10
-0.01
-0.16
-0.33
-0.49
-0.61
-0.67
-0.68
-0.61
-0.48
-0.31
-0.12
0.02
0.07
0.03
-0.05
-0.11
-0.11
-0.06
0.02
0.06
0.08
0.10
0.18
0.35
0.56
0.74
0.79
0.66
0.39
0.06
-0.19
-0.29
-0.18
0.11
0.47
0.80
1.00
1.00
0.79
0.42
-0.03
-0.48
-0.82
-0.99
-0.97
-0.79
-0.55
-0.32
-0.18
-0.15
-0.21
-0.29
-0.36
-0.38
-0.37
-0.33
-0.30
-0.31
-0.40
-0.55
-0.73
-0.89
-0.97
-0.97
-0.90
-0.81
-0.71
-0.57
-0.33
0.06
0.60
1.20
1.71
1.96
1.90
1.61
1.24
0.97
0.88
0.91
0.93
0.81
0.48
-0.01
-0.50
-0.86
-1.01
-0.97
-0.82
-0.68
-0.61
-0.64
-0.73
-0.80
-0.80
-0.71
-0.55
-0.36
-0.15
0.05
0.27
0.47
0.60
0.58
0.36
0.00
-0.37
-0.62
-0.63
-0.43
-0.12
0.15
0.28
0.27
0.20
0.14
0.12
0.14
0.16
0.15
0.13
0.10
0.08
0.08
0.08
0.04
-0.04
-0.15
-0.26
-0.33
-0.32
-0.22
-0.02
0.21
0.44
0.58
0.62
0.54
0.37
0.14
-0.08
-0.21
-0.22
-0.10
0.08
0.23
0.28
0.19
0.04
-0.10
-0.13
0.01
0.31
0.69
1.05
1.30
1.39
1.30
1.06
0.71
0.32
-0.04
-0.31
-0.44
-0.42
-0.29
-0.11
0.04
0.08
-0.00
-0.22
-0.52
-0.84
-1.14
-1.37
-1.50
-1.52
-1.41
-1.14
-0.72
-0.21
0.29
0.65
0.78
0.63
0.25
-0.24
-0.74
-1.12
-1.32
-1.31
-1.12
-0.84
-0.59
-0.48
-0.58
-0.82
-1.06
-1.11
-0.84
-0.31
0.29
0.72
0.78
0.45
-0.17
-0.86
-1.42
-1.68
-1.57
-1.08
-0.27
0.74
1.78
2.65
3.22
3.49
3.57
3.65
3.87
4.22
4.52
4.51
4.00
2.98
1.62
0.23
-0.92
-1.69
-2.08
-2.21
-2.19
-2.08
-1.87
-1.56
-1.13
-0.66
-0.22
0.10
0.24
0.19
0.01
-0.21
-0.34
-0.28
-0.02
0.36
0.67
0.74
0.48
-0.04
-0.61
-1.01
-1.12
-0.93
-0.59
-0.29
-0.15
-0.18
-0.32
-0.47
-0.60
-0.69
-0.75
-0.78
-0.76
-0.66
-0.49
-0.30
-0.16
-0.13
-0.18
-0.26
-0.31
-0.28
-0.18
-0.06
-0.00
-0.04
-0.17
-0.35
-0.52
-0.65
-0.67
-0.58
-0.37
-0.11
0.10
0.18
0.11
-0.04
-0.14
-0.12
0.01
0.15
0.19
0.09
-0.09
-0.21
-0.12
0.18
0.60
0.99
1.19
1.19
1.04
0.84
0.67
0.55
0.45
0.30
0.06
-0.24
-0.53
-0.72
-0.74
-0.57
-0.27
0.05
0.30
0.43
0.42
0.33
0.22
0.12
0.05
0.00
-0.04
-0.11
-0.21
-0.32
-0.41
-0.44
-0.36
-0.23
-0.11
-0.10
-0.24
-0.49
-0.74
-0.87
-0.82
-0.62
-0.36
-0.14
-0.01
0.05
0.10
0.19
0.32
0.43
0.45
0.35
0.18
0.01
-0.05
0.04
0.24
0.47
0.62
0.64
0.54
0.44
0.42
0.57
0.83
1.12
1.32
1.34
1.17
0.84
0.42
-0.03
-0.44
-0.74
-0.85
-0.76
-0.46
-0.06
0.31
0.52
0.53
0.37
0.15
-0.03
-0.12
-0.14
-0.17
-0.29
-0.50
-0.75
-0.93
-0.97
-0.81
-0.51
-0.14
0.21
0.46
0.57
0.51
0.31
0.00
-0.33
-0.64
-0.85
-0.95
-0.92
-0.78
-0.58
-0.40
-0.32
-0.36
-0.51
-0.68
-0.80
-0.80
-0.67
-0.46
-0.23
-0.05
0.08
0.15
0.16
0.10
-0.01
-0.13
-0.19
-0.14
0.05
0.34
0.63
0.83
0.88
0.76
0.47
0.08
-0.34
-0.68
-0.84
-0.73
-0.37
0.17
0.73
1.15
1.36
1.33
1.11
0.75
0.33
-0.10
-0.47
-0.71
-0.76
-0.56
-0.16
0.35
0.81
1.10
1.16
1.05
0.86
0.70
0.58
0.46
0.29
0.04
-0.22
-0.39
-0.41
-0.26
-0.01
0.24
0.42
0.49
0.49
0.46
0.41
0.31
0.12
-0.18
-0.54
-0.85
-1.01
-0.93
-0.64
-0.25
0.05
0.12
-0.08
-0.45
-0.81
-0.98
-0.87
-0.51
-0.04
0.37
0.61
0.64
0.50
0.28
0.10
0.02
0.00
-0.00
-0.08
-0.25
-0.46
-0.65
-0.72
-0.68
-0.60
-0.54
-0.51
-0.45
-0.29
0.03
0.44
0.74
0.80
0.53
0.05
-0.42
-0.70
-0.72
-0.59
-0.46
-0.44
-0.53
-0.61
-0.57
-0.37
-0.10
0.12
0.20
0.14
0.03
-0.05
-0.02
0.10
0.25
0.35
0.34
0.23
0.07
-0.06
-0.09
0.06
0.34
0.70
0.99
1.11
1.00
0.68
0.25
-0.14
-0.38
-0.44
-0.35
-0.22
-0.12
-0.08
-0.08
-0.07
-0.02
0.10
0.27
0.46
0.66
0.79
0.82
0.69
0.40
0.05
-0.24
-0.35
-0.25
-0.02
0.20
0.31
0.26
0.12
-0.02
-0.11
-0.17
-0.26
-0.42
-0.63
-0.84
-0.93
-0.84
-0.60
-0.29
-0.02
0.16
0.28
0.39
0.55
0.73
0.84
0.79
0.55
0.24
0.02
0.01
0.23
0.53
0.74
0.73
0.50
0.19
-0.05
-0.12
-0.07
-0.01
-0.03
-0.14
-0.27
-0.31
-0.22
-0.06
0.06
0.03
-0.16
-0.42
-0.63
-0.69
-0.58
-0.35
-0.11
0.07
0.16
0.18
0.18
0.16
0.12
0.02
-0.12
-0.25
-0.28
-0.18
0.05
0.31
0.49
0.53
0.41
0.21
0.03
-0.08
-0.12
-0.14
-0.15
-0.16
-0.16
-0.14
-0.12
-0.16
-0.30
-0.52
-0.76
-0.92
-0.93
-0.77
-0.51
-0.24
-0.06
-0.02
-0.09
-0.18
-0.21
-0.15
-0.05
0.02
0.01
-0.09
-0.19
-0.22
-0.12
0.08
0.29
0.45
0.52
0.49
0.41
0.29
0.16
0.02
-0.14
-0.29
-0.41
-0.45
-0.37
-0.15
0.18
0.55
0.83
0.91
0.76
0.44
0.11
-0.07
-0.01
0.26
0.62
0.91
1.06
1.06
0.98
0.88
0.80
0.70
0.51
0.21
-0.18
-0.59
-0.89
-1.01
-0.91
-0.64
-0.31
-0.02
0.19
0.33
0.43
0.53
0.62
0.65
0.54
0.23
-0.26
-0.87
-1.45
-1.84
-1.94
-1.72
-1.25
-0.66
-0.12
0.28
0.51
0.60
0.61
0.53
0.37
0.11
-0.20
-0.48
-0.60
-0.50
-0.19
0.22
0.57
0.77
0.78
0.63
0.40
0.17
0.02
-0.03
0.05
0.21
0.35
0.39
0.30
0.10
-0.12
-0.27
-0.34
-0.36
-0.41
-0.51
-0.65
-0.75
-0.73
-0.59
-0.37
-0.16
-0.00
0.06
0.06
0.09
0.20
0.41
0.68
0.91
1.00
0.87
0.58
0.23
-0.05
-0.19
-0.22
-0.22
-0.29
-0.43
-0.55
-0.58
-0.46
-0.27
-0.13
-0.14
-0.30
-0.46
-0.50
-0.33
0.04
0.46
0.79
0.91
0.83
0.61
0.32
0.03
-0.19
-0.31
-0.33
-0.22
-0.04
0.16
0.29
