1544027339.00
64.000000
-0.00
-0.00
-0.00
-0.00
-0.00
-0.00
-0.00
-0.00
-0.00
-0.00
0.00
0.01
0.01
-0.00
-0.03
-0.05
-0.05
0.00
0.13
0.36
0.66
1.01
1.37
1.72
2.06
2.40
2.79
3.24
3.80
4.43
5.09
5.72
6.31
6.86
7.44
8.13
8.97
10.07
11.35
12.70
14.01
15.21
16.36
17.61
19.17
21.19
23.89
27.04
30.38
33.58
36.50
39.20
42.05
45.54
50.01
55.89
62.80
70.19
77.43
84.14
90.43
96.86
104.22
113.14
124.19
136.80
150.12
163.14
175.27
186.58
197.85
210.61
223.71
239.44
258.26
280.05
303.36
325.16
341.21
347.21
340.18
319.59
287.85
248.47
205.23
160.76
116.28
72.20
28.99
-12.30
-50.35
-83.89
-113.28
-139.92
-165.60
-191.56
-217.75
-242.73
-264.64
-282.08
-295.16
-305.85
-316.91
-330.78
-348.47
-369.19
-390.30
-408.28
-419.57
-421.02
-410.95
-388.88
-356.16
-316.03
-273.19
-233.11
-200.08
-176.10
-159.78
-147.38
-134.31
-117.57
-97.39
-76.63
-59.60
-49.49
-46.61
-48.50
-51.11
-50.85
-46.41
-38.81
-30.63
-23.74
-18.26
-12.32
-3.45
9.55
25.55
41.09
52.29
57.01
56.18
53.55
53.76
59.45
69.28
78.35
80.48
71.81
53.35
30.91
12.45
3.82
5.70
13.22
18.67
15.99
4.45
-11.01
-22.61
-24.44
-15.84
-1.78
10.30
15.09
12.54
7.97
8.39
18.08
35.80
54.64
66.61
66.63
55.80
40.08
26.48
19.29
17.50
16.95
13.18
5.03
-4.68
-11.09
-10.32
-2.30
9.46
19.79
24.70
23.77
20.07
18.58
23.15
34.32
48.85
60.84
64.84
58.24
42.74
23.51
6.22
-5.71
-12.48
-17.55
-24.27
-33.80
-43.34
-47.67
-42.44
-26.96
-5.74
14.00
25.27
25.19
16.56
5.63
-1.02
-0.52
4.81
9.15
6.39
-5.60
-23.93
-41.45
-50.54
-47.20
-32.41
-12.21
5.81
16.11
17.48
13.07
7.70
4.94
4.82
3.96
-1.37
-12.65
-26.85
-37.55
-38.36
-26.46
-5.41
16.31
29.29
27.62
12.42
-9.43
-28.94
-39.89
-41.57
-37.83
-34.04
-33.07
-33.87
-32.82
-26.56
-15.00
-1.73
7.89
9.49
2.74
-8.34
-17.12
-17.73
-8.11
9.09
27.37
39.82
42.45
35.78
24.77
15.60
12.47
15.51
20.93
24.23
23.02
19.00
16.90
21.19
33.16
49.10
62.01
65.20
55.68
36.41
14.55
-2.00
-8.34
-5.17
2.91
9.92
12.13
9.61
5.36
3.02
4.28
7.94
10.96
10.43
6.05
0.53
-1.56
3.79
17.17
34.89
50.23
56.15
48.96
30.30
6.94
-12.36
-20.77
-16.36
-3.08
11.88
21.70
23.28
18.40
11.93
8.58
10.30
15.14
18.98
18.51
13.40
6.56
2.12
2.49
6.32
9.17
6.24
-4.26
-19.17
-31.47
-34.04
-23.53
-3.20
18.54
32.05
31.18
16.56
-4.95
-24.01
-33.54
-32.00
-23.21
-13.66
-8.35
-8.63
-12.22
-15.49
-16.30
-15.11
-14.27
-16.09
-20.59
-24.70
-23.99
-14.96
2.16
22.59
38.62
42.85
32.17
9.77
-15.71
-34.15
-38.45
-27.72
-7.67
12.81
25.93
28.51
22.91
14.87
9.95
10.75
15.92
21.56
24.27
23.19
20.43
19.34
21.63
25.64
26.82
20.56
5.51
-14.16
-30.42
-35.28
-25.16
-3.68
19.96
35.56
36.91
24.87
6.67
-8.43
-13.85
-8.93
1.40
9.88
11.05
3.86
-8.37
-20.40
-28.40
-31.58
-31.91
-32.26
-33.86
-35.15
-32.93
-24.30
-9.43
7.65
20.45
22.87
12.80
-6.24
-26.08
-37.63
-35.10
-18.65
5.37
27.76
40.82
41.61
33.13
21.97
14.74
14.84
21.07
29.02
34.05
33.81
29.33
23.72
19.43
16.45
12.11
3.15
-11.39
-28.35
-41.66
-45.43
-37.55
-21.51
-4.69
5.56
5.89
-1.26
-8.96
-10.03
-1.11
15.27
31.62
39.51
33.88
15.87
-7.48
-26.80
-34.96
-30.44
-17.77
-4.67
2.16
0.24
-8.16
-18.05
-25.11
-27.76
-27.26
-26.00
-25.31
-24.31
-20.74
-12.73
-0.69
12.12
20.82
21.32
12.78
-1.18
-13.76
-18.12
-10.92
5.45
23.69
35.06
33.95
20.95
2.64
-11.99
-16.07
-8.37
6.42
20.33
26.62
23.09
12.95
3.02
-0.33
5.54
18.24
31.40
38.45
35.98
25.46
12.38
2.78
-0.09
2.70
6.61
7.07
2.39
-5.16
-11.01
-11.78
-7.68
-2.57
-1.45
-6.90
-17.27
-27.30
-31.38
-27.24
-17.03
-6.32
-0.63
-1.96
-7.68
-11.75
-8.46
4.17
22.88
40.30
48.74
44.04
27.82
7.08
-9.36
-15.16
-9.57
2.01
11.37
11.76
1.62
-14.84
-30.35
-38.82
-38.55
-32.48
-25.80
-22.53
-23.29
-25.59
-25.99
-22.61
-16.33
-10.02
-6.52
-6.88
-9.49
-11.25
-9.41
-3.10
5.72
13.18
15.39
10.57
0.60
-9.54
-14.03
-9.16
3.97
19.78
30.73
31.33
21.41
6.25
-6.16
-9.49
-2.51
10.49
22.04
26.02
20.97
10.69
2.04
0.87
8.73
21.98
33.47
36.64
28.94
13.26
-3.41
-13.94
-14.67
-7.09
3.11
9.89
10.16
5.32
-0.04
-1.81
0.83
4.89
5.60
0.17
-10.15
-20.30
-24.60
-20.71
-10.92
-1.15
2.61
-1.85
-11.53
-19.73
-19.98
-9.86
7.56
24.92
34.69
33.19
22.45
9.44
2.05
4.95
16.89
30.95
38.44
33.37
15.84
-7.87
-28.64
-39.29
-38.00
-28.71
-18.33
-12.72
-13.67
-18.72
-23.18
-23.58
-19.51
-13.48
-9.09
-8.66
-11.51
-14.76
-14.86
-9.81
-0.72
8.53
13.06
9.65
-0.95
-13.99
-22.68
-21.61
-10.19
6.75
21.07
25.58
18.10
2.93
-11.28
-16.18
-8.22
9.40
28.33
39.71
38.84
27.34
12.17
1.32
-0.36
6.45
16.25
22.56
21.64
14.44
5.46
-0.64
-2.33
-2.01
-3.99
-11.10
-21.98
-31.57
-33.94
-26.15
-10.73
5.37
14.36
11.97
0.05
-13.86
-20.80
-15.16
2.00
22.96
37.32
37.10
21.12
-4.31
-28.52
-41.88
-40.37
-27.07
-9.86
3.17
7.62
4.31
-2.10
-6.46
-5.96
-1.15
4.84
8.59
8.67
6.25
4.50
6.43
12.52
20.06
24.19
20.73
8.99
-6.90
-19.82
-23.22
-14.78
1.75
18.58
27.90
25.97
15.11
2.07
-5.90
-4.85
3.68
14.12
20.27
18.85
10.96
0.92
-6.80
-10.55
-12.27
-15.71
-23.43
-33.85
-41.45
-39.65
-24.60
1.13
29.18
48.98
52.63
39.25
15.16
-9.27
-24.85
-27.65
-19.89
-8.09
1.18
4.45
2.39
-1.34
-3.23
-2.14
0.10
-0.24
-5.84
-16.44
-28.08
-34.84
-32.04
-18.82
0.54
18.50
27.88
25.39
13.86
0.28
-7.77
-6.18
3.21
14.50
21.03
19.37
10.96
0.70
-6.32
-8.07
-6.49
-5.70
-8.98
-15.81
-21.97
-21.94
-12.29
5.30
24.42
36.86
36.51
22.85
1.32
-19.28
-31.05
-30.61
-20.20
-6.18
4.81
9.00
6.91
2.36
-0.58
0.02
3.05
5.29
3.84
-1.50
-8.07
-11.49
-8.43
1.01
12.75
20.56
19.53
9.00
-6.37
-18.80
-21.35
-11.59
6.42
24.43
33.96
30.55
16.12
-2.42
-17.11
-23.02
-20.52
-14.16
-9.44
-9.09
-11.81
-13.55
-10.50
-2.25
7.79
14.40
13.51
5.44
-5.23
-11.80
-8.99
3.74
21.69
36.97
42.20
34.29
15.97
-5.38
-21.39
-26.48
-20.16
-6.98
6.25
13.97
14.26
9.40
3.56
-0.07
-1.11
-2.08
-6.09
-13.94
-22.86
-27.59
-23.56
-10.05
8.27
23.54
28.79
21.71
6.49
-8.42
-14.87
-9.21
5.46
21.42
30.33
27.63
14.70
-2.39
-16.50
-23.38
-23.41
-20.53
-19.33
-21.56
-25.12
-25.59
-19.06
-5.54
10.47
22.04
23.17
12.53
-5.70
-23.54
-33.19
-30.80
-17.94
-0.89
12.96
18.79
16.22
9.35
3.66
2.94
7.29
13.21
16.31
14.11
7.92
2.08
1.20
7.37
18.23
28.14
31.38
25.24
12.20
-1.66
-9.87
-9.02
-1.03
8.55
13.44
10.08
-0.60
-14.18
-25.39
-31.13
-31.76
-30.17
-29.76
-31.58
-33.56
-31.84
-23.05
-7.44
10.63
24.25
27.09
17.07
-2.11
-22.34
-34.77
-33.99
-20.36
0.01
18.66
28.83
28.32
20.34
10.99
5.81
7.07
12.82
18.87
21.70
20.85
19.01
19.99
25.76
34.39
40.89
40.10
29.83
13.20
-2.86
-11.08
-7.62
5.11
19.95
28.34
24.68
9.18
-12.56
-32.55
-44.54
-46.74
-41.79
-34.77
-29.64
-27.15
-25.13
-20.12
-10.77
0.87
10.02
11.57
3.53
-11.39
-26.46
-34.19
-30.07
-14.79
5.52
22.60
30.02
26.11
14.77
2.66
-4.47
-4.71
-0.72
2.77
2.14
-2.45
-7.29
-7.66
-1.01
10.78
22.23
27.40
23.25
12.09
0.06
-6.04
-2.50
8.77
21.63
28.87
26.08
13.94
-2.53
-16.63
-23.67
-22.88
-17.14
-11.02
-7.75
-7.60
-8.06
-5.62
1.30
11.29
20.04
22.44
15.75
1.49
-14.68
-25.65
-26.34
-16.19
-0.05
14.63
21.44
18.26
8.19
-3.00
-10.06
-11.46
-9.90
-9.70
-13.86
-21.35
-27.61
-27.15
-17.18
-0.28
16.91
26.47
23.56
9.38
-9.75
-25.29
-31.18
-26.67
-15.92
-5.64
-0.66
-1.55
-4.42
-3.77
3.53
16.60
30.04
37.22
33.75
20.08
1.34
-15.53
-25.04
-25.86
-20.86
-14.90
-11.89
-12.62
-15.01
-15.57
-11.74
-3.67
6.18
14.24
17.98
17.32
14.70
13.76
17.23
25.23
34.82
41.35
40.83
32.18
18.28
4.40
-4.52
-6.51
-3.62
-0.65
-2.34
-10.15
-21.67
-31.78
-35.60
-31.29
-20.89
-9.27
-0.95
2.28
2.24
3.03
8.24
18.45
30.26
38.22
37.85
28.27
13.19
-1.03
-8.80
-8.35
-2.72
2.01
0.20
-9.85
-24.88
-38.23
-43.50
-38.17
-24.92
-10.28
-0.74
1.01
-2.65
-5.88
-3.20
7.00
21.18
32.90
36.59
31.09
20.30
10.95
8.47
13.64
22.24
27.39
23.69
10.33
-8.35
-25.27
-34.58
-34.71
-28.99
-23.52
-23.50
-29.88
-38.86
-44.34
-41.58
-30.23
-14.76
-1.89
3.49
1.07
-4.96
-8.48
-5.25
4.54
16.48
24.86
26.01
20.50
12.70
8.18
10.49
19.03
29.40
35.70
33.62
22.80
7.19
-7.04
-14.72
-14.21
-8.08
-1.65
0.11
-4.59
-13.56
-22.01
-25.20
-21.11
-11.45
-0.67
6.84
9.20
8.01
7.34
10.99
19.82
30.70
38.04
37.01
26.56
10.80
-3.18
-9.00
-4.76
5.73
15.08
16.31
7.15
-9.12
-25.11
-33.55
-31.35
-20.46
-6.97
2.84
5.89
3.69
1.11
2.90
10.93
22.42
31.50
32.62
23.77
8.12
-7.91
-18.03
-19.48
-14.72
-9.00
-7.44
-11.31
-17.51
-20.58
-16.29
-4.77
9.81
20.97
23.68
17.34
5.51
-5.63
-11.02
-9.36
-3.50
0.98
-0.40
-8.56
-19.61
-26.99
-25.30
-13.27
4.55
20.38
26.96
21.68
8.12
-6.47
-14.91
-14.31
-7.59
-0.86
0.03
-6.32
-16.42
-23.66
-22.56
-12.27
3.36
17.40
23.87
20.89
11.22
0.60
-5.80
-5.77
-1.21
3.42
4.07
-0.65
-8.29
-14.26
-14.51
-7.93
2.38
11.18
13.66
8.65
-0.44
-7.62
-7.64
0.53
13.23
23.93
26.79
20.19
7.20
-5.89
-13.33
-12.92
-6.93
-0.75
0.75
-4.19
-12.66
-18.98
-18.12
-8.63
5.87
19.05
24.98
21.70
12.23
2.65
-1.54
1.29
8.11
13.21
11.58
2.13
-11.73
-23.64
-27.96
-22.83
-11.22
0.61
6.63
4.43
-3.26
-10.32
-10.88
-2.89
10.24
21.84
25.73
20.11
8.62
-1.75
-4.94
0.55
10.88
19.19
19.61
10.42
-5.00
-20.19
-29.09
-29.21
-22.59
-14.37
-10.13
-12.60
-20.31
-28.67
-32.52
-29.07
-19.48
-8.44
-1.19
-0.63
-5.54
-11.23
-12.32
-5.92
6.44
19.90
29.04
30.96
27.02
21.87
20.55
25.08
33.27
39.91
39.76
30.88
15.85
0.47
-9.67
-12.10
-8.72
-4.36
-3.87
-9.35
-18.83
-27.78
-31.73
-28.85
-20.98
-12.52
-8.06
-9.50
-15.21
-21.03
-22.64
-18.17
-9.34
-0.56
4.00
2.81
-2.09
-6.14
-5.07
2.42
13.72
23.90
28.52
26.08
19.03
12.21
10.13
14.16
21.76
27.84
27.54
18.92
4.11
-11.74
-23.31
-27.51
-25.04
-19.67
-16.14
-17.39
-22.97
-29.23
-31.23
-25.67
-12.67
3.76
17.93
25.55
26.15
23.43
23.11
29.08
40.49
51.84
55.84
47.78
28.71
5.18
-14.04
-22.75
-20.56
-12.86
-7.55
-10.43
-21.80
-36.25
-45.91
-44.81
-32.29
-13.41
4.13
14.27
15.84
12.80
11.49
16.42
27.06
38.30
43.38
38.11
23.82
6.74
-5.22
-7.01
0.77
12.27
19.56
17.22
5.26
-10.71
-22.91
-25.75
-18.93
-7.74
0.56
0.84
-6.28
-15.14
-18.47
-11.89
2.94
19.52
29.89
29.22
18.39
3.13
-9.36
-14.32
-11.80
-6.07
-2.93
-6.03
-14.94
-25.06
-30.48
-27.55
-17.01
-4.19
4.21
3.69
-4.72
-15.08
-19.78
-14.09
0.57
17.41
27.89
26.57
14.07
-3.69
-18.76
-25.67
-23.90
-17.47
-12.05
-11.57
-16.20
-22.36
-25.36
-22.31
-13.61
-3.18
4.19
5.40
1.21
-4.03
-4.85
2.06
15.23
29.11
36.77
33.75
20.92
3.67
-10.50
-16.26
-13.15
-5.28
0.95
1.02
-5.43
-13.90
-17.77
-12.25
3.06
22.92
39.35
45.40
38.92
23.79
7.49
-2.78
-4.27
0.09
3.97
1.50
-8.60
-22.76
-34.28
-37.39
-30.89
-18.03
-5.06
2.80
4.06
1.54
0.39
4.50
14.44
26.57
35.09
35.54
27.01
13.15
-0.05
-7.73
-8.43
-5.23
-3.21
-6.19
-13.83
-21.31
-22.43
-13.06
5.31
25.95
40.10
41.25
29.05
8.89
-10.81
-23.07
-25.82
-21.47
-15.17
-11.25
-11.09
-13.15
-14.44
-12.98
-9.12
-5.21
-4.43
-8.39
-16.01
-23.46
-25.77
-19.71
-5.53
12.22
26.60
31.72
25.74
12.50
-0.63
-6.38
-1.45
11.43
25.50
33.62
32.33
23.34
12.04
3.79
0.56
-0.03
-2.54
-10.35
-22.28
-32.70
-34.51
-23.28
-1.15
23.90
41.27
42.99
27.91
1.97
-24.52
-42.05
-46.07
-38.09
-24.35
-11.75
-4.28
-1.69
-0.36
3.34
10.45
18.32
21.85
17.11
3.96
-12.78
-25.37
-27.06
-15.70
4.48
24.94
36.97
35.91
23.73
7.50
-4.41
-6.65
0.44
11.69
20.60
23.06
19.41
13.53
9.53
8.71
8.66
5.27
-3.95
-16.94
-27.61
-29.09
-17.96
2.82
24.78
37.91
35.62
18.35
-6.40
-27.81
-36.87
-30.67
-13.53
5.48
17.10
16.33
4.32
-12.59
-26.75
-32.68
-29.28
-19.77
-9.20
-1.69
1.30
1.21
0.63
1.06
1.81
0.35
-5.66
-15.95
-26.87
-32.78
-29.03
-15.25
3.64
19.48
25.10
18.31
3.49
-10.70
-15.99
-8.95
7.15
24.24
34.01
32.44
21.68
8.92
1.90
4.74
15.66
27.74
33.11
27.23
11.31
-8.28
-23.79
-30.27
-27.90
-21.43
-16.76
-17.28
-22.17
-27.56
-29.72
-27.79
-24.37
-23.61
-28.04
-36.51
-44.29
-46.05
-39.16
-25.61
-11.58
-4.18
-7.79
-21.59
-39.55
-53.54
-57.36
-50.01
-36.51
-25.38
-24.40
-36.55
-58.47
-82.34
-99.96
-106.72
-103.71
-96.28
-90.36
-89.00
-90.64
-90.73
-85.11
-72.95
-57.66
-44.73
-38.42
-38.92
-41.97
-41.07
-30.63
-8.47
23.32
60.21
97.42
131.98
163.40
192.38
219.65
244.72
265.78
280.56
287.20
285.20
275.59
260.51
242.26
222.68
202.68
182.29
161.26
139.83
118.28
97.09
76.73
57.32
38.52
19.74
0.34
-19.78
-40.15
-59.83
-77.67
-92.82
-104.87
-113.87
-120.10
-123.91
-125.44
-124.83
-122.29
-118.46
-114.20
-110.57
-108.61
-108.65
-111.75
-119.52
-133.69
-154.68
-179.97
-203.66
-218.02
-216.49
-196.51
-160.91
-116.52
-71.22
-31.14
0.66
23.85
39.61
49.56
55.84
61.44
69.83
84.15
105.54
131.80
157.29
174.87
178.70
167.77
145.94
120.57
99.81
89.42
90.65
99.87
110.74
116.20
111.53
95.73
71.19
41.85
11.08
-19.20
-48.27
-75.47
-99.82
-119.84
-134.74
-144.92
-152.04
-158.50
-166.41
-176.82
-189.42
-202.81
-215.14
-225.05
-232.07
-236.61
-239.40
-240.93
-240.96
-238.45
-232.65
-222.36
-207.02
-186.97
-163.39
-137.87
-111.87
-86.36
-61.75
-38.17
-15.63
5.48
24.52
40.76
53.75
63.64
71.18
77.49
83.69
90.51
98.06
106.04
113.92
121.39
128.55
136.00
144.70
155.89
170.95
190.38
213.92
239.82
264.66
283.98
293.52
290.80
276.08
252.28
223.77
194.75
167.96
144.29
123.46
104.87
88.27
73.78
61.49
51.10
41.87
32.98
23.95
14.86
6.32
-0.81
-5.95
-8.97
-10.29
-10.64
-10.82
-11.46
-12.86
-15.00
-17.59
-20.22
-22.37
-23.51
-23.19
-21.25
-17.96
-14.05
-10.47
-7.94
-6.58
-5.89
-4.98
-3.18
-0.45
2.48
4.53
4.85
3.37
0.90
-1.09
-1.07
1.99
8.07
15.96
23.49
28.03
27.42
20.83
9.28
-4.48
-17.00
-25.46
-28.98
-28.84
-27.67
-27.95
-30.68
-34.98
-38.80
-40.30
-38.93
-35.80
-32.86
-31.75
-32.93
-35.50
-37.79
-38.20
-35.50
-28.93
-17.94
-2.49
16.35
35.59
50.29
54.74
44.92
20.99
-11.61
-43.54
-65.13
-70.56
-60.32
-40.66
-20.24
-5.86
0.33
0.78
-0.01
1.36
5.29
9.73
12.14
11.87
10.71
11.85
17.47
26.90
36.58
41.78
39.38
29.65
16.18
3.82
-4.03
-7.12
-8.19
-10.96
-17.80
-28.32
-39.86
-49.18
-54.27
-55.20
-53.53
-51.06
-48.79
-46.70
-44.28
-41.12
-37.29
-33.18
-29.24
-25.71
-22.61
-19.77
-17.11
-14.59
-12.27
-10.21
-8.48
-7.09
-5.96
-4.87
-3.57
-1.87
0.19
2.27
3.90
4.70
4.54
3.67
2.50
1.48
0.83
0.64
0.82
1.26
1.83
2.32
2.50
2.20
1.36
0.16
-1.09
-2.11
-2.85
-3.46
-4.20
-5.23
-6.43
-7.46
-7.94
-7.71
-7.00
-6.39
-6.46
-7.46
-8.92
-9.70
-8.45
-4.22
2.81
11.18
18.69
23.27
24.01
21.46
17.25
13.14
10.23
8.62
7.93
7.97
9.03
11.62
15.87
21.00
25.56
28.05
27.50
23.74
17.00
7.76
-3.31
-14.88
-24.80
-30.40
-29.54
-21.73
-8.82
5.54
17.00
21.91
18.30
6.21
-12.22
-33.07
-51.22
-61.57
-60.49
-47.27
-24.60
2.23
27.23
45.82
56.11
58.87
56.49
51.45
45.45
39.25
33.00
26.99
21.59
17.35
14.62
13.34
12.89
12.09
9.57
4.39
-3.39
-12.47
-20.70
-25.93
-27.11
-24.81
-20.93
-17.66
-16.30
-16.72
-17.60
-17.49
-15.77
-13.02
-10.55
-9.53
-10.26
-12.06
-13.76
-14.34
-13.44
-11.34
-8.81
-6.58
-5.14
-4.56
-4.58
-4.82
-4.97
-4.86
-4.53
-4.09
-3.65
-3.25
-2.84
-2.36
-1.79
-1.19
-0.66
-0.30
-0.08
0.06
0.23
0.47
0.69
0.82
0.79
0.72
0.82
1.27
2.11
3.12
3.91
4.10
3.53
2.43
1.32
0.78
1.15
2.30
3.66
4.49
4.29
3.09
1.51
0.45
0.62
2.09
4.27
6.18
6.92
6.17
4.33
2.28
1.09
1.59
4.14
8.55
14.04
19.43
23.25
24.05
20.89
13.86
4.26
-5.64
-13.34
-16.98
-16.01
-11.40
-5.36
-0.55
0.77
-2.45
-9.59
-18.62
-26.77
-31.58
-31.80
-27.74
-20.96
-13.42
-6.69
-1.45
2.37
5.10
6.92
7.81
7.84
7.61
8.01
9.71
12.35
14.30
13.33
7.77
-2.35
-15.14
-27.58
-36.82
-41.28
-41.03
-37.48
-32.44
-27.38
-23.01
-19.37
-16.11
-12.80
-9.15
-5.07
-0.80
3.25
6.55
8.73
9.83
10.13
10.02
9.68
9.19
8.53
7.80
7.23
7.12
7.66
8.80
10.23
11.41
11.82
11.18
9.57
7.43
5.42
4.15
3.91
4.60
5.81
6.98
7.63
7.49
6.61
5.25
3.82
2.65
1.97
1.80
2.04
2.49
2.98
3.33
3.45
3.30
2.95
2.56
2.29
2.32
2.70
3.35
4.04
4.52
4.59
4.24
3.65
3.11
2.90
3.13
3.72
4.37
4.77
4.75
4.37
3.89
3.68
3.96
4.66
5.39
5.54
4.59
2.37
-0.78
-3.99
-6.16
-6.38
-4.36
-0.67
3.27
5.72
5.27
1.41
-5.13
-12.55
-18.46
-20.71
-18.28
-11.71
-3.14
4.42
8.30
7.24
2.03
-4.82
-10.05
-11.13
-7.45
-0.67
5.99
9.17
6.92
-0.46
-10.56
-19.93
-25.58
-26.18
-22.54
-17.17
-13.06
-12.39
-15.61
-21.40
-27.30
-30.91
-30.93
-27.72
-23.01
-18.92
-16.95
-17.13
-18.12
-18.05
-15.29
-9.24
-0.07
11.52
24.39
36.51
44.33
43.12
28.92
1.39
-34.30
-68.25
-89.65
-91.82
-75.66
-49.11
-23.00
-5.56
0.98
0.11
-2.46
-2.72
-0.37
2.13
2.22
-0.45
-3.61
-3.74
1.65
12.67
26.94
40.48
49.47
51.53
46.56
36.76
25.75
17.13
13.15
13.83
17.15
20.27
20.88
18.29
13.50
8.48
5.03
3.86
4.51
5.84
6.85
7.34
7.95
9.62
12.86
17.28
21.71
24.81
25.81
24.92
23.15
21.81
21.90
23.83
27.40
31.95
36.50
39.98
41.57
41.15
39.58
38.62
40.18
45.22
52.81
60.16
63.64
60.65
51.10
37.88
25.91
20.14
23.46
35.39
52.23
68.43
78.55
79.22
69.92
52.57
30.64
8.18
-10.77
-22.79
-26.08
-21.76
-14.52
-11.80
-20.97
-45.63
-82.87
-123.60
-155.97
-170.49
-163.90
-139.80
-105.94
-70.01
-36.46
-5.96
22.79
50.48
75.88
96.25
109.07
113.74
112.14
107.83
104.28
103.32
104.77
107.05
108.61
108.70
107.39
104.61
99.37
89.69
73.89
52.20
27.74
5.86
-8.03
-10.89
-3.40
10.59
26.02
38.69
46.50
49.38
48.38
44.77
39.72
34.12
28.67
23.72
18.94
13.50
6.25
-3.36
-14.81
-26.40
-35.61
-40.25
-39.24
-33.01
-23.34
-12.78
-3.57
3.35
8.59
13.83
20.53
28.72
36.45
40.32
37.09
25.20
5.51
-19.21
-45.69
-71.53
-95.95
-119.35
-142.18
-163.71
-181.70
-192.80
-194.21
-184.99
-166.99
-144.48
-122.68
-105.98
-96.32
-93.06
-94.30
-98.18
-104.01
-112.19
-123.22
-136.41
-149.58
-159.90
-165.71
-167.85
-169.61
-175.26
-187.57
-205.92
-226.20
-242.60
-250.51
-248.88
-240.69
-231.15
-224.71
-222.34
-220.79
-214.32
-197.94
-170.44
-135.52
-100.23
-71.77
-54.11
-46.36
-43.50
-39.01
-27.48
-6.00
25.76
66.27
112.25
158.36
197.01
219.95
221.49
201.74
167.96
132.49
108.04
102.46
115.90
141.51
169.26
190.41
200.60
200.24
192.71
181.96
170.55
158.99
146.11
130.24
110.48
87.37
62.75
38.81
16.93
-3.06
-22.54
-42.86
-64.23
-85.37
-103.86
-117.24
-124.32
-125.77
-123.92
-121.91
-122.27
-125.82
-131.43
-136.20
-136.47
-129.50
-114.39
-92.35
-66.09
-38.23
-10.06
18.66
49.29
82.84
118.64
153.31
182.42
202.35
212.07
216.05
220.24
229.65
246.02
265.79
283.13
292.63
291.82
282.17
268.00
253.72
241.81
231.79
220.84
205.90
185.40
160.33
133.82
109.69
90.48
76.73
66.98
59.00
51.20
43.54
37.30
34.03
34.30
36.80
38.94
38.15
33.26
25.24
16.50
9.33
4.32
-0.22
-7.57
-20.81
-41.03
-66.66
-94.14
-119.76
-141.46
-159.52
-175.91
-192.61
-210.10
-226.55
-238.63
-243.15
-238.66
-226.35
-209.79
-193.80
-182.68
-178.64
-180.80
-185.23
-186.26
-178.18
-157.14
-122.12
-74.64
-17.78
44.83
109.33
171.59
227.17
272.33
305.27
327.09
341.45
352.78
363.88
374.49
381.72
381.85
372.69
354.37
328.75
296.97
259.58
216.29
166.94
113.56
59.16
7.57
-37.61
-74.07
-101.01
-118.99
-129.67
-135.29
-138.04
-139.89
-142.27
-146.17
-152.20
-160.31
-169.56
-178.10
-183.72
-184.71
-180.71
-172.79
-162.89
-152.74
-143.22
-134.08
-124.45
-113.44
-100.64
-86.38
-71.49
-57.08
-44.22
-33.35
-24.08
-14.74
-2.94
13.51
35.33
61.09
87.14
108.46
120.17
119.37
106.76
87.32
69.20
60.80
66.84
85.38
107.52
120.82
114.96
86.71
41.36
-10.03
-56.18
-90.37
-111.99
-124.49
-131.68
-135.23
-134.66
-129.56
-121.45
-114.06
-111.80
-117.04
-128.61
-142.21
-152.55
-155.92
-151.78
-142.60
-132.39
-124.79
-121.65
-122.62
-125.73
-128.58
-129.41
-127.74
-124.23
-120.17
-116.75
-114.60
-113.91
-114.71
-117.16
-121.48
-127.55
-134.25
-139.21
-139.15
-131.03
-113.68
-88.89
-61.31
-37.02
-21.20
-15.78
-19.04
-26.34
-32.07
-31.71
-23.05
-6.16
17.41
45.70
76.90
109.33
141.33
171.27
197.68
219.43
236.17
248.00
255.26
258.26
256.85
250.05
236.01
212.79
179.41
137.65
92.90
53.18
26.55
17.71
26.00
45.78
68.06
84.30
89.79
84.41
71.32
54.54
36.98
20.30
5.89
-3.86
-5.44
4.08
24.56
50.84
74.17
84.85
76.66
49.68
10.43
-30.95
-65.31
-88.14
-100.99
-109.65
-121.02
-140.16
-169.84
-211.30
-265.06
-330.52
-403.55
-476.25
-537.11
-575.08
-581.25
-552.57
-492.71
-410.32
-315.56
-216.80
-119.04
-24.22
66.82
152.87
231.45
299.30
353.63
392.44
415.10
422.10
414.90
395.22
365.97
330.95
294.32
259.55
229.32
203.86
181.53
159.85
136.74
111.34
84.57
58.63
36.33
20.18
11.47
9.88
13.48
19.29
24.44
27.09
26.93
25.00
23.00
22.19
22.91
24.60
26.15
26.53
25.06
21.59
16.43
10.36
4.37
-0.66
-4.32
-7.02
-9.60
-12.81
-16.82
-21.19
-25.00
-27.58
-28.59
-27.93
-25.37
-20.72
-14.60
-8.87
-6.32
-8.80
-15.12
-19.78
-14.12
10.49
59.06
130.47
217.65
309.74
395.21
464.46
510.99
531.74
526.84
499.60
456.10
404.22
351.80
304.67
265.41
233.54
206.81
182.60
159.29
136.56
115.01
95.45
78.32
63.46
50.07
37.03
23.17
7.45
-10.87
-32.02
-55.51
-80.20
-104.54
-127.13
-147.04
-164.03
-178.31
-190.06
-198.94
-204.05
-204.29
-199.02
-188.61
-174.65
-159.56
-145.72
-134.61
-126.29
-119.79
-113.76
-107.51
-101.62
-97.83
-98.54
-106.19
-122.83
-149.82
-186.88
-231.29
-276.94
-314.57
-333.74
-326.44
-290.80
-232.76
-164.45
-99.90
-50.18
-20.38
-9.89
-15.19
-32.96
-61.45
-99.37
-143.70
-188.36
-225.30
-247.27
-251.09
-238.87
-217.06
-193.27
-173.01
-157.91
-145.96
-133.30
-116.48
-94.13
-67.57
-39.86
-14.46
6.14
21.29
32.00
40.18
47.51
54.47
60.28
63.49
62.86
58.20
50.51
41.50
32.72
24.91
17.72
10.22
1.54
-8.44
-18.89
-28.30
-35.21
-38.90
-39.80
-39.33
-39.17
-40.51
-43.57
-47.57
-51.23
-53.30
-53.13
-50.94
-47.84
-45.64
-46.42
-51.85
-62.48
-77.03
-92.36
-103.85
-106.91
-98.19
-76.35
-42.53
-0.22
44.78
85.12
113.57
125.55
121.08
104.80
84.01
65.13
51.09
40.85
31.28
20.09
7.78
-2.78
-8.20
-6.72
1.43
15.32
34.86
60.91
93.45
129.32
161.74
182.25
184.56
167.42
135.57
97.38
61.28
32.74
13.21
1.29
-5.12
-7.29
-5.52
0.01
8.27
17.35
25.40
31.53
36.34
41.39
48.20
57.47
68.76
80.83
92.16
101.34
107.34
109.57
107.88
102.58
94.44
84.40
73.30
61.58
49.38
36.89
24.77
14.17
6.19
1.16
-1.94
-5.24
-10.99
-20.37
-32.80
-46.19
-58.05
-66.72
-71.92
-74.59
-76.00
-76.87
-77.13
-76.30
-74.02
-70.59
-66.82
-63.25
-59.79
-55.90
-51.46
-47.48
-45.94
-48.86
-56.85
-68.28
-79.58
-86.85
-87.69
-82.48
-74.04
-66.02
-60.89
-58.72
-57.40
-54.12
-47.26
-37.30
-26.54
-17.69
-12.36
-10.25
-9.53
-8.11
-4.95
-0.84
2.39
3.01
0.55
-3.65
-6.87
-5.78
2.91
21.88
52.64
94.83
145.50
198.85
247.22
282.69
299.11
293.85
268.93
231.21
191.10
159.79
145.57
150.81
170.77
195.56
214.30
219.66
210.50
191.25
168.72
148.29
131.70
117.48
103.23
87.87
72.31
58.60
48.23
40.85
34.49
26.33
13.94
-3.94
-27.00
-53.81
-82.16
-109.52
-133.49
-152.04
-163.49
-166.40
-159.76
-143.48
-119.10
-90.04
-60.96
-36.12
-17.49
-3.78
8.89
24.85
46.58
73.26
101.47
127.09
147.47
162.28
172.83
180.62
186.01
188.04
185.21
176.61
162.56
144.45
124.29
103.88
84.42
66.54
50.41
36.06
23.47
12.40
2.24
-8.23
-20.65
-36.55
-56.52
-79.57
-103.08
-123.60
-138.33
-146.51
-150.08
-153.11
-160.10
-174.09
-195.14
-220.35
-244.94
-264.14
-274.83
-276.36
-270.21
-259.05
-245.28
-230.16
-213.92
-196.39
-177.44
-156.84
-133.73
-106.23
-72.38
-30.98
16.80
66.75
112.33
146.82
165.86
168.80
158.60
138.98
113.59
84.85
53.65
19.92
-16.60
-55.97
-97.78
-140.89
-185.38
-230.81
-276.15
-320.27
-362.31
-402.08
-440.21
-478.40
-519.14
-567.96
-629.62
-706.00
-794.80
-889.65
-982.38
-1066.30
-1139.03
-1188.59
-1210.75
-1204.55
-1170.20
-1108.41
-1020.83
-911.22
-785.87
-652.65
-518.30
-390.13
-272.52
-167.01
-73.34
9.58
83.11
148.72
203.93
250.96
291.86
329.07
364.67
399.63
433.73
465.74
494.00
517.11
535.18
547.64
554.50
556.09
552.89
545.30
533.64
518.37
499.99
479.82
458.44
436.43
414.25
392.21
370.40
348.80
327.34
306.01
285.26
265.22
245.92
227.38
209.54
192.37
175.84
159.92
144.64
130.23
116.81
104.41
93.05
82.71
73.40
65.09
57.72
51.17
45.34
40.04
35.11
30.44
26.07
22.14
18.88
16.49
15.06
14.52
14.67
15.28
16.17
17.38
19.11
21.65
25.24
29.88
35.30
40.98
46.38
51.11
55.20
59.02
63.20
68.29
74.57
81.90
89.82
97.78
105.42
112.75
120.19
128.54
138.88
152.35
169.75
190.98
214.50
237.24
255.04
263.74
260.37
244.00
216.08
180.10
140.88
103.60
72.98
52.45
43.72
46.80
60.19
81.27
106.65
132.42
154.38
168.60
172.22
164.42
146.81
123.08
97.76
74.71
56.08
42.13
31.88
24.07
17.77
12.56
8.25
4.49
0.69
-3.79
-9.34
-15.84
-22.66
-28.89
-33.83
-37.21
-39.33
-40.89
-42.60
-44.86
-47.63
-50.62
-53.54
-56.34
-59.11
-62.00
-64.96
-67.61
-69.35
-69.76
-68.96
-67.84
-67.91
-70.49
-76.31
-85.04
-95.20
-104.91
-112.61
-117.62
-120.34
-122.03
-124.35
-129.18
-138.27
-151.62
-166.25
-175.96
-173.05
-151.50
-110.53
-55.71
2.13
50.50
80.41
89.01
79.62
59.67
38.57
26.28
32.88
66.92
132.32
227.48
344.58
471.80
597.37
714.04
818.80
914.29
1004.96
1092.02
1172.60
1239.73
1283.99
1295.85
1267.73
1195.77
1081.08
936.57
773.54
602.28
431.22
266.50
111.56
-32.79
-167.84
-296.04
-420.25
-543.61
-666.91
-786.41
-895.00
-984.12
-1047.72
-1084.43
-1097.63
-1093.89
-1080.34
-1060.19
-1032.65
-993.03
-935.53
-858.60
-767.11
-669.47
-574.60
-488.84
-412.85
-342.84
-272.90
-198.46
-119.20
-38.67
37.81
105.57
161.93
206.56
240.17
262.98
274.13
272.23
257.14
231.04
198.10
163.57
132.18
106.83
88.35
75.66
66.64
59.44
53.23
48.17
44.99
44.22
45.66
48.35
50.78
51.44
49.52
45.14
39.15
32.80
27.15
22.79
19.77
17.73
16.18
14.74
13.37
12.23
11.63
11.80
12.77
14.40
16.42
18.40
20.03
21.01
21.11
20.13
17.93
14.38
9.44
3.42
-3.74
-11.87
-20.66
-29.70
-38.51
-46.68
-53.78
-59.51
-63.64
-66.13
-66.95
-66.17
-63.90
-60.31
-55.55
-49.77
-43.14
-35.82
-27.97
-19.72
-11.21
-2.64
5.79
13.89
21.48
28.35
34.38
39.52
43.85
47.56
50.88
54.11
57.56
61.55
66.15
71.44
77.46
84.21
91.67
99.79
108.56
117.95
128.01
138.53
149.36
160.40
171.59
182.88
194.28
205.79
217.49
229.46
241.44
253.25
264.74
275.76
286.09
295.43
303.29
308.85
313.56
317.77
321.47
324.36
325.95
325.55
322.48
316.02
305.62
290.95
271.54
247.28
218.35
185.23
148.60
109.30
68.28
26.52
-14.95
-55.48
-94.45
-131.35
-165.79
-197.44
-226.01
-251.21
-272.67
-289.99
-302.97
-311.44
-315.39
-314.94
-310.46
-302.45
-291.47
-278.14
-263.00
-246.68
-229.71
-212.65
-196.00
-180.19
-165.51
-152.05
-139.66
-128.05
-116.88
-105.94
-95.22
-85.00
-75.68
-67.58
-60.82
-55.12
-49.98
-44.84
-39.53
-34.39
-30.36
-28.72
-30.61
-36.60
-46.49
-59.41
-74.23
-90.23
-107.38
-126.46
-148.64
-174.78
-204.83
-237.63
-271.30
-303.82
-333.87
-361.29
-386.98
-412.65
-440.43
-472.72
-511.56
-557.60
-608.83
-659.78
-702.16
-727.12
-728.44
-704.94
-661.02
-604.70
-544.47
-486.39
-433.08
-384.53
-339.90
-298.98
-262.40
-230.70
-203.43
-178.89
-154.79
-129.47
-102.75
-75.93
-51.17
-30.32
-13.91
-0.91
10.88
23.78
39.18
56.95
75.47
92.51
106.29
116.44
124.15
131.79
141.63
154.91
171.20
188.59
204.68
217.73
227.54
235.50
244.16
256.06
272.97
295.34
321.95
350.22
376.50
396.84
407.77
407.88
397.79
380.21
359.34
338.99
322.01
309.63
301.23
294.42
286.54
275.08
259.26
240.42
220.02
197.98
171.80
137.42
92.03
38.32
-16.48
-62.85
-93.13
-106.43
-109.20
-111.87
-124.04
-150.66
-189.68
-236.49
-286.96
-333.02
-369.45
-392.79
-400.50
-391.21
-373.84
-351.20
-324.04
-292.97
-258.97
-221.19
-180.70
-138.70
-96.12
-53.53
-9.90
34.78
79.79
124.21
166.75
206.25
242.81
277.54
311.81
347.14
382.29
413.27
434.82
442.20
433.35
410.32
378.19
342.96
309.75
280.62
254.92
231.18
208.49
187.14
168.35
153.18
141.59
132.63
124.41
115.04
103.33
88.96
72.39
54.59
36.71
19.84
4.88
-7.55
-17.13
-23.57
-26.70
-26.51
-23.36
-18.02
-11.72
-5.82
-1.41
1.03
1.65
0.98
-0.54
-2.93
-6.56
-11.82
-18.46
-25.47
-31.36
-34.76
-35.07
-32.66
-28.57
-23.95
-19.59
-15.89
-13.02
-11.16
-10.54
-11.19
-12.69
-14.14
-14.47
-12.87
-9.12
-3.67
2.52
8.29
12.57
14.66
14.42
12.37
9.47
6.87
5.46
5.57
6.81
8.35
9.27
8.92
7.17
4.38
1.20
-1.85
-4.56
-7.15
-9.89
-12.88
-15.79
-17.78
-17.94
-15.72
-11.40
-6.14
-1.62
0.63
-0.19
-3.79
-8.79
-13.39
-16.17
-16.71
-15.72
-14.53
-14.08
-14.02
-12.63
-7.81
1.43
13.89
26.23
34.37
35.38
28.93
17.40
4.77
-5.18
-10.27
-10.23
-6.21
0.08
7.00
13.25
17.77
19.68
18.36
13.84
6.83
-1.35
-9.34
-15.98
-20.75
-23.72
-25.37
-26.29
-26.92
-27.36
-27.34
-26.21
-23.15
-17.49
-9.00
1.88
14.02
25.82
35.49
41.38
42.41
38.25
29.29
16.59
1.57
-14.03
-28.33
-39.44
-45.76
-46.45
-41.84
-33.60
-24.36
-16.74
-12.45
-11.66
-13.19
-15.34
-16.76
-16.99
-16.17
-14.58
-12.30
-9.24
-5.57
-1.78
1.41
3.43
4.15
3.87
3.06
2.06
1.02
0.13
-0.18
0.61
2.72
5.72
8.63
10.34
10.36
9.11
7.66
6.95
7.29
8.20
8.97
9.22
9.20
9.48
10.45
11.88
12.95
12.97
11.81
10.17
9.14
9.55
11.39
13.83
15.55
15.46
13.13
8.85
3.42
-2.20
-7.17
-10.88
-12.98
-13.46
-12.57
-10.77
-8.60
-6.53
-4.91
-3.97
-3.79
-4.31
-5.37
-6.73
-8.14
-9.37
-10.25
-10.57
-10.18
-8.90
-6.79
-4.23
-1.99
-0.92
-1.59
-3.97
-7.41
-11.06
-14.16
-16.30
-17.26
-16.85
-14.84
-11.13
-6.05
-0.44
4.54
7.86
8.96
7.97
5.59
2.74
0.17
-1.64
-2.54
-2.57
-1.96
-0.98
0.07
1.00
1.71
2.19
2.40
2.32
1.99
1.51
1.04
0.67
0.31
-0.36
-1.67
-3.68
-6.14
-8.46
-10.11
-10.78
-10.52
-9.52
-7.93
-5.76
-3.02
0.01
2.79
4.65
5.24
4.82
4.16
4.18
5.36
7.54
9.94
11.72
12.40
12.02
10.99
9.76
8.58
7.47
6.28
4.91
3.32
1.52
-0.50
-2.68
-4.95
-7.14
-9.04
-10.51
-11.57
-12.29
-12.86
-13.34
-13.68
-13.74
-13.35
-12.47
-11.19
-9.75
-8.41
-7.29
-6.36
-5.37
-4.15
-2.68
-1.28
-0.39
-0.40
-1.20
-2.26
-2.76
-2.07
-0.12
2.53
5.05
6.76
7.56
7.86
8.26
9.13
10.32
11.26
11.30
10.18
8.18
6.07
4.75
4.74
6.02
7.99
9.83
10.88
10.98
10.45
9.86
9.69
10.11
10.89
11.63
12.01
11.94
11.51
10.93
10.33
9.75
9.15
8.44
7.55
6.38
4.83
2.86
0.52
-1.99
-4.35
-6.22
-7.30
-7.44
-6.61
-4.89
-2.47
0.32
3.02
5.11
6.14
5.97
5.02
4.10
4.21
6.09
9.73
14.32
18.49
21.06
21.61
20.80
20.04
20.80
23.94
29.25
35.58
41.19
44.44
44.35
40.93
35.28
29.25
24.89
23.73
26.28
31.96
39.31
46.31
50.69
50.39
43.98
31.38
14.13
-4.75
-21.70
-34.03
-40.92
-43.46
-43.76
-43.65
-43.76
-43.72
-43.05
-41.99
-41.80
-44.07
-49.58
-57.69
-66.47
-73.58
-77.21
-76.83
-73.17
-67.88
-62.86
-59.53
-58.61
-60.32
-64.82
-72.72
-85.02
-102.38
-124.06
-147.20
-167.12
-178.76
-178.51
-165.53
-141.66
-109.97
-73.21
-33.13
8.75
50.06
87.25
116.57
135.82
145.57
148.98
150.14
151.97
155.00
157.71
157.67
152.95
142.84
127.69
108.53
86.65
63.45
40.38
18.85
0.06
-15.06
-25.57
-30.50
-29.34
-22.68
-12.61
-2.25
5.37
8.51
7.48
4.22
1.01
-0.92
-1.87
-3.27
-6.49
-11.84
-18.18
-23.50
-26.09
-25.61
-23.38
-21.63
-22.12
-24.87
-27.81
-27.69
-21.83
-9.83
5.86
20.97
31.29
34.49
30.90
22.94
13.66
5.37
-0.88
-5.11
-7.56
-8.25
-6.98
-3.73
0.92
5.71
9.14
10.09
8.33
4.60
0.32
-3.00
-4.29
-3.21
-0.19
4.06
8.81
13.41
17.41
20.31
21.66
21.48
20.50
20.15
21.83
25.98
31.28
34.90
33.59
25.40
11.05
-5.92
-20.59
-28.61
-27.82
-18.61
-3.06
16.21
36.44
54.50
66.65
69.22
60.20
40.74
15.45
-9.30
-28.10
-38.77
-42.87
-44.04
-45.45
-48.07
-50.80
-52.04
-51.39
-50.15
-50.24
-52.80
-57.16
-61.25
-62.75
-60.25
-53.59
-43.16
-29.20
-11.33
11.20
38.47
68.88
98.96
123.76
138.27
138.75
123.59
93.61
51.65
2.08
-49.73
-98.14
-138.26
-166.87
-183.21
-189.11
-188.14
-184.24
-180.24
-177.16
-174.40
-170.72
-165.23
-157.84
-148.93
-138.52
-125.65
-108.46
-84.65
-52.37
-11.20
37.06
87.96
134.79
170.24
188.55
187.95
171.90
148.13
126.03
112.81
110.62
115.82
121.00
118.57
104.39
79.37
48.67
18.84
-5.32
-22.34
-33.51
-40.66
-43.89
-40.96
-29.00
-7.43
20.22
46.57
63.51
66.28
56.08
39.61
25.73
21.00
26.61
38.39
49.34
53.21
47.41
33.36
15.20
-2.51
-16.73
-26.56
-32.89
-37.05
-39.86
-41.17
-40.29
-36.77
-31.05
-24.52
-18.80
-14.94
-12.69
-10.69
-7.23
-1.18
7.60
18.51
30.99
45.21
62.12
82.79
107.39
134.64
162.02
186.62
206.17
219.74
227.63
231.04
231.18
229.06
225.13
219.34
211.29
200.25
185.39
165.89
141.15
110.74
74.37
32.21
-14.47
-62.68
-107.59
-143.60
-166.36
-174.74
-171.38
-161.42
-149.87
-139.12
-128.43
-115.30
-98.19
-78.38
-59.94
-47.69
-44.62
-50.36
-61.74
-74.75
-86.73
-97.33
-107.87
-119.77
-132.98
-145.43
-153.87
-155.23
-148.17
-133.61
-114.38
-94.09
-75.80
-61.11
-50.01
-41.33
-33.55
-25.56
-16.95
-8.09
0.31
7.63
13.62
18.41
22.10
24.42
24.70
22.20
16.68
8.88
0.45
-6.63
-10.85
-11.76
-10.21
-7.74
-5.94
-5.87
-7.67
-10.72
-13.97
-16.39
-17.34
-16.82
-15.46
-14.27
-14.12
-15.29
-17.25
-18.97
-19.42
-18.07
-15.03
-10.80
-5.87
-0.47
5.39
11.54
17.36
21.78
23.71
22.51
18.30
11.84
4.10
-4.05
-11.97
-19.03
-24.61
-28.30
-30.19
-31.07
-31.92
-33.07
-33.51
-31.02
-23.38
-10.03
6.93
23.07
33.73
36.38
32.01
24.51
18.67
17.57
21.27
27.40
32.89
35.86
36.56
36.71
37.76
39.27
38.37
31.16
15.19
-8.30
-33.97
-54.44
-63.61
-59.56
-45.18
-26.58
-9.91
1.17
6.00
6.07
2.96
-2.70
-10.89
-21.15
-31.66
-39.45
-41.63
-36.87
-25.91
-11.24
3.92
17.00
26.66
32.79
36.14
37.55
37.33
35.47
32.05
27.64
23.43
20.61
19.78
20.60
22.10
23.20
23.64
23.98
25.21
28.02
32.21
37.17
42.29
47.38
52.33
57.02
60.96
63.38
63.81
62.68
61.56
62.59
67.49
75.94
86.04
95.10
101.10
103.84
104.96
106.64
109.79
113.01
112.25
103.36
84.21
55.70
21.23
-15.43
-52.17
-89.59
-125.25
-157.53
-184.20
-202.65
-211.01
-209.07
-198.60
-182.52
-163.80
-144.51
-126.31
-109.95
-95.54
-83.02
-72.25
-63.48
-57.05
-53.23
-51.98
-53.38
-57.23
-63.18
-70.88
-80.00
-90.62
-102.93
-117.08
-133.00
-150.69
-169.98
-190.46
-211.64
-232.56
-252.36
-270.02
-284.32
-293.80
-297.14
-293.09
-280.73
-261.27
-234.66
-201.13
-161.41
-116.78
-68.94
-19.93
28.14
73.26
113.75
148.58
177.00
198.62
213.45
221.88
224.58
222.34
216.00
206.39
194.47
180.93
166.24
150.78
134.84
118.60
102.21
85.75
69.26
52.87
36.64
20.55
4.58
-11.18
-26.67
-41.79
-56.45
-70.53
-83.86
-96.28
-107.61
-117.99
-127.39
-135.65
-142.55
-147.78
-151.07
-152.08
-150.61
-146.51
-139.82
-130.62
-119.14
-105.75
-90.90
-75.08
-58.78
-42.48
-26.58
-11.40
2.88
16.10
28.25
39.30
49.30
58.29
66.34
73.56
80.01
85.82
91.08
95.93
100.42
104.62
108.55
112.15
115.36
118.06
120.15
121.52
122.06
121.73
120.50
118.47
115.77
112.66
109.42
106.54
104.56
103.99
105.29
108.77
114.56
122.68
132.95
145.05
158.27
171.59
183.61
192.61
196.65
193.87
182.65
161.96
131.59
92.27
45.62
-6.08
-60.20
-114.03
-165.05
-211.03
-250.04
-280.55
-301.43
-312.17
-312.99
-305.00
-290.24
-271.24
-250.45
-229.64
-209.44
-189.40
-168.50
-145.80
-121.27
-95.80
-71.04
-48.61
-29.19
-12.00
5.06
24.52
48.24
76.49
107.60
138.73
166.83
190.18
209.09
225.58
242.88
264.24
292.27
328.19
370.85
415.49
453.26
472.42
461.94
416.17
338.33
240.53
139.75
51.41
-16.05
-62.94
-95.73
-122.10
-146.48
-168.69
-185.42
-193.34
-190.90
-178.58
-157.65
-129.17
-94.00
-53.58
-11.34
27.41
56.97
73.10
74.99
65.51
50.04
34.39
22.84
17.10
16.58
19.37
23.33
26.92
29.42
30.84
31.65
32.38
33.26
34.05
34.01
32.19
27.98
21.62
14.31
7.83
3.87
3.28
5.83
10.35
15.31
19.34
21.66
22.02
20.71
18.32
15.53
13.07
11.49
11.14
12.03
13.80
15.79
17.13
17.05
15.12
11.50
6.90
2.43
-0.98
-2.89
-3.33
-2.54
-0.62
2.29
5.74
8.53
8.96
5.63
-1.53
-10.79
-19.09
-23.36
-22.09
-15.98
-7.49
0.66
6.78
10.53
12.38
12.64
11.09
7.22
1.17
-5.90
-11.95
-15.00
-14.08
-9.69
-3.61
1.96
5.24
5.44
2.78
-1.77
-6.93
-11.39
-14.12
-14.70
-13.35
-10.72
-7.46
-3.98
-0.48
2.65
4.64
4.50
1.64
-3.47
-8.97
-12.40
-11.75
-6.57
2.02
12.17
22.35
31.84
40.24
46.57
48.88
44.92
33.65
16.62
-2.07
-17.35
-25.30
-24.95
-18.34
-9.25
-1.38
2.99
3.26
-0.22
-6.89
-16.20
-27.22
-38.10
-45.94
-47.56
-40.69
-25.45
-4.67
16.62
33.03
40.60
38.16
27.63
13.08
-0.73
-10.04
-13.17
-10.84
-5.51
-0.22
2.63
2.26
-0.47
-3.62
-5.23
-4.34
-1.46
1.67
3.06
1.26
-3.91
-11.42
-19.53
-26.33
-29.80
-27.71
-17.69
1.98
30.68
63.98
93.53
109.64
105.59
81.34
44.56
7.53
-18.40
-27.89
-23.32
-12.26
-2.55
1.83
1.88
1.38
3.31
7.56
11.16
10.54
3.97
-7.40
-20.19
-30.84
-37.14
-38.70
-36.35
-31.05
-23.10
-12.18
1.67
16.99
30.65
38.40
36.33
22.64
-1.06
-29.84
-56.96
-76.27
-84.44
-81.77
-71.36
-57.17
-42.17
-27.72
-14.07
-1.52
8.88
15.81
18.47
17.49
14.75
12.26
11.03
10.52
9.46
7.13
4.25
2.65
4.05
8.81
15.50
21.58
24.83
24.46
21.29
17.12
13.51
11.10
9.51
8.03
6.20
4.15
2.32
0.97
-0.16
-1.71
-4.16
-7.45
-10.85
-13.18
-13.49
-11.49
-7.76
-3.51
-0.02
1.96
2.51
2.35
2.36
2.96
3.85
4.19
3.21
0.66
-2.98
-6.86
-10.33
-13.30
-16.20
-19.43
-22.94
-26.03
-27.66
-27.07
-24.06
-19.12
-13.15
-7.12
-1.84
2.12
4.36
4.79
3.58
1.13
-1.99
-5.18
-7.86
-9.48
-9.55
-7.86
-4.71
-1.01
1.97
3.17
2.29
0.07
-2.18
-3.35
-3.11
-2.16
-1.67
-2.46
-4.40
-6.44
-7.25
-6.10
-3.34
-0.19
2.07
2.80
2.39
1.81
1.86
2.75
4.07
5.38
6.67
8.35
10.64
12.96
13.88
11.85
6.26
-1.83
-10.09
-16.04
-18.43
-17.72
-15.58
-13.64
-12.53
-11.70
-10.18
-7.45
-4.02
-1.04
0.46
0.29
-0.76
-1.51
-1.09
0.50
2.45
3.62
3.21
1.21
-1.57
-3.79
-4.14
-1.87
2.87
8.98
14.68
18.06
17.70
13.09
4.82
-5.62
-16.32
-25.33
-31.15
-32.86
-30.21
-23.68
-14.39
-4.01
5.58
12.74
16.59
17.23
15.55
12.74
9.71
6.90
4.43
2.53
1.83
3.10
6.59
11.49
15.91
17.59
15.11
8.76
0.52
-6.87
-11.26
-12.09
-10.46
-8.25
-6.99
-7.04
-7.61
-7.50
-5.92
-3.06
0.11
2.49
3.45
3.19
2.49
2.15
2.51
3.28
3.76
3.36
2.01
0.19
-1.32
-1.92
-1.47
-0.33
0.88
1.63
1.77
1.46
0.94
0.35
-0.40
-1.52
-3.14
-5.13
-7.13
-8.74
-9.67
-9.88
-9.50
-8.67
-7.45
-5.90
-4.14
-2.47
-1.24
-0.72
-0.90
-1.45
-1.87
-1.71
-0.74
1.01
3.25
5.55
7.41
8.36
8.16
6.86
4.82
2.63
0.80
-0.37
-0.90
-1.05
-1.10
-1.23
-1.43
-1.61
-1.62
-1.36
-0.77
0.13
1.25
2.33
3.06
3.09
2.24
0.62
-1.37
-3.10
-3.93
-3.50
-1.88
0.42
2.66
4.17
4.72
4.57
4.33
4.59
5.54
6.86
7.88
7.89
6.53
4.04
1.16
-1.09
-1.79
-0.56
2.27
5.69
8.36
9.14
7.54
4.03
-0.20
-3.47
-4.28
-1.69
4.39
12.89
21.52
26.86
25.32
14.66
-4.50
-28.06
-49.62
-63.01
-65.05
-56.87
-43.04
-28.94
-18.13
-11.03
-5.84
-0.53
5.34
10.32
12.28
10.07
4.63
-1.55
-5.69
-6.23
-3.41
1.10
5.20
7.51
7.88
7.18
6.68
7.30
9.10
11.35
12.99
13.14
11.54
8.54
4.86
1.16
-2.05
-4.51
-6.05
-6.52
-5.83
-4.07
-1.50
1.36
3.89
5.59
6.14
5.63
4.53
3.59
3.64
5.31
8.76
13.52
18.50
22.26
23.46
21.34
16.12
8.98
1.64
-4.29
-7.89
-9.22
-9.13
-8.62
-8.31
-8.12
-7.43
-5.67
-2.80
0.49
3.05
3.90
2.78
0.45
-1.59
-1.72
1.08
6.79
14.38
22.13
28.34
31.85
32.46
30.74
27.73
24.29
20.84
17.31
13.46
9.37
5.59
2.99
2.41
4.19
8.04
13.02
17.89
21.40
22.53
20.75
16.17
9.66
2.89
-2.05
-3.22
0.47
8.56
18.68
26.92
28.95
21.80
5.46
-16.52
-38.06
-52.90
-57.34
-51.82
-40.45
-28.67
-20.41
-16.51
-14.96
-13.04
-9.51
-5.41
-2.95
-3.59
-6.62
-9.33
-8.53
-2.48
8.34
21.64
34.82
46.16
55.07
61.47
64.85
64.00
57.63
45.24
27.97
8.47
-9.93
-24.28
-32.71
-34.67
-30.73
-22.47
-12.19
-2.61
3.61
4.57
-0.07
-8.62
-17.72
-23.06
-20.74
-8.64
12.69
39.59
65.84
83.94
87.32
72.65
41.49
0.18
-42.16
-76.82
-98.62
-107.23
-106.25
-100.63
-93.87
-86.70
-77.73
-65.52
-50.47
-35.34
-23.93
-18.94
-20.32
-25.03
-28.44
-26.54
-17.57
-2.50
15.65
33.41
47.93
57.41
60.94
58.04
48.69
33.51
14.07
-7.19
-27.31
-43.53
-53.93
-57.52
-54.19
-44.55
-29.99
-12.77
4.11
17.37
24.58
25.04
20.25
13.37
8.08
7.15
11.66
20.99
33.29
45.93
55.74
59.30
53.72
38.01
14.16
-12.83
-36.52
-51.71
-56.65
-53.46
-46.60
-40.16
-35.77
-32.39
-27.84
-20.86
-12.30
-4.70
-0.64
-1.18
-5.21
-10.02
-12.53
-10.55
-3.41
7.87
21.15
33.77
43.41
48.59
49.18
46.18
41.21
35.82
30.89
26.48
22.20
17.58
12.47
7.17
2.25
-1.58
-3.72
-3.90
-2.21
0.65
3.53
5.14
4.75
2.68
0.27
-0.41
2.43
9.77
21.40
35.90
50.66
61.98
65.56
57.82
37.59
7.11
-28.02
-60.77
-85.31
-98.93
-102.38
-98.42
-89.84
-78.14
-63.76
-47.20
-30.12
-15.32
-5.63
-2.53
-5.30
-11.30
-17.02
-19.37
-16.65
-8.85
2.37
14.48
24.97
32.28
36.32
38.22
39.26
39.93
39.38
35.83
27.86
15.53
0.88
-12.65
-21.53
-23.52
-18.38
-7.76
5.51
18.19
27.40
31.14
28.78
21.32
11.38
2.60
-1.41
1.78
12.70
29.61
48.66
64.44
71.32
65.09
44.85
13.87
-20.95
-51.41
-71.14
-77.95
-74.20
-65.01
-55.34
-47.65
-41.49
-34.98
-27.01
-18.58
-12.19
-10.06
-12.23
-15.98
-16.95
-11.13
3.22
25.04
51.06
77.17
99.63
115.37
121.72
116.01
96.00
61.23
14.56
-37.30
-85.01
-119.39
-134.49
-129.49
-108.63
-79.20
-48.67
-22.44
-3.02
9.32
15.39
16.09
12.50
6.46
0.94
-0.19
6.52
22.59
46.58
73.81
97.17
109.15
104.29
81.42
44.72
2.67
-34.69
-59.41
-68.51
-64.48
-53.43
-41.72
-33.03
-27.36
-22.41
-16.02
-8.05
-0.44
4.27
4.89
2.71
0.99
3.54
12.90
29.06
49.18
68.14
80.17
80.95
69.32
48.31
24.07
3.47
-8.71
-11.82
-9.05
-5.45
-5.18
-9.69
-17.57
-25.89
-31.80
-33.69
-31.44
-26.01
-18.94
-12.08
-7.14
-5.14
-5.71
-6.93
-5.62
1.32
15.52
36.02
59.08
78.81
88.82
84.13
62.93
27.69
-15.41
-58.26
-93.57
-117.01
-127.80
-127.82
-119.77
-105.79
-87.08
-64.85
-41.23
-19.53
-3.60
3.72
1.81
-7.19
-18.92
-28.18
-30.61
-23.80
-7.93
14.53
39.96
64.78
86.25
102.79
113.57
117.96
115.54
106.27
90.87
71.21
50.03
30.47
15.33
6.62
5.36
11.44
23.32
37.75
50.06
55.09
48.94
30.98
4.76
-22.71
-43.25
-50.49
-42.18
-20.83
7.32
34.44
53.21
58.39
47.76
22.64
-12.37
-50.26
-83.61
-107.12
-119.18
-121.83
-118.98
-113.82
-107.30
-98.45
-86.12
-70.92
-55.78
-44.59
-40.09
-42.08
-47.41
-51.36
-49.84
-40.95
-25.32
-5.41
15.82
35.63
51.81
62.46
65.93
61.27
48.70
29.95
7.90
-14.16
-33.50
-48.41
-57.92
-61.43
-58.34
-48.28
-31.79
-10.78
11.38
30.66
43.66
48.76
46.74
40.31
33.12
28.52
28.68
34.24
44.53
57.78
71.22
81.14
83.62
75.59
56.27
28.05
-4.10
-34.27
-57.93
-73.32
-81.35
-84.10
-83.06
-78.27
-68.90
-54.64
-36.87
-18.63
-3.55
5.68
8.36
5.75
0.38
-5.00
-8.38
-8.80
-6.38
-1.89
3.63
9.21
14.11
18.05
21.20
23.97
26.67
28.95
29.52
26.52
18.45
5.25
-10.94
-26.04
-35.20
-34.58
-22.94
-2.33
22.48
45.35
60.67
65.03
58.37
43.99
27.77
16.31
14.79
25.28
45.83
70.84
92.68
103.99
99.87
79.56
46.37
6.44
-33.58
-68.69
-96.37
-116.06
-127.82
-131.22
-125.26
-109.56
-85.78
-58.11
-32.28
-13.45
-4.21
-3.68
-8.33
-13.74
-16.52
-15.35
-10.89
-5.02
0.37
4.01
5.59
5.57
4.81
4.39
5.24
8.01
12.66
18.12
22.30
22.74
17.65
6.90
-7.51
-21.79
-31.60
-33.64
-26.85
-13.01
3.89
18.99
28.33
30.36
26.56
20.88
18.16
22.35
35.03
55.06
79.04
102.13
119.06
125.11
116.99
93.99
58.50
15.86
-27.24
-64.81
-93.08
-110.90
-118.99
-118.61
-110.80
-96.39
-76.83
-54.60
-33.08
-15.63
-4.59
-0.66
-2.75
-8.21
-13.41
-14.52
-8.22
7.35
31.96
63.25
96.96
127.59
149.50
157.88
149.56
124.18
84.50
36.09
-13.77
-57.79
-90.48
-109.09
-113.64
-105.98
-88.65
-64.33
-35.71
-5.77
21.81
42.98
54.41
54.83
46.04
32.67
20.66
15.20
19.10
32.15
51.82
74.36
95.66
111.56
117.94
110.98
88.49
51.47
4.72
-43.92
-85.97
-115.37
-130.41
-133.57
-129.76
-123.74
-118.28
-113.89
-109.67
-104.68
-98.62
-91.65
-83.74
-74.13
-61.53
-44.90
-24.23
-0.80
23.43
46.68
68.15
88.00
106.47
122.83
134.67
138.31
130.17
108.28
73.45
29.32
-18.64
-64.48
-103.04
-130.78
-146.00
-148.60
-139.74
-121.47
-96.53
-68.10
-39.51
-13.77
7.07
22.38
33.18
41.76
51.09
63.73
81.03
102.31
124.72
143.51
152.95
148.08
126.62
90.44
45.40
-0.54
-40.25
-69.97
-89.81
-102.12
-109.06
-110.80
-105.77
-92.62
-72.20
-48.28
-26.34
-11.02
-4.10
-3.91
-6.58
-8.20
-6.60
-1.76
4.94
11.89
18.31
24.20
29.81
35.06
39.33
41.57
40.74
35.92
26.15
10.67
-10.62
-36.20
-62.27
-83.15
-92.72
-86.61
-63.92
-27.88
15.16
57.42
91.72
112.74
117.87
107.67
85.99
59.59
36.67
24.65
27.72
45.16
71.26
97.14
113.42
113.07
93.29
56.11
7.67
-43.87
-90.49
-126.50
-149.70
-161.06
-163.22
-158.52
-147.58
-129.41
-102.88
-68.27
-28.32
12.19
47.82
74.03
88.21
89.86
80.16
61.59
37.71
12.83
-8.68
-23.24
-28.86
-25.66
-15.53
-1.24
14.51
29.52
42.08
50.79
54.39
51.88
43.03
28.75
11.27
-6.31
-20.88
-30.28
-33.91
-32.36
-26.89
-18.36
-6.91
7.60
24.63
42.18
57.16
66.98
71.29
72.78
76.02
84.82
99.51
115.83
126.32
123.31
102.27
63.56
11.90
-45.58
-101.66
-150.14
-186.16
-206.08
-207.88
-191.85
-161.07
-121.27
-79.41
-41.86
-13.02
5.49
14.49
16.38
14.21
10.87
8.70
9.37
14.04
23.38
37.43
55.28
74.68
91.92
102.40
101.46
85.61
53.27
5.33
-54.41
-119.27
-180.16
-227.19
-251.93
-249.93
-222.44
-176.30
-122.09
-70.82
-30.92
-6.47
3.01
1.60
-4.45
-8.25
-3.74
12.85
41.94
80.23
121.38
157.44
180.58
185.00
168.45
133.01
84.99
33.52
-11.95
-44.38
-61.36
-65.15
-61.01
-54.33
-48.12
-42.57
-36.40
-29.14
-22.45
-19.35
-22.19
-30.33
-39.55
-43.57
-36.76
-16.60
15.48
54.78
95.08
130.19
154.71
164.58
157.56
133.60
95.11
46.72
-5.32
-54.23
-93.73
-118.79
-126.48
-116.54
-92.00
-58.74
-24.16
4.76
23.47
30.82
28.89
21.86
14.62
11.61
16.00
29.35
51.21
78.75
107.07
130.20
142.13
138.36
117.05
79.74
31.13
-21.83
-71.53
-111.63
-138.41
-151.22
-151.72
-142.58
-126.48
-105.77
-82.92
-61.09
-44.06
-35.27
-36.28
-45.46
-57.96
-67.21
-67.38
-55.61
-32.80
-2.85
28.96
57.62
79.27
91.53
93.39
85.55
70.21
50.64
30.02
10.18
-8.76
-27.43
-45.47
-60.31
-67.68
-63.91
-48.52
-25.53
-2.11
14.49
20.32
16.44
8.06
2.05
4.33
17.88
42.26
73.99
107.38
135.62
152.15
152.21
134.30
100.79
57.04
9.78
-34.79
-72.17
-99.80
-116.66
-122.66
-118.39
-105.34
-86.12
-64.34
-44.08
-28.88
-20.76
-19.62
-23.28
-28.02
-29.76
-25.38
-13.57
4.89
27.70
52.17
75.71
95.94
110.21
115.27
108.31
88.31
56.89
18.35
-21.70
-58.06
-87.12
-106.93
-116.50
-115.22
-103.22
-82.04
-55.11
-27.43
-4.12
11.19
17.44
16.24
11.15
6.30
5.41
11.07
24.57
45.63
72.24
100.66
125.31
139.91
138.99
120.06
85.06
40.17
-5.89
-44.92
-71.80
-85.69
-89.03
-85.37
-77.42
-66.40
-52.77
-37.44
-22.49
-10.66
-4.18
-3.67
-7.65
-13.07
-16.59
-15.68
-9.25
2.29
17.72
35.55
54.00
70.88
83.24
87.75
81.66
63.83
35.30
-0.92
-40.69
-79.56
-113.33
-138.18
-150.88
-149.43
-133.96
-107.50
-75.58
-44.81
-20.70
-5.89
0.44
1.79
2.73
7.32
18.05
35.52
58.45
83.95
107.77
125.01
131.28
124.18
104.23
75.09
42.51
12.24
-11.73
-28.06
-37.94
-43.78
-47.74
-50.68
-52.09
-50.85
-46.34
-39.20
-31.31
-25.14
-22.56
-23.90
-27.65
-30.97
-31.03
-26.09
-16.14
-2.34
13.93
31.74
50.64
69.75
86.73
97.93
99.24
87.93
64.13
31.20
-5.09
-38.39
-63.37
-76.77
-77.70
-67.59
-49.76
-28.81
-9.71
3.46
8.75
7.09
2.03
-1.58
0.69
11.33
29.95
53.27
75.75
91.18
94.70
84.50
62.64
34.12
4.70
-21.42
-42.84
-60.21
-74.45
-85.21
-90.77
-89.31
-80.64
-66.89
-51.82
-39.05
-30.47
-25.80
-23.26
-20.72
-16.27
-8.45
3.91
21.34
43.08
66.50
87.59
102.40
108.79
107.35
100.60
90.99
79.04
62.95
40.07
9.46
-26.25
-61.00
-87.45
-100.22
-98.19
-84.69
-65.65
-46.73
-31.24
-19.55
-9.94
-0.33
10.34
21.55
31.58
38.59
42.07
43.62
46.56
54.47
68.92
87.65
104.49
111.27
101.06
71.66
27.24
-22.50
-65.81
-93.13
-100.68
-91.22
-72.27
-52.76
-39.97
-38.02
-47.78
-67.71
-94.09
-121.27
-141.61
-146.74
-130.38
-91.50
-36.36
22.67
71.38
99.37
104.10
91.27
71.50
55.12
47.97
49.60
54.97
57.86
54.25
44.07
30.48
17.60
8.04
1.87
-2.75
-7.66
-13.03
-16.91
-16.37
-9.35
3.76
19.73
33.73
40.87
38.02
24.89
3.88
-20.53
-43.16
-59.82
-68.91
-71.76
-71.86
-72.41
-73.89
-73.05
-64.28
-43.13
-9.73
30.06
67.00
92.83
104.32
104.26
99.20
95.34
95.22
97.12
97.41
94.06
88.68
86.09
91.18
105.57
125.95
145.07
154.85
150.02
129.95
97.89
58.94
17.75
-22.34
-59.15
-90.75
-114.98
-129.98
-135.12
-131.76
-122.92
-112.18
-102.30
-94.54
-88.74
-84.11
-79.93
-75.72
-71.09
-65.63
-59.05
-51.56
-43.92
-37.12
-31.82
-28.08
-25.46
-23.49
-22.05
-21.66
-23.00
-26.39
-31.34
-36.64
-40.99
-43.53
-44.23
-43.70
-42.63
-41.30
-39.53
-37.08
-34.07
-31.03
-28.32
-25.49
-21.03
-13.03
-0.39
16.01
33.13
46.98
54.47
55.02
50.83
45.51
42.08
41.34
41.83
41.17
37.81
32.01
25.48
20.09
16.71
15.01
14.23
14.17
15.65
19.90
27.53
37.67
48.01
55.74
58.71
56.35
49.82
41.40
33.36
26.87
21.39
15.03
5.55
-8.20
-25.31
-43.00
-57.76
-66.95
-69.77
-67.17
-60.85
-52.25
-42.15
-31.12
-20.12
-10.73
-4.59
-2.46
-3.64
-6.18
-7.79
-6.78
-2.69
3.79
11.27
18.23
23.34
25.60
24.44
19.95
13.07
5.41
-1.26
-5.96
-9.17
-12.78
-19.43
-31.19
-48.49
-69.64
-91.16
-108.69
-118.31
-117.62
-106.45
-87.03
-63.24
-39.49
-19.22
-3.92
6.94
14.99
21.53
26.31
27.55
23.27
13.10
-0.63
-13.37
-20.28
-18.41
-7.74
9.23
28.99
48.73
67.08
83.80
98.79
111.39
120.31
124.25
122.68
116.31
106.93
96.87
88.37
83.16
82.19
85.54
92.29
100.88
109.62
117.05
122.05
123.71
120.76
111.41
93.79
66.87
31.55
-8.84
-49.14
-84.08
-110.26
-127.28
-137.28
-143.21
-146.86
-147.84
-144.23
-134.32
-118.34
-98.71
-78.87
-61.21
-45.77
-30.23
-11.61
11.64
38.39
64.77
85.32
94.56
88.58
65.89
27.88
-21.19
-74.53
-123.75
-160.30
-177.51
-172.37
-146.66
-106.58
-60.97
-18.60
14.37
35.77
47.14
52.09
54.25
55.60
56.09
54.44
49.57
41.77
32.98
25.97
23.01
24.59
29.05
33.35
34.17
29.10
17.34
-0.28
-21.63
-43.67
-62.92
-76.02
-80.59
-76.14
-64.56
-49.69
-35.96
-26.51
-21.90
-19.99
-17.23
-10.63
0.72
15.33
30.22
42.60
51.23
56.94
61.96
68.41
76.79
85.31
90.25
87.59
74.91
52.73
24.39
-5.51
-33.05
-56.47
-76.17
-93.44
-108.74
-120.70
-126.70
-124.46
-113.55
-95.82
-74.46
-52.47
-31.48
-11.79
6.94
24.76
41.22
55.84
68.78
80.89
93.41
106.95
120.66
132.05
137.51
133.97
120.17
97.54
69.99
42.71
20.41
5.78
-1.26
-3.19
-3.69
-6.23
-13.03
-24.60
-39.76
-56.10
-70.59
-80.30
-83.25
-78.91
-68.22
-53.13
-35.71
-17.45
0.82
18.60
34.96
47.79
54.04
50.47
35.26
9.22
-23.91
-58.46
-88.65
-110.49
-122.58
-125.61
-121.24
-110.93
-95.67
-76.26
-53.87
-30.16
-6.98
14.15
32.34
47.17
58.52
66.36
71.01
73.59
75.99
80.38
87.81
97.10
104.28
103.73
90.47
62.46
22.04
-24.66
-69.73
-106.01
-128.91
-136.83
-130.52
-112.29
-85.73
-55.62
-27.51
-6.46
4.73
6.62
2.83
-1.81
-3.58
-1.17
4.45
11.41
18.38
24.95
31.09
36.51
40.31
41.48
39.58
35.31
30.12
25.26
20.88
15.54
6.86
-7.18
-26.83
-49.77
-71.50
-87.12
-93.40
-90.21
-80.32
-67.72
-55.54
-44.53
-33.38
-20.35
-5.08
10.53
23.10
29.72
29.80
25.49
20.57
18.38
19.87
23.48
26.59
27.55
27.16
28.30
33.81
44.11
56.07
64.11
63.28
52.09
33.62
14.08
-0.25
-5.76
-2.59
6.33
17.19
26.97
33.89
37.15
36.47
31.89
24.09
14.48
4.82
-3.37
-9.34
-13.05
-14.79
-14.64
-12.52
-8.52
-3.09
2.74
7.72
10.92
12.06
11.48
9.63
6.52
1.51
-6.17
-16.55
-28.07
-37.71
-42.03
-38.95
-29.18
-16.29
-5.11
0.64
0.36
-3.20
-5.58
-3.22
4.57
15.42
25.34
30.71
29.85
23.09
12.06
-1.38
-15.67
-29.57
-41.83
-51.23
-56.96
-59.03
-58.54
-57.16
-56.45
-57.10
-58.52
-59.11
-56.88
-50.38
-39.48
-25.67
-11.65
-0.26
6.79
9.80
10.80
12.36
16.10
21.64
26.68
28.22
23.84
12.61
-4.87
-26.90
-50.83
-72.96
-88.52
-92.39
-80.91
-53.83
-15.33
27.13
65.59
94.69
113.35
124.11
130.75
135.79
139.54
140.84
138.86
134.54
130.41
129.32
132.77
139.91
147.84
152.63
150.56
138.85
116.09
82.73
41.26
-3.91
-47.19
-83.13
-108.00
-120.87
-123.71
-120.02
-113.14
-104.86
-95.04
-82.04
-63.62
-37.79
-3.72
37.45
82.30
125.31
159.97
180.78
184.96
173.19
148.84
115.92
77.17
32.91
-18.21
-76.77
-140.13
-201.45
-250.74
-278.03
-277.09
-248.18
-198.58
-140.11
-84.97
-41.58
-12.63
4.12
13.05
17.53
18.48
15.09
7.14
-3.10
-10.87
-10.81
0.14
20.85
46.13
69.11
84.04
88.16
81.89
67.64
48.41
26.83
4.84
-15.89
-33.66
-46.82
-54.06
-54.65
-48.70
-37.33
-22.62
-7.24
6.38
17.08
25.56
34.05
45.15
60.30
78.79
97.99
114.54
125.57
129.44
125.64
114.30
95.69
70.10
37.66
-1.58
-47.48
-99.16
-153.71
-205.64
-247.26
-270.54
-269.92
-244.38
-198.01
-138.35
-73.81
-11.25
45.05
92.88
131.13
158.86
175.30
180.27
174.57
159.90
138.38
111.92
81.95
49.43
14.48
-23.62
-66.25
-114.55
-167.76
-221.87
-269.48
-301.69
-311.18
-295.51
-258.08
-206.84
-150.66
-95.60
-43.24
8.08
60.19
112.19
159.86
197.60
221.46
231.24
230.09
222.15
209.87
192.53
167.28
131.80
86.90
36.79
-12.72
-57.19
-95.13
-127.39
-154.87
-176.26
-187.65
-184.56
-164.52
-128.77
-82.03
-30.44
20.87
69.12
113.47
153.59
188.41
215.85
233.68
240.46
236.17
222.09
200.08
172.29
140.61
106.61
71.51
36.02
-0.05
-37.77
-78.64
-123.20
-169.32
-211.68
-242.79
-256.10
-249.33
-226.01
-193.41
-158.73
-125.22
-91.14
-52.48
-7.24
41.64
86.93
121.01
140.11
145.89
143.50
137.30
127.64
111.21
84.14
45.39
-1.88
-51.85
-98.99
-139.94
-173.41
-198.49
-213.17
-214.61
-200.81
-172.38
-132.86
-87.30
-39.83
7.80
55.93
105.49
156.18
205.62
249.99
285.36
308.63
317.93
312.79
293.83
262.71
222.07
175.14
125.12
74.92
27.09
-15.85
-51.30
-77.15
-93.34
-102.88
-111.80
-126.95
-152.00
-184.64
-216.16
-234.63
-230.21
-199.77
-148.19
-85.98
-24.48
28.29
68.55
95.21
107.10
102.13
79.40
41.74
-3.42
-46.00
-77.81
-96.11
-103.77
-106.61
-109.99
-116.48
-126.55
-140.16
-157.52
-178.07
-199.00
-214.52
-217.69
-204.20
-174.50
-134.20
-90.82
-49.56
-10.63
30.00
77.54
135.16
198.73
260.25
308.93
335.47
335.36
310.65
268.89
220.04
172.93
132.59
100.11
73.69
50.75
28.97
6.00
-21.02
-55.23
-98.42
-149.03
-200.77
-244.16
-269.29
-269.59
-244.64
-200.75
-148.75
-100.14
-63.38
-41.72
-33.90
-36.16
-44.73
-57.25
-72.22
-88.02
-101.68
-109.16
-106.48
-91.21
-63.23
-23.90
25.09
81.94
143.67
204.71
256.45
288.81
294.03
270.36
223.47
165.05
108.36
63.40
33.66
15.96
2.77
-14.21
-40.90
-78.84
-124.87
-172.22
-212.47
-238.24
-245.23
-233.38
-206.17
-168.87
-126.11
-80.18
-31.22
20.88
74.12
123.21
160.79
180.60
180.50
163.78
137.99
111.79
91.99
82.05
82.22
91.16
107.22
128.99
154.93
182.63
208.61
228.80
239.28
237.26
221.59
192.85
153.41
107.07
58.57
12.95
-25.46
-53.99
-72.41
-83.25
-91.49
-103.72
-126.12
-161.99
-209.69
-262.18
-308.93
-339.34
-346.47
-329.26
-292.28
-243.48
-191.23
-142.14
-100.07
-66.30
-40.20
-19.98
-3.43
11.30
24.89
36.35
43.45
44.09
37.87
27.02
16.05
10.76
16.59
37.01
72.22
118.39
167.82
210.50
237.10
242.30
227.29
199.41
169.20
146.01
134.08
131.42
131.46
126.36
110.05
79.83
36.55
-15.70
-69.90
-116.59
-145.30
-147.53
-120.50
-69.69
-8.50
45.88
78.59
82.55
60.32
21.84
-20.58
-57.14
-83.16
-98.90
-107.33
-111.95
-115.17
-117.85
-119.46
-118.70
-114.12
-104.96
-91.54
-75.11
-56.65
-35.98
-11.68
17.52
50.71
83.76
110.43
125.36
127.27
120.13
111.24
107.05
109.32
113.97
113.39
100.89
74.64
38.93
2.12
-27.37
-44.79
-50.74
-49.77
-47.39
-46.97
-48.34
-48.66
-45.10
-37.03
-26.75
-18.11
-14.14
-15.42
-20.15
-25.62
-29.95
-32.80
-34.66
-35.65
-34.89
-31.13
-24.10
-15.41
-8.08
-4.92
-6.81
-11.98
-17.13
-19.40
-17.95
-14.26
-10.97
-10.04
-11.82
-15.18
-18.25
-19.46
-17.94
-13.32
-5.77
3.92
13.91
21.62
24.60
22.06
15.95
10.23
8.59
11.78
16.52
16.72
6.43
-17.21
-52.50
-93.87
-134.01
-166.19
-185.53
-189.33
-176.97
-150.02
-112.24
-69.41
-28.11
6.04
30.20
44.92
53.29
59.00
64.42
69.89
74.19
75.96
74.83
72.14
70.04
69.99
72.00
74.63
76.03
75.31
72.96
70.41
68.86
68.22
67.00
63.19
55.48
44.22
31.34
19.60
11.36
7.63
7.78
9.93
11.74
11.38
8.10
2.39
-4.28
-9.99
-13.04
-12.46
-8.51
-2.72
2.43
4.22
0.82
-7.85
-19.78
-31.41
-38.95
-39.83
-33.70
-22.57
-9.83
1.16
8.43
12.00
13.50
15.08
18.11
22.43
26.47
28.19
26.39
21.56
15.72
11.23
9.27
8.84
7.01
0.48
-12.64
-31.80
-54.29
-76.46
-95.13
-108.21
-114.39
-112.40
-100.79
-78.69
-47.12
-9.85
27.13
57.53
77.06
84.87
83.30
76.35
67.84
60.37
55.39
53.79
56.22
62.62
71.38
79.21
81.79
75.49
58.87
33.26
2.22
-29.46
-56.61
-74.61
-80.09
-72.00
-52.31
-25.81
1.44
24.56
41.77
54.46
65.38
76.13
85.91
92.43
94.23
92.65
91.80
96.17
107.49
122.98
135.88
138.50
125.89
98.02
59.89
19.76
-13.40
-32.31
-33.24
-17.24
9.53
37.05
54.32
52.93
30.16
-9.86
-57.57
-101.20
-130.39
-138.74
-124.83
-91.63
-45.10
7.21
57.42
98.18
123.67
130.20
116.86
85.57
40.93
-10.32
-60.90
-104.56
-137.23
-157.33
-165.22
-162.58
-152.13
-137.54
-122.90
-111.42
-103.45
-95.29
-80.20
-51.80
-8.14
46.02
100.51
144.06
169.16
175.01
166.35
149.81
130.16
108.48
83.00
51.51
13.48
-29.47
-74.53
-119.31
-162.71
-204.22
-242.67
-275.14
-297.11
-303.77
-291.82
-260.85
-213.35
-154.00
-88.45
-22.72
37.18
85.81
119.31
136.61
140.08
134.68
125.94
117.42
109.01
97.71
79.38
51.28
13.76
-29.70
-73.47
-111.24
-137.31
-147.84
-141.71
-121.12
-91.15
-57.92
-26.13
2.94
31.48
63.06
99.49
138.65
175.00
202.17
216.48
218.51
212.01
200.64
185.48
164.24
133.91
94.18
49.39
7.45
-24.12
-41.99
-48.65
-50.53
-54.30
-63.69
-78.85
-98.11
-120.18
-145.15
-173.21
-202.58
-228.38
-243.71
-242.37
-221.59
-182.96
-131.43
-73.30
-14.81
38.26
80.22
105.72
110.96
95.60
63.55
22.38
-19.28
-54.44
-79.32
-93.22
-96.91
-91.24
-76.79
-54.49
-26.21
5.55
38.68
72.32
106.56
141.21
174.19
201.38
218.12
221.64
212.75
195.40
174.26
151.98
127.61
97.14
56.17
2.87
-59.97
-124.81
-181.23
-218.86
-230.52
-214.45
-175.08
-122.16
-68.10
-24.40
1.90
10.48
7.37
1.92
2.48
12.61
29.86
47.66
59.18
60.77
53.37
40.97
27.61
14.95
1.86
-14.02
-34.18
-57.94
-82.41
-103.43
-116.52
-117.92
-105.66
-80.59
-46.84
-10.92
20.68
44.22
60.17
72.45
85.67
102.17
120.77
138.06
150.87
158.35
162.09
163.87
163.51
157.67
141.46
111.52
68.89
19.78
-26.40
-60.65
-77.68
-77.36
-63.95
-44.03
-24.18
-9.94
-5.78
-15.37
-41.13
-82.70
-135.62
-191.17
-238.33
-267.32
-272.88
-255.52
-220.12
-173.16
-120.14
-64.79
-10.33
39.07
77.96
100.80
104.45
89.68
61.27
26.36
-7.62
-34.35
-49.21
-49.65
-35.70
-10.52
20.00
48.86
70.67
83.75
90.51
95.62
103.24
114.94
129.65
144.95
158.92
170.70
179.68
184.13
180.56
164.95
135.15
93.02
45.14
1.00
-30.46
-44.36
-41.76
-29.07
-15.07
-7.26
-9.15
-20.15
-37.36
-58.06
-81.00
-105.60
-129.97
-149.50
-157.80
-149.58
-124.26
-87.36
-49.01
-19.63
-5.38
-6.02
-15.78
-27.20
-34.97
-37.89
-38.35
-40.15
-46.25
-57.88
-74.41
-93.80
-112.99
-127.95
-134.08
-127.43
-106.28
-72.24
-29.77
15.52
59.18
99.06
134.89
166.67
193.36
213.03
223.96
226.15
221.49
212.47
200.14
183.17
158.93
126.09
87.23
49.01
19.57
4.57
4.02
12.45
21.96
26.03
22.15
11.48
-3.98
-24.41
-52.90
-93.25
-146.07
-206.05
-262.52
-303.38
-320.25
-311.84
-283.67
-244.40
-201.10
-156.58
-110.02
-60.42
-9.93
35.37
67.72
81.39
75.50
54.04
23.65
-8.94
-38.35
-60.26
-71.12
-68.37
-51.85
-24.83
6.69
36.70
62.14
84.21
106.68
132.36
160.35
185.74
202.10
204.92
193.80
172.11
144.93
116.78
90.45
67.48
49.17
37.01
32.17
34.20
39.95
43.81
39.35
22.23
-7.23
-43.39
-77.52
-101.86
-113.49
-115.34
-113.60
-113.12
-113.87
-110.96
-98.32
-73.28
-39.02
-3.32
25.66
43.49
50.76
51.29
49.03
45.69
40.79
33.37
23.33
11.33
-2.48
-19.76
-43.39
-75.03
-112.66
-149.55
-176.28
-184.71
-171.84
-141.05
-100.13
-57.07
-16.34
22.14
61.04
102.25
144.44
182.74
211.09
224.73
221.81
203.02
170.39
126.60
75.02
20.45
-30.43
-69.56
-89.45
-85.46
-57.94
-12.89
39.30
86.69
119.19
131.26
122.56
96.35
57.02
8.27
-46.89
-104.62
-158.67
-200.37
-220.90
-214.95
-183.82
-135.47
-81.63
-33.77
0.74
19.62
24.65
19.10
5.56
-14.59
-40.04
-67.95
-93.09
-108.74
-109.04
-91.61
-59.26
-19.48
18.26
46.28
61.67
66.97
68.18
71.27
78.98
89.75
99.38
103.82
101.61
94.36
85.29
77.22
70.81
64.69
56.69
45.29
30.44
13.18
-5.24
-24.08
-42.99
-61.33
-77.27
-87.62
-88.54
-77.39
-54.68
-25.17
2.98
20.94
23.16
10.53
-9.12
-23.98
-23.79
-4.62
29.18
67.13
97.62
112.74
110.90
95.79
73.55
49.80
28.05
9.91
-4.26
-15.29
-25.79
-40.22
-63.66
-98.99
-144.27
-191.98
-231.39
-252.74
-251.28
-228.83
-192.09
-148.96
-104.84
-61.22
-16.84
29.65
77.42
123.20
162.46
191.40
208.11
212.39
204.44
183.82
149.90
103.46
48.68
-6.52
-52.48
-81.56
-91.30
-85.28
-70.83
-55.16
-42.07
-31.18
-19.84
-5.87
10.47
26.82
40.76
51.74
61.51
72.68
86.83
103.35
119.98
134.39
145.33
152.80
156.91
156.87
150.95
137.82
118.02
94.70
72.37
54.71
42.45
32.57
19.40
-3.22
-39.52
-90.05
-151.03
-214.92
-272.16
-313.71
-333.75
-331.33
-310.54
-278.52
-242.57
-207.50
-174.59
-142.13
-107.00
-66.49
-19.68
31.65
83.16
128.61
161.68
177.84
175.86
158.28
130.29
98.32
68.75
47.03
36.99
40.12
54.90
76.84
99.71
117.14
124.25
118.49
99.87
70.97
36.85
4.52
-18.54
-26.95
-19.89
-1.74
19.68
36.78
45.69
47.30
45.50
44.05
44.34
45.07
43.91
38.97
28.97
12.36
-13.22
-50.16
-98.51
-154.08
-208.34
-250.83
-273.24
-272.74
-252.67
-220.41
-183.72
-147.46
-112.42
-76.35
-36.23
9.33
58.93
108.45
152.19
184.58
201.74
202.57
189.03
165.58
137.56
109.58
84.24
61.86
41.45
22.10
4.19
-10.32
-18.86
-19.61
-12.63
-0.17
14.13
26.68
35.37
40.12
42.64
45.08
48.68
53.30
57.82
61.09
62.74
63.27
63.14
62.24
59.24
52.43
41.19
27.08
13.51
3.87
-0.78
-3.42
-10.21
-28.35
-62.49
-111.85
-169.72
-225.51
-268.65
-292.23
-295.27
-281.37
-256.66
-226.39
-192.70
-154.59
-109.56
-56.26
4.58
65.52
118.47
155.50
172.23
169.80
154.49
135.46
121.15
115.88
118.46
123.86
125.32
117.52
98.95
72.55
44.62
22.30
10.54
9.23
12.83
11.58
-4.01
-38.10
-86.46
-137.28
-175.90
-191.13
-179.79
-146.99
-102.82
-57.33
-16.83
16.53
42.90
62.09
72.52
71.99
59.36
35.79
4.83
-28.77
-60.24
-85.28
-100.30
-102.80
-92.16
-70.42
-42.39
-14.30
8.48
23.67
32.84
40.10
49.47
62.63
78.24
93.03
103.68
108.25
106.13
97.37
82.09
60.78
35.30
9.28
-12.16
-24.06
-23.63
-11.67
7.33
26.92
41.15
46.73
43.87
35.23
24.08
12.59
1.43
-9.27
-18.64
-24.49
-24.29
-17.08
-4.90
7.39
14.45
13.40
5.59
-4.17
-10.58
-11.04
-7.14
-3.49
-5.13
-14.89
-32.44
-54.90
-78.17
-98.06
-110.88
-113.73
-105.35
-86.80
-61.59
-34.63
-10.02
10.84
29.70
49.76
73.12
98.94
123.76
143.52
155.92
161.04
160.16
153.50
138.84
112.69
73.09
22.25
-32.82
-82.59
-118.87
-137.74
-140.31
-130.91
-114.66
-95.87
-77.87
-63.51
-55.31
-54.38
-59.01
-64.18
-62.94
-49.49
-22.29
14.81
54.07
87.24
108.86
117.73
116.20
107.83
95.48
80.39
62.91
43.96
25.40
9.22
-4.44
-18.69
-39.02
-70.32
-113.02
-161.06
-203.24
-227.74
-227.33
-202.53
-160.67
-111.74
-63.47
-18.73
23.65
65.83
107.95
147.16
178.85
198.91
205.10
197.08
175.66
142.28
99.45
51.21
3.29
-37.89
-66.92
-81.07
-80.87
-69.70
-52.43
-33.82
-17.35
-4.50
5.18
13.39
21.83
31.09
40.28
47.56
51.58
52.57
52.68
54.79
60.51
68.66
75.29
75.44
65.39
44.77
16.81
-13.01
-39.16
-58.40
-70.91
-79.93
-89.94
-104.05
-121.78
-138.45
-146.78
-140.22
-116.61
-79.91
-38.93
-3.37
20.75
33.60
40.46
47.72
58.64
71.66
82.27
86.78
85.03
80.08
75.12
70.31
62.07
45.74
19.60
-12.51
-42.35
-61.48
-66.02
-58.85
-47.94
-41.79
-44.90
-55.83
-68.63
-76.45
-74.96
-63.61
-44.68
-21.25
4.27
30.20
54.69
75.06
88.13
91.56
85.38
72.48
57.60
45.31
38.17
36.01
36.51
36.65
33.97
27.27
16.55
2.56
-13.59
-30.91
-48.58
-65.59
-80.41
-90.75
-93.99
-88.36
-73.98
-53.20
-29.63
-6.56
14.25
32.60
48.57
61.29
68.72
69.03
62.56
52.67
44.58
42.51
46.96
53.98
57.17
51.23
34.92
11.82
-11.62
-29.17
-37.65
-37.72
-32.87
-27.28
-24.04
-24.36
-27.92
-33.61
-39.87
-44.67
-45.42
-39.40
-24.93
-2.71
23.62
48.26
65.34
71.19
65.78
52.42
36.13
21.53
11.35
6.06
4.46
4.75
5.21
4.64
2.41
-1.61
-7.06
-13.28
-19.53
-25.30
-30.45
-35.18
-39.74
-44.18
-48.32
-52.02
-55.43
-58.99
-62.93
-66.53
-67.72
-63.64
-52.07
-33.15
-9.89
12.89
30.97
42.87
50.35
56.75
64.20
71.77
75.66
71.65
58.12
37.77
16.73
1.73
-3.11
2.06
13.78
27.63
40.75
52.63
63.98
74.73
82.55
83.17
72.59
49.81
18.33
-14.64
-40.98
-55.28
-56.77
-49.20
-38.37
-29.12
-23.51
-20.76
-18.59
-14.84
-8.74
-0.85
7.35
14.14
18.01
17.65
11.75
-1.05
-21.64
-49.51
-81.56
-111.85
-132.76
-137.63
-123.97
-95.31
-60.44
-29.87
-11.10
-5.24
-7.10
-8.62
-3.59
9.16
25.92
41.16
51.17
56.03
58.68
62.02
66.57
69.83
67.85
57.96
40.42
18.27
-4.52
-25.08
-42.29
-55.87
-64.92
-67.31
-60.70
-44.39
-20.86
4.63
26.08
39.42
44.12
42.72
38.85
35.16
32.43
30.17
28.01
26.52
27.03
30.56
36.81
44.16
50.31
53.11
51.38
44.84
34.02
20.09
4.73
-10.52
-25.11
-40.21
-58.15
-80.57
-106.05
-129.10
-141.79
-137.62
-115.39
-80.58
-43.00
-12.02
7.76
17.71
22.89
28.04
34.75
41.57
46.36
48.68
50.26
53.23
57.89
61.91
61.61
54.24
40.20
22.89
6.92
-4.16
-9.52
-10.73
-10.44
-10.71
-12.04
-13.60
-14.00
-12.19
-7.80
-1.05
7.64
17.87
29.15
40.67
51.13
59.10
63.47
64.11
62.13
59.49
58.13
59.12
62.20
65.69
67.32
65.01
57.75
45.88
30.75
13.44
-6.59
-31.93
-65.88
-109.86
-160.84
-210.69
-248.34
-264.02
-253.27
-218.61
-167.86
-110.49
-54.16
-3.32
39.92
74.12
97.66
109.56
110.88
105.23
97.58
92.05
90.13
90.60
91.03
89.60
86.21
82.02
78.02
73.63
66.27
52.01
27.30
-8.95
-53.64
-99.49
-136.82
-156.99
-155.88
-135.69
-103.83
-69.56
-39.96
-17.68
-1.40
11.76
23.71
34.29
42.30
47.17
50.11
53.51
59.26
67.31
75.24
79.65
77.70
68.77
54.65
38.54
22.96
7.68
-10.65
-36.88
-74.17
-120.82
-169.28
-208.39
-227.78
-222.15
-193.11
-147.56
-94.14
-40.00
10.49
54.73
90.40
114.81
126.10
124.89
115.03
102.34
92.00
86.26
83.90
81.63
76.32
66.99
54.86
41.88
28.88
14.87
-1.96
-22.08
-43.01
-59.37
-65.29
-57.54
-37.74
-12.14
11.18
25.95
30.35
27.10
21.41
17.97
18.84
23.25
28.95
33.87
37.21
39.34
40.98
42.56
43.57
43.03
40.14
34.85
28.11
21.13
14.01
4.61
-11.43
-38.83
-79.60
-130.49
-182.55
-223.70
-243.24
-236.03
-204.23
-155.68
-100.15
-45.75
2.65
42.75
73.19
92.64
100.39
97.69
88.41
78.01
71.42
70.75
74.65
79.45
81.14
77.52
68.72
56.51
42.79
28.42
13.13
-3.44
-20.52
-35.56
-44.72
-44.57
-33.72
-13.88
10.75
34.92
54.21
66.19
70.57
68.50
61.68
51.88
40.73
29.93
21.02
15.29
13.31
14.87
19.13
24.76
30.36
34.63
36.54
35.44
30.77
21.48
5.43
-20.39
-58.37
-107.98
-164.23
-217.83
-257.85
-275.75
-268.53
-239.31
-195.13
-143.51
-89.95
-37.75
10.54
51.57
81.29
96.81
98.50
90.75
80.17
72.65
70.65
72.58
74.56
72.75
65.58
53.92
39.98
25.60
11.42
-2.91
-17.46
-30.93
-40.61
-43.23
-36.84
-22.11
-2.45
17.27
32.83
42.36
46.75
48.56
50.34
53.20
56.54
58.86
58.97
56.86
53.62
50.85
49.68
50.15
51.19
50.97
47.86
40.97
30.26
15.86
-2.70
-26.46
-55.94
-89.35
-121.44
-144.30
-150.41
-136.40
-105.37
-66.08
-29.11
-2.23
12.58
18.65
21.34
24.37
28.04
30.25
29.25
25.81
23.26
25.43
33.76
45.89
56.34
59.28
51.56
34.16
11.65
-10.20
-27.11
-37.65
-42.91
-44.84
-44.64
-42.16
-36.70
-28.39
-18.96
-11.16
-7.25
-7.32
-9.04
-8.90
-4.23
5.07
16.50
26.38
31.95
32.78
30.62
28.19
27.55
29.26
32.49
35.68
37.26
35.99
31.19
22.69
11.07
-2.39
-16.08
-28.69
-39.60
-48.67
-55.70
-59.78
-59.46
-53.68
-42.78
-28.89
-14.95
-3.25
5.95
14.12
22.91
32.32
40.00
42.53
37.98
27.99
17.49
12.19
15.06
24.24
33.83
37.03
29.96
13.65
-6.68
-24.47
-34.99
-36.96
-32.18
-23.81
-14.69
-6.73
-1.31
0.02
-4.54
-15.88
-32.57
-49.95
-61.02
-59.12
-41.10
-9.49
28.06
61.88
84.58
94.09
93.94
90.59
89.53
92.33
96.24
96.17
87.78
69.74
44.21
15.62
-11.33
-33.36
-49.47
-60.64
-68.80
-75.37
-80.12
-81.30
-76.62
-65.08
-48.20
-29.81
-14.52
-5.98
-6.03
-14.97
-32.39
-57.27
-87.30
-117.76
-141.24
-149.45
-136.22
-100.66
-48.28
10.31
62.96
99.80
115.89
111.93
93.09
66.67
39.73
17.20
1.12
-8.95
-14.62
-17.25
-17.17
-14.13
-8.13
-0.12
8.01
14.46
18.41
20.52
22.23
24.70
27.93
30.96
32.66
32.81
32.50
33.54
37.27
43.36
49.50
52.19
48.06
35.24
14.16
-12.51
-40.34
-64.11
-79.07
-82.23
-73.23
-54.44
-30.09
-4.79
18.00
36.70
51.42
62.81
71.12
75.80
76.18
72.64
67.28
63.58
64.71
71.65
82.23
91.88
95.82
91.43
79.55
63.93
49.07
38.03
31.43
27.72
24.99
22.07
18.82
15.13
9.67
-0.66
-20.44
-53.79
-102.27
-163.10
-228.74
-288.36
-330.77
-348.27
-339.60
-310.53
-271.45
-233.17
-202.73
-181.40
-165.65
-149.97
-130.24
-105.05
-75.10
-41.32
-3.70
38.41
84.43
131.10
172.62
202.61
217.25
217.28
207.74
195.30
184.76
177.23
170.23
160.24
145.21
125.84
104.88
85.40
69.58
58.27
51.15
46.83
42.51
34.39
19.24
-3.58
-30.63
-54.97
-69.07
-68.58
-54.64
-33.42
-12.76
1.73
9.06
12.26
15.78
22.39
31.60
40.39
45.39
45.01
40.28
34.14
29.23
26.26
23.44
17.53
6.01
-11.56
-33.16
-55.42
-75.21
-90.63
-100.95
-105.81
-104.42
-95.66
-79.02
-55.52
-28.17
-1.36
20.47
34.19
38.94
36.07
28.58
19.96
13.19
10.17
11.42
16.39
24.37
34.45
46.03
58.78
72.14
85.03
95.27
99.22
92.23
70.26
32.01
-19.17
-74.91
-123.64
-154.08
-158.90
-137.32
-95.57
-44.66
2.72
35.59
47.01
35.16
3.55
-40.07
-85.70
-123.82
-148.58
-160.25
-165.37
-174.18
-196.12
-235.04
-287.13
-342.09
-387.30
-413.07
-415.66
-397.25
-363.27
-319.50
-270.63
-220.28
-171.80
-127.85
-88.89
-51.84
-9.37
48.18
129.43
238.62
372.91
522.27
670.95
800.61
894.19
939.37
930.53
869.03
761.88
619.82
455.75
283.68
117.94
-28.44
-145.82
-230.10
-283.35
-312.15
-324.22
-325.19
-317.14
-299.18
-269.67
-228.22
-177.03
-120.71
-65.17
-16.39
21.10
45.14
56.45
58.24
54.70
49.36
43.93
38.48
32.46
26.15
20.97
18.75
20.33
24.45
27.77
25.85
14.64
-7.87
-40.67
-79.25
-116.12
-142.24
-149.29
-132.40
-92.47
-36.72
23.11
74.42
107.83
119.70
112.03
89.89
58.44
21.15
-19.73
-61.30
-98.64
-125.31
-135.85
-128.96
-109.44
-86.78
-71.63
-71.56
-88.54
-119.17
-157.01
-195.71
-230.79
-260.05
-282.77
-298.85
-308.53
-312.36
-311.50
-307.56
-302.31
-297.13
-292.72
-289.06
-285.55
-281.30
-275.37
-266.97
-255.66
-241.48
-225.07
-207.38
-189.47
-172.17
-155.92
-140.63
-125.96
-111.49
-96.99
-82.40
-67.91
-53.87
-40.53
-28.13
-16.71
-6.23
3.47
12.57
21.29
29.82
38.36
47.02
55.83
64.73
73.59
82.29
90.79
99.29
108.19
117.96
129.06
141.62
155.36
169.57
183.45
196.53
209.18
222.82
239.48
260.83
287.01
316.04
344.21
367.19
381.32
384.46
376.03
356.59
327.46
290.79
249.79
208.69
172.06
143.47
124.24
113.09
106.91
102.54
98.49
95.49
95.53
99.99
108.10
116.67
121.61
120.19
112.70
102.40
93.60
88.98
87.71
86.00
79.54
66.71
50.03
34.97
26.71
26.98
33.28
40.80
45.73
47.57
48.93
53.12
61.35
71.58
79.71
82.10
77.74
68.52
57.74
47.86
39.41
31.32
22.17
11.46
-0.38
-12.89
-26.83
-44.28
-67.71
-98.22
-134.16
-170.70
-200.94
-217.93
-216.87
-196.93
-161.51
-117.58
-73.76
-38.54
-18.26
-15.68
-29.04
-52.01
-75.00
-87.44
-80.92
-52.26
-5.04
51.14
102.91
136.91
143.61
120.08
70.80
6.81
-57.20
-107.10
-133.27
-133.13
-110.68
-73.87
-31.26
10.46
46.95
75.36
93.32
99.10
92.65
76.70
56.66
38.56
26.49
20.76
18.29
14.91
7.94
-2.35
-13.14
-21.05
-24.13
-22.63
-18.82
-15.59
-15.16
-18.18
-23.90
-30.67
-36.59
-39.96
-39.37
-34.16
-24.69
-12.80
-1.47
6.26
8.83
7.00
3.42
1.13
1.80
5.01
8.73
10.80
10.32
7.98
5.29
3.44
2.51
1.65
-0.07
-2.76
-5.44
-6.61
-5.20
-1.28
3.82
8.16
10.06
8.86
5.15
0.45
-3.53
-5.73
-6.04
-5.19
-4.32
-4.42
-5.91
-8.62
-11.85
-14.61
-15.78
-14.25
-9.29
-0.87
9.98
21.31
30.71
36.23
37.30
35.06
31.86
30.11
30.93
33.47
35.21
33.30
26.11
14.22
0.28
-12.27
-20.77
-24.44
-24.30
-22.30
-19.98
-17.78
-15.08
-11.06
-5.54
0.69
6.18
9.72
11.01
10.84
10.66
11.88
15.21
20.59
27.49
35.10
42.56
48.88
52.80
53.16
49.42
42.21
33.48
25.81
21.21
19.98
20.37
19.28
13.98
3.46
-10.85
-25.86
-38.33
-46.32
-49.81
-50.17
-49.00
-47.11
-44.26
-39.65
-32.92
-24.76
-16.91
-11.32
-9.12
-10.04
-12.38
-13.92
-12.94
-9.05
-3.34
2.14
5.43
5.32
1.70
-4.80
-13.26
-22.58
-31.07
-36.24
-35.36
-26.80
-11.55
6.45
21.61
29.37
28.56
22.06
15.11
12.25
14.92
20.91
26.13
27.26
23.60
17.05
10.53
6.03
3.66
1.98
-0.80
-5.55
-11.60
-17.01
-19.44
-17.41
-11.05
-2.23
6.17
11.52
12.56
9.69
4.58
-0.99
-6.07
-10.49
-14.18
-16.32
-15.25
-9.59
0.35
11.78
20.34
22.20
16.38
5.44
-5.70
-12.42
-12.85
-8.67
-3.93
-2.59
-6.41
-14.21
-22.82
-28.88
-30.45
-27.57
-21.74
-15.02
-9.01
-4.46
-1.33
0.76
2.25
3.43
4.50
5.67
7.17
9.12
11.39
13.58
15.14
15.60
14.81
12.92
10.34
7.32
3.97
0.12
-4.53
-10.11
-16.42
-22.82
-28.18
-30.87
-29.07
-21.35
-7.47
10.83
29.73
44.22
49.92
45.05
31.55
14.54
0.30
-6.44
-4.48
3.74
13.68
20.97
23.25
20.61
14.70
7.50
0.41
-5.86
-10.81
-13.94
-14.56
-12.34
-7.65
-1.69
3.94
7.78
9.15
8.30
6.13
3.75
1.89
0.62
-0.63
-2.73
-6.26
-11.05
-16.02
-19.47
-19.78
-16.15
-9.09
-0.43
7.20
11.28
10.11
3.56
-6.87
-18.45
-28.03
-32.99
-31.96
-25.13
-14.17
-1.71
9.31
16.36
17.91
13.91
5.85
-3.70
-11.90
-16.68
-17.43
-15.11
-11.54
-8.55
-7.10
-7.04
-7.49
-7.51
-6.64
-5.04
-3.35
-2.25
-2.14
-2.97
-4.24
-5.26
-5.37
-4.24
-1.94
1.17
4.65
8.26
11.84
15.17
17.75
19.01
18.63
17.00
15.29
14.94
16.79
20.55
24.73
27.47
27.45
24.39
19.02
12.44
5.57
-0.92
-6.51
-10.56
-12.45
-11.90
-9.35
-5.84
-2.64
-0.61
0.10
-0.12
-0.78
-1.71
-3.05
-4.87
-6.59
-6.97
-4.58
1.27
9.77
18.59
24.67
25.62
20.82
11.77
1.32
-7.68
-13.64
-16.72
-18.25
-19.58
-21.02
-21.69
-20.24
-15.98
-9.76
-3.72
-0.32
-0.96
-5.17
-10.80
-15.16
-16.39
-14.34
-10.43
-6.63
-4.30
-3.55
-3.50
-3.07
-1.80
-0.12
1.12
1.25
0.28
-1.10
-1.99
-1.77
-0.41
1.64
3.75
5.37
6.20
6.18
5.49
4.56
4.10
4.87
7.35
11.39
16.04
19.78
21.07
19.05
13.90
6.92
0.05
-4.83
-6.57
-5.16
-1.70
2.09
4.57
4.82
2.97
-0.10
-3.19
-5.45
-6.70
-7.28
-7.77
-8.50
-9.36
-9.82
-9.27
-7.35
-4.15
-0.34
3.08
5.11
5.13
3.04
-0.69
-5.14
-9.15
-11.45
-10.97
-7.25
-0.85
6.63
13.01
16.51
16.57
14.12
10.96
8.59
7.28
6.07
3.64
-0.46
-5.34
-9.23
-10.77
-9.98
-8.23
-7.25
-7.80
-9.23
-9.98
-8.87
-6.02
-2.92
-1.35
-2.24
-5.06
-8.25
-10.27
-10.57
-9.78
-9.08
-9.35
-10.67
-12.47
-14.00
-14.65
-13.96
-11.38
-6.37
1.11
9.92
17.63
21.25
18.81
10.60
-0.37
-9.59
-13.13
-9.54
-0.35
10.92
20.74
27.05
29.64
29.36
27.05
22.90
16.80
9.03
0.82
-5.89
-9.32
-8.70
-4.75
0.74
5.81
9.08
10.09
9.13
6.87
3.98
1.01
-1.55
-3.23
-3.54
-2.14
0.89
4.83
8.41
10.15
9.12
5.34
-0.05
-5.45
-9.50
-11.68
-12.34
-12.12
-11.39
-9.96
-7.34
-3.31
1.75
6.84
10.78
12.67
12.24
9.81
6.15
2.32
-0.44
-0.92
1.68
7.25
14.55
21.58
26.36
27.82
26.14
22.51
18.28
14.29
10.58
6.69
2.25
-2.62
-7.15
-10.24
-11.01
-9.29
-5.79
-1.82
1.20
2.35
1.49
-0.90
-4.16
-8.08
-12.95
-19.12
-26.30
-33.24
-38.21
-39.97
-38.59
-35.31
-31.59
-27.99
-23.88
-18.26
-11.03
-3.68
1.45
2.77
0.74
-2.07
-2.42
1.60
9.42
18.46
25.63
29.06
28.76
26.19
23.16
20.88
19.57
18.59
17.07
14.28
10.07
4.86
-0.48
-5.15
-8.72
-11.42
-13.89
-16.67
-19.82
-22.82
-24.91
-25.50
-24.46
-21.93
-18.02
-12.66
-5.86
1.75
8.67
12.85
12.80
8.63
2.30
-3.14
-5.19
-3.23
1.17
5.26
6.55
4.04
-1.67
-8.93
-15.96
-21.44
-24.54
-24.80
-22.01
-16.36
-8.63
-0.11
7.82
14.13
18.37
20.53
20.77
19.29
16.58
13.45
10.95
9.90
10.43
11.84
13.00
12.93
11.25
8.29
4.91
2.12
0.72
1.16
3.34
6.57
9.81
11.97
12.51
11.71
10.58
10.22
11.14
12.86
14.21
14.05
12.07
9.05
6.43
5.45
6.44
8.60
10.55
10.96
9.11
4.99
-0.88
-7.65
-14.22
-19.34
-21.85
-21.12
-17.62
-12.96
-9.37
-8.63
-11.01
-14.98
-17.99
-18.01
-14.80
-10.25
-7.23
-7.79
-11.78
-16.76
-19.45
-17.71
-11.88
-4.57
0.86
2.32
0.05
-3.72
-6.26
-5.94
-2.93
1.17
4.38
5.41
4.14
1.46
-1.24
-2.61
-1.80
1.35
6.14
11.16
14.79
15.77
13.75
9.37
3.87
-1.50
-5.97
-9.26
-11.29
-11.84
-10.52
-7.13
-2.12
3.19
6.92
7.56
4.82
0.05
-4.45
-6.68
-6.27
-4.85
-5.05
-8.58
-14.61
-19.63
-19.34
-11.54
1.86
15.18
21.93
18.54
6.76
-7.08
-15.59
-14.47
-4.68
8.59
19.29
24.07
23.64
21.38
20.50
21.80
23.53
23.13
19.33
13.02
6.44
1.60
-0.99
-2.17
-3.18
-4.59
-6.00
-6.67
-6.33
-5.49
-5.09
-5.81
-7.63
-9.95
-12.05
-13.53
-14.43
-14.96
-15.34
-15.73
-16.41
-17.77
-20.06
-22.89
-25.04
-24.89
-21.26
-14.29
-5.63
2.21
7.18
8.72
7.94
6.85
7.02
8.66
10.67
11.44
10.02
6.65
2.56
-0.81
-2.53
-2.40
-0.64
2.47
6.75
11.89
17.11
21.24
23.03
21.79
17.79
12.22
6.66
2.51
0.51
0.67
2.43
5.01
7.61
9.55
10.39
9.99
8.52
6.43
4.25
2.46
1.24
0.53
0.18
0.00
-0.06
-0.03
0.08
0.12
-0.05
-0.58
-1.44
-2.46
-3.39
-4.00
-4.18
-3.89
-3.18
-2.09
-0.64
1.24
3.68
6.82
10.63
14.75
18.40
20.60
20.60
18.21
13.97
8.89
3.84
-0.81
-5.28
-9.90
-14.58
-18.55
-20.70
-20.26
-17.42
-13.27
-9.25
-6.29
-4.58
-3.68
-3.15
-2.98
-3.43
-4.67
-6.37
-7.73
-7.96
-6.88
-5.13
-3.86
-4.10
-6.18
-9.64
-13.59
-17.20
-19.99
-21.82
-22.68
-22.48
-21.13
-18.75
-15.85
-13.31
-12.11
-12.84
-15.45
-19.25
-23.23
-26.57
-28.94
-30.62
-32.22
-34.41
-37.44
-41.16
-45.03
-48.54
-51.69
-55.15
-60.13
-67.39
-76.52
-85.54
-91.80
-93.33
-90.08
-84.05
-78.07
-74.12
-72.47
-71.88
-70.94
-69.16
-66.75
-63.39
-56.97
-43.46
-18.73
18.64
65.49
114.51
157.09
186.95
202.62
207.29
206.80
206.25
207.70
209.64
208.17
199.12
179.88
150.36
112.82
71.10
29.50
-7.99
-38.38
-59.98
-72.45
-76.68
-74.44
-67.95
-59.43
-50.94
-44.21
-40.39
-39.94
-42.47
-46.72
-50.93
-53.44
-53.26
-50.51
-46.21
-41.71
-37.98
-35.05
-32.08
-27.91
-21.82
-14.05
-5.79
1.38
6.13
7.81
6.59
3.03
-2.13
-8.31
-15.09
-22.08
-28.82
-34.76
-39.23
-41.43
-40.50
-35.64
-26.51
-13.49
2.16
18.49
33.34
44.99
52.64
56.52
57.54
56.84
55.29
53.35
51.13
48.63
45.90
43.01
39.88
36.16
31.17
24.28
15.34
5.03
-5.07
-13.08
-17.57
-18.31
-16.36
-13.61
-11.85
-11.92
-13.45
-15.06
-15.18
-12.79
-7.92
-1.57
4.71
9.41
11.52
10.88
8.11
4.44
1.45
0.56
2.61
7.55
14.36
21.39
26.88
29.55
29.05
25.91
21.27
16.31
11.93
8.49
5.96
4.11
2.70
1.57
0.56
-0.49
-1.73
-3.19
-4.72
-5.87
-6.13
-5.05
-2.57
0.93
4.70
7.92
9.94
10.53
9.91
8.61
7.28
6.48
6.48
7.22
8.34
9.24
9.40
8.49
6.54
3.99
1.47
-0.36
-1.05
-0.50
1.08
3.21
5.31
6.77
7.11
6.08
3.82
0.81
-2.24
-4.65
-5.99
-6.28
-5.85
-5.19
-4.68
-4.50
-4.55
-4.65
-4.64
-4.49
-4.24
-3.99
-3.81
-3.70
-3.69
-3.77
-3.94
-4.15
-4.34
-4.38
-4.21
-3.86
-3.50
-3.41
-3.80
-4.73
-5.97
-7.09
-7.60
-7.20
-5.87
-3.92
-1.75
0.23
1.73
2.61
2.86
2.50
1.66
0.53
-0.60
-1.43
-1.71
-1.43
-0.73
0.10
0.79
1.15
1.15
0.84
0.35
-0.20
-0.68
-0.98
-1.03
-0.83
-0.48
-0.16
-0.04
-0.19
-0.53
-0.87
-0.99
-0.79
-0.31
0.26
0.72
0.91
0.84
0.58
0.28
0.01
-0.20
-0.37
-0.54
-0.70
-0.83
-0.90
-0.94
-0.95
-0.94
-0.90
-0.78
-0.55
-0.24
0.07
0.27
0.25
0.01
-0.39
-0.79
-1.06
-1.12
-1.02
-0.89
-0.88
-1.06
-1.38
-1.69
-1.81
-1.60
-1.09
-0.42
0.23
0.66
0.83
0.78
0.63
0.49
0.39
0.28
0.12
-0.15
-0.51
-0.85
-1.07
-1.08
-0.86
-0.46
0.02
0.49
0.82
0.97
0.91
0.76
0.66
0.76
1.10
1.56
1.93
2.02
1.76
1.25
0.71
0.30
0.09
0.03
-0.00
-0.06
-0.13
-0.16
-0.10
0.00
0.09
0.09
-0.02
-0.18
-0.32
-0.36
-0.26
0.02
0.41
0.82
1.14
1.26
1.14
0.80
0.35
-0.11
-0.47
-0.69
-0.75
-0.68
-0.49
-0.24
0.04
0.28
0.45
0.55
0.61
0.68
0.78
0.85
0.82
0.66
0.37
0.00
-0.35
-0.62
-0.81
-0.92
-0.94
-0.86
-0.68
-0.42
-0.18
-0.03
-0.00
-0.03
0.01
0.16
0.38
0.53
0.46
0.12
-0.35
-0.78
-0.96
-0.85
-0.54
-0.21
-0.04
-0.10
-0.36
-0.70
-1.01
-1.17
-1.15
-0.94
-0.58
-0.10
0.42
0.92
1.32
1.53
1.52
1.34
1.06
0.80
0.65
0.64
0.69
0.72
0.67
0.55
0.41
0.34
0.37
0.47
0.55
0.52
0.29
-0.10
-0.60
-1.11
-1.59
-1.97
-2.26
-2.42
-2.45
-2.30
-1.98
-1.52
-0.98
-0.47
-0.12
-0.02
-0.19
-0.59
-1.09
-1.49
-1.65
-1.51
-1.14
-0.72
-0.42
-0.31
-0.35
-0.40
-0.35
-0.16
0.08
0.26
0.29
0.14
-0.15
-0.47
-0.72
-0.80
-0.68
-0.39
-0.08
0.05
-0.18
-0.84
-1.82
-2.88
-3.74
-4.21
-4.24
-3.91
-3.40
-2.87
-2.46
-2.24
-2.21
-2.32
-2.51
-2.72
-2.89
-3.02
-3.09
-3.10
-3.04
-2.90
-2.67
-2.33
-1.87
-1.20
-0.26
0.95
2.33
3.69
4.82
5.59
5.95
5.91
5.46
4.51
3.00
1.03
-1.03
-2.65
-3.32
-2.83
-1.44
0.26
1.61
2.19
2.00
1.34
0.64
0.15
-0.12
-0.36
-0.72
-1.18
-1.51
-1.35
-0.48
1.12
3.24
5.53
7.63
9.28
10.29
10.55
10.00
8.69
6.80
4.67
2.69
1.20
0.34
-0.01
-0.14
-0.32
-0.64
-0.98
-1.05
-0.65
0.21
1.30
2.29
2.92
3.16
3.18
3.26
3.57
4.11
4.71
5.14
5.22
4.85
4.00
2.67
0.89
-1.19
-3.28
-4.98
-5.86
-5.73
-4.67
-3.12
-1.65
-0.73
-0.49
-0.68
-0.83
-0.51
0.40
1.68
2.91
3.68
3.81
3.44
2.86
2.46
2.43
2.83
3.50
4.19
4.60
4.44
3.60
2.21
0.65
-0.58
-1.04
-0.56
0.68
2.27
3.73
4.72
5.10
4.87
4.06
2.70
0.92
-1.05
-2.82
-3.97
-4.26
-3.84
-3.18
-2.88
-3.37
-4.69
-6.47
-8.14
-9.20
-9.46
-9.09
-8.45
-7.91
-7.72
-7.93
-8.45
-9.07
-9.57
-9.69
-9.29
-8.31
-6.86
-5.15
-3.41
-1.82
-0.50
0.50
1.16
1.45
1.38
0.97
0.35
-0.35
-0.99
-1.48
-1.79
-1.95
-2.01
-2.00
-1.91
-1.70
-1.29
-0.60
0.37
1.56
2.76
3.72
4.25
4.28
3.93
3.39
2.88
2.45
2.07
1.62
1.04
0.40
-0.14
-0.44
-0.42
-0.14
0.22
0.53
0.71
0.79
0.86
0.95
1.07
1.18
1.26
1.34
1.48
1.72
2.03
2.31
2.41
2.23
1.80
1.23
0.70
0.36
0.27
0.38
0.60
0.82
0.98
1.08
1.11
1.08
0.95
0.69
0.29
-0.24
-0.79
-1.26
-1.55
-1.62
-1.45
-1.08
-0.59
-0.06
0.37
0.63
0.69
0.59
0.43
0.33
0.36
0.49
0.63
0.68
0.54
0.22
-0.19
-0.59
-0.87
-1.02
-1.05
-1.03
-1.00
-0.96
-0.89
-0.79
-0.67
-0.64
-0.74
-0.95
-1.16
-1.19
-0.90
-0.30
0.47
1.19
1.70
1.94
1.99
1.90
1.72
1.39
0.86
0.14
-0.62
-1.22
-1.45
-1.25
-0.74
-0.11
0.42
0.74
0.83
0.76
0.62
0.42
0.18
-0.12
-0.45
-0.76
-1.00
-1.15
-1.19
-1.11
-0.93
-0.65
-0.30
0.01
0.20
0.17
-0.04
-0.38
-0.74
-1.05
-1.27
-1.43
-1.51
-1.47
-1.30
-0.97
-0.57
-0.19
0.09
0.22
0.26
0.23
0.16
0.02
-0.23
-0.61
-1.07
-1.51
-1.79
-1.82
-1.58
-1.11
-0.54
-0.03
0.33
0.53
0.66
0.81
1.04
1.32
1.56
1.67
1.62
1.48
1.32
1.22
1.12
0.96
0.65
0.22
-0.20
-0.46
-0.46
-0.21
0.15
0.42
0.47
0.25
-0.13
-0.55
-0.90
-1.13
-1.28
-1.36
-1.38
-1.32
-1.13
-0.85
-0.52
-0.22
0.03
0.25
0.48
0.75
1.04
1.26
1.33
1.23
1.01
0.78
0.63
0.59
0.61
0.60
0.50
0.30
0.07
-0.08
-0.09
0.05
0.28
0.50
0.60
0.54
0.28
-0.15
-0.68
-1.25
-1.71
-1.94
-1.83
-1.40
-0.80
-0.24
0.12
0.22
0.13
0.00
-0.08
-0.10
-0.12
-0.21
-0.32
-0.32
-0.10
0.40
1.05
1.67
2.09
2.25
2.21
2.12
2.05
1.99
1.84
1.50
0.94
0.24
-0.44
-0.97
-1.26
-1.33
-1.27
-1.19
-1.17
-1.23
-1.32
-1.37
-1.31
-1.13
-0.86
-0.57
-0.32
-0.17
-0.14
-0.24
-0.45
-0.70
-0.92
-1.03
-0.98
-0.77
-0.48
-0.18
0.04
0.17
0.27
0.34
0.38
0.33
0.15
-0.15
-0.47
-0.68
-0.69
-0.46
-0.07
0.37
0.79
1.12
1.31
1.35
1.22
0.96
0.60
0.24
-0.05
-0.22
-0.27
-0.24
-0.16
-0.04
0.08
0.15
0.11
-0.12
-0.53
-1.05
-1.52
-1.80
-1.80
-1.56
-1.17
-0.77
-0.48
-0.36
-0.39
-0.55
-0.77
-1.03
-1.25
-1.37
-1.34
-1.11
-0.68
-0.13
0.43
0.88
1.13
1.15
1.01
0.83
0.73
0.75
0.91
1.15
1.42
1.65
1.83
1.91
1.87
1.66
1.27
0.70
0.03
-0.61
-1.10
-1.34
-1.35
-1.19
-0.97
-0.78
-0.64
-0.54
-0.44
-0.30
-0.15
-0.03
-0.03
-0.19
-0.51
-0.92
-1.29
-1.53
-1.60
-1.52
-1.33
-1.08
-0.75
-0.35
0.11
0.54
0.87
1.03
1.03
0.94
0.85
0.78
0.75
0.71
0.67
0.63
0.60
0.58
0.57
0.53
0.50
0.49
0.53
0.59
0.61
0.53
0.34
0.10
-0.09
-0.12
0.05
0.38
0.74
1.02
1.16
1.14
1.02
0.81
0.52
0.11
-0.39
-0.92
-1.34
-1.55
-1.52
-1.33
-1.10
-0.95
-0.92
-1.00
-1.12
-1.21
-1.23
-1.17
-1.01
-0.71
-0.28
0.22
0.69
0.99
1.06
0.85
0.41
-0.12
-0.60
-0.89
-0.88
-0.57
-0.06
0.46
0.84
0.97
0.86
0.60
0.28
-0.02
-0.29
-0.54
-0.74
-0.86
-0.85
-0.70
-0.43
-0.13
0.09
0.17
0.09
-0.09
-0.29
-0.44
-0.46
-0.37
-0.20
-0.05
0.02
-0.02
-0.13
-0.24
-0.23
-0.07
0.22
0.53
0.76
0.80
0.67
0.46
0.29
0.26
0.39
0.57
0.70
0.68
0.53
0.32
0.14
-0.00
-0.15
-0.38
-0.70
-1.04
-1.26
-1.21
-0.87
-0.35
0.19
0.57
0.75
0.75
0.67
0.59
0.53
0.46
0.37
0.30
0.32
0.53
0.90
1.30
1.54
1.48
1.11
0.56
-0.00
-0.40
-0.57
-0.58
-0.49
-0.39
-0.28
-0.17
-0.04
0.05
0.06
-0.07
-0.34
-0.71
-1.09
-1.41
-1.61
-1.66
-1.59
-1.44
-1.31
-1.27
-1.35
-1.56
-1.82
-2.01
-2.02
-1.79
-1.36
-0.82
-0.29
0.13
0.42
0.59
0.70
0.77
0.82
0.84
0.85
0.86
0.92
1.04
1.17
1.25
1.22
1.09
0.94
0.89
1.00
1.25
1.55
1.75
1.74
1.49
1.06
0.56
0.08
-0.35
-0.72
-1.03
-1.29
-1.47
-1.54
-1.49
-1.36
-1.19
-1.00
-0.78
-0.52
-0.21
0.11
0.38
0.50
0.43
0.20
-0.13
-0.44
-0.64
-0.70
-0.64
-0.52
-0.38
-0.26
-0.19
-0.16
-0.20
-0.33
-0.52
-0.78
-1.07
-1.33
-1.51
-1.58
-1.54
-1.39
-1.14
-0.78
-0.32
0.25
0.86
1.37
1.67
1.70
1.52
1.25
1.04
0.96
0.98
1.00
0.92
0.70
0.39
0.02
-0.35
-0.72
-1.04
-1.23
-1.19
-0.89
-0.39
0.12
0.44
0.48
0.30
0.10
0.07
0.27
0.58
0.78
0.66
0.17
-0.60
-1.43
-2.11
-2.51
-2.61
-2.54
-2.46
-2.55
-2.92
-3.59
-4.46
-5.36
-6.11
-6.60
-6.83
-6.88
-6.89
-7.00
-7.29
-7.80
-8.49
-9.27
-9.99
-10.55
-10.94
-11.31
-11.91
-12.94
-14.46
-16.33
-18.31
-20.22
-22.05
-24.00
-26.45
-29.69
-33.81
-38.63
-43.76
-48.80
-53.42
-57.53
-61.30
-65.30
-70.17
-76.40
-84.05
-92.67
-101.44
-109.34
-115.71
-120.54
-124.91
-130.25
-137.78
-147.71
-158.89
-168.87
-174.11
-170.96
-156.62
-130.57
-94.59
-52.58
-9.32
30.77
65.14
94.23
121.05
149.97
184.45
226.32
275.49
331.04
391.90
455.82
520.44
582.40
640.44
691.20
730.50
751.90
750.15
721.41
663.42
576.58
464.63
335.32
199.24
68.35
-46.92
-139.73
-207.81
-252.55
-276.72
-283.26
-275.11
-256.48
-232.87
-210.57
-194.65
-187.75
-189.29
-195.83
-202.73
-205.87
-203.16
-194.79
-183.11
-171.34
-162.40
-157.60
-155.94
-154.60
-150.38
-141.57
-128.93
-115.27
-103.79
-96.38
-92.69
-90.44
-86.92
-80.21
-69.73
-55.96
-39.82
-22.19
-4.24
12.32
25.62
34.50
39.60
43.21
47.87
54.36
60.31
61.13
52.72
34.60
11.00
-11.01
-25.34
-30.13
-28.33
-25.19
-24.76
-27.60
-31.34
-33.26
-32.77
-31.94
-33.90
-40.23
-49.61
-58.42
-62.85
-61.38
-55.46
-48.65
-44.43
-44.36
-47.54
-51.42
-53.27
-51.68
-46.89
-40.27
-33.30
-26.67
-20.17
-13.17
-5.42
2.51
9.22
12.95
12.30
6.73
-3.33
-16.54
-31.19
-45.35
-57.20
-65.30
-68.70
-67.09
-60.68
-50.17
-36.59
-21.29
-5.95
7.38
16.49
19.49
15.50
5.38
-8.18
-21.24
-30.00
-32.30
-28.40
-20.81
-12.83
-6.97
-3.97
-2.70
-1.24
1.65
5.61
8.65
8.31
3.35
-5.14
-13.75
-18.08
-15.07
-4.86
8.71
19.88
23.98
20.16
11.91
5.04
3.92
8.74
15.40
18.41
14.70
5.81
-3.07
-6.65
-3.09
4.87
11.84
13.47
9.19
2.27
-2.78
-3.38
-0.52
2.13
0.96
-5.18
-14.28
-22.60
-27.07
-26.91
-23.79
-20.44
-18.85
-19.09
-19.33
-17.02
-10.43
0.29
12.91
24.15
31.25
33.30
31.51
28.33
25.81
24.48
23.24
20.42
15.17
8.37
2.40
-0.20
1.87
7.95
15.76
22.58
26.44
26.80
24.39
20.55
16.54
13.07
10.20
7.61
4.94
2.18
-0.14
-1.27
-0.66
1.65
4.86
7.66
8.82
7.67
4.30
-0.58
-6.00
-11.09
-15.24
-18.03
-19.16
-18.47
-16.15
-12.93
-10.13
-9.35
-11.84
-17.83
-26.18
-34.57
-40.38
-41.74
-38.51
-32.47
-26.73
-24.42
-27.33
-35.05
-44.94
-53.12
-55.81
-50.79
-38.09
-20.04
-0.35
17.03
29.04
34.19
32.81
26.65
18.30
10.50
5.54
4.90
9.12
17.82
29.93
43.83
57.69
69.71
78.37
82.66
82.29
77.76
70.39
62.05
54.68
49.70
47.56
47.57
48.22
47.83
45.35
40.77
35.09
29.73
25.81
23.75
23.29
23.83
24.73
25.35
24.79
21.82
15.24
4.64
-8.85
-22.42
-32.44
-36.06
-32.73
-24.69
-16.07
-10.92
-11.34
-16.53
-23.50
-28.76
-30.27
-28.39
-25.43
-24.22
-26.41
-31.68
-38.07
-43.12
-45.28
-44.59
-42.45
-40.72
-40.73
-42.68
-45.78
-48.63
-49.81
-48.23
-43.33
-35.12
-24.34
-12.46
-1.43
6.81
10.99
10.96
7.73
2.97
-1.72
-5.38
-7.79
-9.17
-9.69
-9.21
-7.37
-3.99
0.50
5.06
8.35
9.36
7.90
4.75
1.27
-1.21
-1.96
-1.08
0.72
2.60
3.99
4.73
4.90
4.60
3.80
2.47
0.73
-1.03
-2.28
-2.68
-2.22
-1.29
-0.35
0.37
1.07
2.15
3.93
6.33
8.97
11.32
13.05
14.08
14.45
14.16
13.08
11.13
8.56
6.05
4.44
4.33
5.53
7.09
7.66
6.19
2.40
-3.14
-9.43
-15.44
-20.42
-23.82
-25.16
-24.04
-20.42
-14.92
-8.81
-3.61
-0.33
1.09
1.74
3.09
6.05
10.32
14.47
16.62
15.45
10.83
3.91
-3.48
-9.62
-13.49
-14.97
-14.53
-12.80
-10.10
-6.46
-1.86
3.51
9.02
13.67
16.38
16.40
13.64
8.70
2.73
-2.92
-7.11
-9.10
-8.60
-5.79
-1.25
4.09
9.04
12.40
13.39
11.92
8.72
4.99
1.91
0.03
-0.83
-1.36
-2.11
-3.09
-3.69
-3.21
-1.48
0.67
1.55
-0.71
-7.24
-17.60
-29.68
-40.33
-46.51
-46.44
-40.24
-29.64
-17.17
-5.14
5.01
12.60
17.40
19.19
17.75
13.14
6.12
-1.78
-8.65
-12.79
-13.36
-10.72
-6.21
-1.62
1.65
3.26
4.16
6.21
11.23
19.97
31.53
43.46
52.57
56.03
52.31
41.51
25.18
5.89
-13.36
-29.51
-39.85
-42.40
-36.32
-22.33
-2.69
19.03
38.54
51.65
55.17
47.79
30.67
7.46
-16.51
-35.67
-45.95
-46.02
-37.42
-23.61
-8.43
5.28
16.17
23.94
28.50
29.51
26.48
19.48
9.73
-0.34
-7.84
-10.39
-7.04
1.50
12.96
24.05
31.13
31.15
22.71
6.85
-12.86
-31.38
-44.06
-48.56
-45.71
-38.86
-32.18
-28.69
-29.22
-32.71
-37.20
-40.97
-43.09
-43.27
-41.42
-37.54
-31.74
-24.63
-17.33
-11.25
-7.64
-7.09
-9.24
-12.84
-15.96
-16.54
-13.00
-4.88
6.75
19.49
30.37
37.02
38.55
35.89
31.08
26.25
22.56
19.97
17.70
15.08
12.20
9.84
8.85
9.43
10.99
12.43
12.99
12.68
12.17
12.11
12.52
12.62
11.42
8.57
4.94
2.39
2.77
6.88
13.87
21.65
27.84
30.83
30.25
26.71
21.21
14.61
7.58
0.84
-4.73
-8.24
-9.32
-8.46
-6.90
-5.92
-6.14
-7.11
-7.70
-6.92
-4.59
-1.49
1.20
2.55
2.37
1.11
-0.61
-2.51
-4.76
-7.69
-11.39
-15.43
-18.98
-21.19
-21.51
-19.93
-16.91
-13.08
-9.09
-5.41
-2.36
-0.13
1.22
1.72
1.47
0.60
-0.72
-2.33
-4.09
-5.85
-7.46
-8.76
-9.60
-9.98
-10.05
-10.05
-10.25
-10.74
-11.35
-11.76
-11.63
-10.79
-9.38
-7.79
-6.52
-5.92
-6.03
-6.63
-7.43
-8.22
-9.10
-10.31
-11.99
-13.95
-15.64
-16.31
-15.43
-12.98
-9.49
-5.87
-2.98
-1.40
-1.28
-2.45
-4.52
-6.97
-9.11
-10.18
-9.51
-6.86
-2.52
2.70
7.84
12.13
15.22
17.09
17.89
17.78
17.01
16.04
15.56
16.30
18.65
22.34
26.44
29.75
31.40
31.29
30.03
28.58
27.66
27.44
27.59
27.59
27.11
26.09
24.64
22.84
20.64
18.06
15.35
13.04
11.72
11.68
12.59
13.58
13.60
11.92
8.40
3.48
-2.13
-7.81
-13.13
-17.83
-21.62
-24.14
-25.04
-24.20
-21.89
-18.76
-15.67
-13.43
-12.52
-12.99
-14.44
-16.20
-17.58
-18.11
-17.73
-16.78
-15.85
-15.47
-15.82
-16.69
-17.59
-17.96
-17.48
-16.16
-14.33
-12.50
-11.17
-10.69
-11.18
-12.46
-14.13
-15.67
-16.62
-16.74
-16.12
-15.04
-13.75
-12.34
-10.66
-8.45
-5.59
-2.28
0.95
3.53
5.17
6.02
6.61
7.49
8.85
10.33
11.27
11.07
9.63
7.45
5.47
4.56
5.06
6.69
8.64
10.05
10.39
9.70
8.43
7.25
6.67
6.85
7.59
8.43
8.88
8.64
7.71
6.34
4.96
3.98
3.70
4.22
5.44
7.12
8.94
10.52
11.50
11.64
10.87
9.41
7.73
6.52
6.48
8.03
11.12
15.18
19.16
21.97
22.91
21.89
19.56
16.92
14.87
13.73
13.15
12.35
10.65
7.85
4.38
1.04
-1.50
-3.03
-3.85
-4.57
-5.68
-7.24
-8.77
-9.51
-8.74
-6.23
-2.45
1.53
4.42
5.24
3.75
0.60
-3.04
-6.02
-7.72
-8.32
-8.51
-9.06
-10.31
-12.08
-13.77
-14.76
-14.67
-13.50
-11.53
-9.17
-6.80
-4.66
-2.89
-1.50
-0.48
0.15
0.32
-0.11
-1.20
-2.87
-4.90
-6.90
-8.48
-9.35
-9.38
-8.64
-7.30
-5.61
-3.86
-2.31
-1.23
-0.79
-1.08
-2.04
-3.44
-4.91
-6.02
-6.42
-6.04
-5.14
-4.23
-3.84
-4.24
-5.32
-6.65
-7.70
-8.12
-7.73
-6.47
-4.39
-1.63
1.40
4.05
5.58
5.51
3.97
1.63
-0.67
-2.33
-3.26
-3.71
-3.86
-3.52
-2.28
0.07
3.12
5.76
6.83
5.73
2.95
-0.18
-2.23
-2.43
-1.05
0.90
2.34
2.75
2.37
1.89
1.94
2.71
3.91
5.07
5.84
6.17
6.21
6.12
5.92
5.53
4.87
3.96
2.93
1.97
1.23
0.79
0.64
0.73
0.96
1.24
1.47
1.64
1.81
2.10
2.53
3.01
3.30
3.16
2.45
1.26
-0.09
-1.26
-1.95
-2.05
-1.65
-0.91
-0.04
0.82
1.52
2.00
2.20
2.12
1.81
1.35
0.80
0.25
-0.27
-0.71
-1.02
-1.17
-1.14
-0.91
-0.48
0.12
0.80
1.36
1.55
1.13
0.03
-1.51
-3.02
-3.94
-3.89
-2.87
-1.28
0.29
1.41
1.89
1.92
1.78
1.68
1.69
1.66
1.39
0.75
-0.26
-1.50
-2.69
-3.53
-3.83
-3.57
-2.92
-2.16
-1.54
-1.16
-0.94
-0.67
-0.24
0.33
0.87
1.21
1.30
1.21
1.11
1.09
1.13
1.15
1.05
0.82
0.49
0.19
0.03
0.13
0.60
1.46
2.62
3.78
4.60
4.71
3.99
2.56
0.73
-1.10
-2.64
-3.69
-4.20
-4.20
-3.77
-3.10
-2.43
-2.00
-1.99
-2.39
-3.06
-3.74
-4.16
-4.13
-3.58
-2.56
-1.25
0.10
1.18
1.73
1.64
0.98
0.01
-0.94
-1.56
-1.72
-1.46
-1.03
-0.69
-0.63
-0.82
-1.04
-0.98
-0.42
0.68
2.07
3.29
3.90
3.69
2.79
1.64
0.77
0.58
1.07
1.83
2.33
2.13
1.24
0.09
-0.72
-0.76
-0.08
0.90
1.64
1.86
1.68
1.45
1.47
1.74
1.97
1.87
1.42
0.87
0.63
0.90
1.52
2.13
2.45
2.55
2.80
3.56
4.81
6.10
6.72
6.19
4.57
2.42
0.51
-0.65
-1.04
-1.05
-1.12
-1.47
-1.97
-2.26
-2.10
-1.53
-0.90
-0.67
-1.12
-2.23
-3.61
-4.83
-5.53
-5.64
-5.34
-4.92
-4.62
-4.53
-4.56
-4.50
-4.23
-3.66
-2.91
-2.16
-1.66
-1.57
-1.96
-2.73
-3.65
-4.47
-4.99
-5.15
-5.03
-4.80
-4.60
-4.44
-4.18
-3.59
-2.52
-1.00
0.70
2.22
3.28
3.81
3.93
3.84
3.67
3.45
3.18
2.95
2.91
3.09
3.29
3.08
2.19
0.81
-0.36
-0.46
0.85
3.00
4.78
5.09
3.82
1.99
1.07
1.89
4.01
5.96
6.33
4.86
2.57
1.02
1.10
2.40
3.71
4.12
3.94
4.62
7.58
13.02
19.42
24.27
25.39
22.12
15.50
7.59
0.38
-4.96
-8.17
-9.54
-9.49
-8.36
-6.51
-4.43
-2.74
-2.10
-2.98
-5.45
-9.04
-12.79
-15.51
-16.29
-15.00
-12.45
-10.06
-9.14
-10.12
-12.28
-14.22
-14.64
-13.08
-10.03
-6.50
-3.42
-1.18
0.18
0.76
0.54
-0.54
-2.28
-4.06
-5.03
-4.54
-2.45
0.74
4.24
7.34
9.65
11.03
11.43
10.79
9.11
6.60
3.78
1.28
-0.44
-1.31
-1.57
-1.55
-1.41
-1.11
-0.58
-0.03
0.08
-0.77
-2.69
-5.19
-7.27
-7.96
-6.74
-3.83
0.03
3.99
7.43
10.07
11.73
12.15
11.02
8.17
3.87
-1.01
-5.24
-7.57
-7.29
-4.45
0.09
4.94
8.67
10.30
9.64
7.28
4.35
1.96
0.80
0.88
1.70
2.60
3.14
3.20
2.96
2.66
2.41
2.21
1.92
1.43
0.62
-0.52
-1.96
-3.48
-4.74
-5.35
-5.00
-3.68
-1.71
0.34
1.82
2.27
1.54
-0.07
-2.02
-3.67
-4.52
-4.41
-3.52
-2.29
-1.22
-0.64
-0.59
-0.86
-1.14
-1.19
-0.97
-0.62
-0.39
-0.48
-0.95
-1.72
-2.58
-3.29
-3.63
-3.50
-2.90
-1.98
-0.94
0.00
0.62
0.74
0.27
-0.71
-1.93
-2.94
-3.24
-2.55
-0.97
0.91
2.29
2.47
1.26
-0.90
-3.13
-4.42
-4.14
-2.27
0.60
3.53
5.47
5.64
3.75
0.19
-4.02
-7.40
-8.60
-6.89
-2.58
3.01
8.11
11.26
11.81
10.15
7.25
4.17
1.54
-0.52
-2.10
-3.24
-3.78
-3.52
-2.53
-1.23
-0.25
-0.03
-0.51
-1.07
-0.98
0.17
2.05
3.79
4.46
3.62
1.56
-0.83
-2.60
-3.25
-2.88
-2.01
-1.17
-0.60
-0.17
0.37
1.15
2.00
2.55
2.49
1.76
0.66
-0.38
-0.95
-0.97
-0.63
-0.30
-0.23
-0.43
-0.66
-0.61
-0.11
0.73
1.64
2.29
2.40
1.87
0.72
-0.86
-2.55
-3.87
-4.39
-3.88
-2.49
-0.74
0.73
1.41
1.17
0.21
-1.08
-2.30
-3.18
-3.57
-3.37
-2.54
-1.14
0.58
2.25
3.47
3.98
3.74
2.90
1.63
0.14
-1.39
-2.70
-3.48
-3.41
-2.36
-0.48
1.69
3.46
4.23
3.76
2.35
0.65
-0.64
-1.04
-0.50
0.63
1.71
2.03
1.10
-1.08
-3.80
-5.73
-5.30
-1.49
5.48
13.92
21.23
24.86
23.47
17.51
8.87
0.05
-6.90
-11.07
-12.74
-13.08
-13.54
-15.23
-18.52
-22.76
-26.43
-27.74
-25.55
-20.06
-12.93
-6.52
-2.76
-2.24
-4.14
-7.02
-9.67
-11.62
-12.93
-13.65
-13.64
-12.82
-11.58
-10.86
-11.42
-12.89
-13.36
-10.14
-1.53
11.40
24.57
32.43
31.05
20.68
6.29
-4.62
-6.01
3.25
18.47
31.73
36.33
30.66
19.12
9.32
7.40
14.35
25.55
33.92
34.49
27.45
17.73
11.50
12.00
17.40
22.01
19.93
8.79
-8.87
-27.04
-39.64
-43.47
-39.22
-30.08
-19.31
-8.51
2.35
13.29
22.66
27.08
23.28
10.73
-6.78
-22.15
-28.25
-21.59
-4.27
17.13
34.89
43.88
43.32
36.03
25.93
15.66
5.72
-4.60
-15.62
-26.32
-34.65
-38.79
-38.25
-34.20
-28.71
-23.64
-19.85
-17.08
-14.44
-11.13
-6.79
-1.53
4.19
9.75
14.31
16.69
15.64
10.28
0.77
-11.32
-23.15
-31.59
-34.54
-31.80
-25.16
-17.84
-12.86
-12.06
-15.79
-23.28
-33.21
-43.67
-52.22
-56.05
-52.58
-40.88
-22.60
-2.01
15.51
25.48
25.76
16.90
1.36
-17.41
-35.77
-50.06
-57.05
-54.65
-42.95
-24.89
-5.31
10.93
21.02
25.25
26.37
27.24
29.07
30.39
28.24
20.73
8.90
-3.20
-10.63
-10.06
-1.68
10.78
22.20
28.51
28.64
24.42
19.28
16.22
16.52
19.46
23.24
26.13
27.33
27.23
26.90
27.50
29.51
32.10
33.48
31.87
26.60
18.74
10.83
5.33
3.36
4.18
5.67
5.75
3.56
-0.19
-3.82
-5.80
-5.72
-4.41
-3.30
-3.51
-5.20
-7.46
-8.97
-8.69
-6.37
-2.55
1.76
5.65
8.57
10.36
11.07
10.60
8.67
4.96
-0.45
-6.79
-12.63
-16.43
-17.16
-14.85
-10.63
-6.17
-2.90
-1.45
-1.43
-1.86
-1.78
-0.86
0.55
1.71
2.09
1.72
1.19
1.26
2.37
4.33
6.45
7.97
8.45
8.04
7.26
6.70
6.67
7.11
7.74
8.34
8.88
9.45
10.17
11.05
11.94
12.66
13.04
12.97
12.41
11.36
9.88
8.14
6.32
4.52
2.77
0.95
-1.05
-3.21
-5.33
-7.02
-7.94
-7.96
-7.22
-6.06
-4.81
-3.64
-2.54
-1.48
-0.58
-0.18
-0.58
-1.76
-3.22
-4.17
-3.95
-2.42
-0.16
1.91
3.00
2.95
2.30
1.89
2.40
3.90
5.87
7.54
8.28
7.93
6.77
5.27
3.91
2.94
2.42
2.32
2.60
3.29
4.38
5.72
6.97
7.55
6.91
4.73
1.14
-3.25
-7.53
-10.78
-12.43
-12.35
-10.92
-8.75
-6.42
-4.28
-2.48
-1.04
-0.09
0.17
-0.45
-1.90
-3.74
-5.31
-5.96
-5.42
-3.95
-2.22
-0.92
-0.40
-0.50
-0.71
-0.53
0.24
1.36
2.35
2.79
2.54
1.74
0.67
-0.42
-1.40
-2.29
-3.06
-3.67
-4.03
-4.08
-3.91
-3.62
-3.28
-2.87
-2.28
-1.44
-0.42
0.61
1.44
1.84
1.69
0.95
-0.36
-2.05
-3.85
-5.28
-5.91
-5.46
-4.05
-2.20
-0.65
-0.04
-0.58
-1.92
-3.35
-4.15
-3.95
-2.98
-1.94
-1.64
-2.57
-4.49
-6.64
-8.05
-8.09
-6.75
-4.62
-2.47
-0.86
0.10
0.63
1.04
1.46
1.74
1.70
1.25
0.57
0.03
-0.06
0.42
1.28
2.10
2.50
2.25
1.40
0.21
-0.95
-1.83
-2.36
-2.62
-2.76
-2.80
-2.62
-1.93
-0.59
1.32
3.39
5.14
6.21
6.60
6.64
6.68
6.87
7.02
6.78
5.93
4.62
3.29
2.49
2.50
3.18
4.09
4.74
4.82
4.36
3.55
2.60
1.62
0.67
-0.17
-0.78
-0.94
-0.56
0.38
1.68
3.12
4.40
5.29
5.54
5.04
3.81
2.08
0.29
-1.14
-1.94
-2.14
-2.03
-1.99
-2.20
-2.67
-3.18
-3.44
-3.33
-2.86
-2.17
-1.41
-0.64
0.08
0.61
0.73
0.13
-1.35
-3.60
-6.16
-8.35
-9.56
-9.51
-8.35
-6.55
-4.57
-2.72
-1.04
0.50
1.81
2.63
2.61
1.58
-0.33
-2.68
-4.89
-6.43
-7.08
-6.96
-6.48
-6.16
-6.38
-7.15
-8.12
-8.65
-8.17
-6.47
-3.82
-0.78
2.07
4.46
6.54
8.66
11.10
13.85
16.60
18.93
20.41
20.74
19.75
17.41
13.84
9.43
4.77
0.60
-2.56
-4.50
-5.42
-5.72
-5.76
-5.60
-5.10
-4.08
-2.55
-0.82
0.62
1.35
1.29
0.73
0.15
0.02
0.46
1.23
1.94
2.21
1.92
1.26
0.59
0.17
0.13
0.29
0.38
0.15
-0.50
-1.44
-2.43
-3.22
-3.66
-3.71
-3.49
-3.17
-2.88
-2.69
-2.62
-2.67
-2.85
-3.18
-3.61
-4.00
-4.13
-3.84
-3.09
-2.00
-0.82
0.20
0.88
1.15
1.02
0.56
-0.13
-0.91
-1.58
-1.94
-1.88
-1.49
-0.98
-0.58
-0.38
-0.31
-0.21
0.03
0.34
0.45
0.04
-1.04
-2.68
-4.46
-5.90
-6.65
-6.63
-6.08
-5.37
-4.87
-4.77
-5.09
-5.68
-6.30
-6.71
-6.76
-6.39
-5.68
-4.78
-3.85
-3.03
-2.38
-1.97
-1.93
-2.34
-3.18
-4.20
-4.94
-4.98
-4.13
-2.61
-0.89
0.59
1.74
2.78
4.11
5.90
7.97
9.83
11.01
11.35
11.03
10.44
9.83
9.24
8.56
7.72
6.83
6.24
6.26
7.11
8.67
10.61
12.50
13.93
14.59
14.36
13.31
11.67
9.87
8.47
7.91
8.33
9.41
10.45
10.65
9.44
6.80
3.22
-0.44
-3.35
-4.91
-4.94
-3.73
-1.91
-0.43
-0.31
-2.31
-6.56
-12.32
-18.13
-22.37
-23.98
-22.89
-19.86
-15.97
-11.95
-7.76
-2.94
2.95
9.76
16.64
22.40
25.94
26.63
24.29
19.04
11.29
1.80
-8.18
-17.10
-23.55
-26.82
-27.15
-25.60
-23.44
-21.65
-20.52
-19.77
-18.85
-17.28
-14.81
-11.44
-7.32
-2.77
1.72
5.68
8.78
11.07
12.89
14.65
16.49
18.11
18.97
18.64
17.12
14.91
12.70
11.01
9.84
8.79
7.31
5.14
2.47
-0.15
-2.21
-3.54
-4.42
-5.36
-6.65
-8.18
-9.43
-9.84
-9.13
-7.48
-5.38
-3.36
-1.70
-0.41
0.63
1.50
2.09
2.28
2.00
1.35
0.57
-0.20
-0.89
-1.59
-2.37
-3.25
-4.25
-5.41
-6.80
-8.37
-9.81
-10.60
-10.22
-8.41
-5.35
-1.66
1.98
5.02
7.20
8.46
8.76
8.09
6.52
4.34
2.07
0.25
-0.84
-1.23
-1.27
-1.29
-1.48
-1.78
-2.08
-2.28
-2.41
-2.50
-2.50
-2.27
-1.67
-0.71
0.38
1.28
1.72
1.62
1.09
0.33
-0.49
-1.26
-1.95
-2.52
-2.87
-2.93
-2.67
-2.19
-1.60
-1.06
-0.63
-0.26
0.10
0.50
0.90
1.21
1.42
1.59
1.82
2.18
2.62
2.99
3.13
3.00
2.67
2.31
2.09
2.07
2.17
2.26
2.24
2.03
1.61
1.03
0.37
-0.20
-0.49
-0.32
0.40
1.59
3.06
4.55
5.91
7.03
7.88
8.41
8.54
8.24
7.61
6.85
6.16
5.54
4.77
3.54
1.71
-0.52
-2.61
-3.93
-4.12
-3.20
-1.56
0.33
2.17
3.93
5.68
7.42
8.88
9.64
9.35
7.91
5.55
2.78
0.13
-2.10
-3.87
-5.36
-6.80
-8.23
-9.52
-10.45
-10.86
-10.80
-10.52
-10.29
-10.26
-10.38
-10.47
-10.34
-9.98
-9.48
-9.02
-8.66
-8.33
-7.90
-7.25
-6.39
-5.41
-4.49
-3.72
-3.17
-2.86
-2.78
-2.91
-3.18
-3.49
-3.69
-3.70
-3.51
-3.17
-2.79
-2.41
-2.04
-1.64
-1.17
-0.66
-0.15
0.33
0.76
1.18
1.63
2.11
2.60
3.00
3.21
3.13
2.72
2.11
1.52
1.25
1.44
2.01
2.66
3.05
3.02
2.74
2.59
2.89
3.67
4.62
5.26
5.31
4.89
4.41
4.27
4.61
5.16
5.48
5.29
4.70
4.09
3.92
4.40
5.38
6.50
7.41
7.96
8.21
8.27
8.17
7.86
7.29
6.56
5.87
5.46
5.37
5.41
5.24
4.58
3.42
2.02
0.71
-0.27
-0.88
-1.28
-1.64
-2.07
-2.60
-3.20
-3.84
-4.53
-5.22
-5.84
-6.29
-6.49
-6.42
-6.16
-5.84
-5.65
-5.78
-6.37
-7.54
-9.20
-11.11
-12.90
-14.18
-14.74
-14.53
-13.61
-12.06
-9.84
-6.98
-3.58
-0.01
3.24
5.66
6.96
7.23
6.83
6.25
5.82
5.63
5.55
5.36
4.95
4.35
3.77
3.40
3.31
3.35
3.24
2.75
1.89
0.89
0.12
-0.11
0.19
0.74
1.07
0.85
0.07
-0.95
-1.78
-2.10
-1.92
-1.52
-1.28
-1.43
-1.89
-2.40
-2.64
-2.50
-2.12
-1.76
-1.65
-1.76
-1.87
-1.77
-1.44
-1.07
-0.94
-1.16
-1.57
-1.84
-1.65
-0.97
-0.09
0.62
0.90
0.87
0.84
1.13
1.78
2.52
3.00
3.04
2.76
2.43
2.23
2.14
1.96
1.54
0.96
0.48
0.35
0.60
0.97
1.13
0.91
0.53
0.44
1.05
2.48
4.43
6.38
7.88
8.79
9.18
9.22
9.00
8.48
7.61
6.45
5.23
4.22
3.59
3.34
3.30
3.30
3.28
3.29
3.34
3.32
2.95
2.02
0.54
-1.18
-2.62
-3.28
-2.93
-1.68
0.06
1.66
2.57
2.43
1.21
-0.75
-2.82
-4.27
-4.62
-3.82
-2.43
-1.33
-1.45
-3.31
-6.88
-11.58
-16.46
-20.36
-22.09
-20.87
-16.53
-9.95
-2.83
2.85
5.70
5.66
3.98
2.47
2.39
3.71
5.29
5.83
4.98
3.60
2.97
3.66
4.81
4.70
2.25
-1.90
-5.32
-5.31
-0.95
6.02
11.95
13.49
9.79
2.89
-3.75
-7.61
-8.79
-9.73
-13.20
-20.04
-28.01
-32.71
-29.92
-18.04
0.64
20.77
36.28
42.98
40.18
30.56
18.54
8.12
1.38
-1.80
-3.00
-4.13
-6.49
-10.57
-16.17
-22.59
-28.70
-32.82
-33.19
-28.65
-19.28
-6.51
7.43
20.37
30.71
37.25
38.78
34.17
23.12
7.21
-9.88
-23.48
-29.93
-28.24
-20.44
-10.05
-0.01
8.60
16.17
22.87
27.30
26.77
19.20
5.29
-10.90
-23.71
-28.93
-26.14
-18.76
-11.59
-7.69
-6.63
-5.41
-1.08
6.61
14.63
18.55
15.60
6.46
-5.14
-14.93
-20.55
-22.31
-22.04
-20.90
-18.13
-11.46
1.03
18.94
38.81
54.92
61.25
53.61
31.31
-2.30
-40.46
-74.79
-97.80
-105.33
-97.74
-79.30
-56.01
-33.00
-12.90
3.89
17.84
28.80
35.66
37.21
33.52
26.53
19.57
15.68
16.23
20.28
25.27
28.43
28.19
24.84
20.29
16.96
16.54
19.31
24.08
28.84
31.67
31.60
28.89
24.82
20.95
18.30
16.80
15.45
13.04
9.11
4.45
0.92
0.28
3.04
7.87
12.29
14.08
12.68
9.65
7.60
8.50
12.15
16.05
16.64
11.20
-0.74
-16.96
-33.41
-45.79
-50.88
-47.62
-37.27
-23.07
-9.45
-0.77
0.12
-6.92
-19.18
-32.14
-41.84
-46.89
-49.14
-52.22
-58.89
-68.80
-78.29
-82.35
-77.64
-64.47
-46.70
-29.60
-16.90
-8.92
-2.98
4.57
15.69
29.39
42.22
50.65
53.67
53.86
56.09
64.37
78.62
93.57
101.25
95.52
75.97
48.42
21.71
2.78
-6.69
-10.00
-12.12
-15.89
-20.64
-23.60
-22.83
-18.92
-14.33
-11.01
-8.49
-4.28
3.98
16.20
29.29
38.82
41.57
37.35
28.71
19.08
11.13
5.85
2.90
1.75
2.23
3.87
4.97
2.37
-7.25
-24.70
-46.17
-63.74
-68.58
-55.85
-28.13
4.83
30.46
39.53
30.78
11.19
-8.03
-17.34
-13.29
0.80
17.80
30.93
36.58
34.51
26.00
11.87
-8.00
-33.67
-63.26
-92.15
-113.95
-122.98
-117.08
-98.91
-74.86
-52.11
-35.65
-26.49
-22.11
-18.67
-13.35
-5.66
2.88
10.26
15.42
18.72
21.42
24.65
28.51
32.13
34.30
34.29
32.41
29.79
27.68
26.80
26.93
27.16
26.47
24.47
21.70
19.47
19.09
21.02
24.62
28.40
30.70
30.56
28.06
24.05
19.67
15.91
13.60
13.45
16.02
21.31
28.35
34.97
38.42
36.60
29.04
17.04
2.83
-11.74
-25.99
-40.17
-54.44
-68.01
-79.07
-85.80
-87.59
-85.55
-81.98
-78.98
-77.29
-76.21
-74.31
-70.63
-65.68
-61.33
-59.89
-63.06
-70.94
-81.88
-93.17
-102.17
-107.24
-108.48
-107.38
-106.18
-106.93
-110.25
-114.99
-118.59
-117.74
-108.82
-88.62
-54.93
-7.25
52.50
120.93
194.33
270.00
346.58
424.79
506.37
592.45
682.01
770.79
852.69
921.04
969.95
995.04
993.93
965.95
912.18
838.99
751.69
655.30
554.40
453.10
354.43
260.34
171.58
87.97
8.88
-66.88
-139.82
-209.78
-275.65
-335.96
-389.41
-435.06
-472.35
-500.97
-521.14
-532.82
-535.66
-529.26
-513.57
-489.02
-456.60
-417.79
-374.37
-328.35
-281.40
-234.68
-188.90
-144.44
-101.48
-60.18
-20.77
16.42
50.73
81.42
107.77
129.07
144.66
154.03
156.95
153.49
144.10
129.60
111.09
89.86
67.29
44.76
23.46
4.31
-12.11
-25.51
-35.95
-43.70
-49.19
-52.94
-55.47
-57.28
-58.76
-60.18
-61.68
-63.33
-65.13
-67.02
-68.89
-70.64
-72.14
-73.29
-73.99
-74.15
-73.68
-72.52
-70.64
-68.07
-64.91
-61.32
-57.50
-53.69
-50.12
-46.98
-44.43
-42.51
-41.18
-40.26
-39.45
-38.42
-36.80
-34.32
-30.86
-26.45
-21.32
-15.70
-9.88
-4.13
1.26
6.01
9.84
12.54
13.96
14.11
13.20
11.59
9.73
8.09
6.98
6.49
6.48
6.60
6.47
5.77
4.37
2.28
-0.38
-3.59
-7.51
-12.54
-19.20
-27.82
-38.23
-49.74
-61.12
-71.11
-78.86
-84.32
-88.27
-91.98
-96.58
-102.48
-109.22
-115.64
-120.63
-123.92
-126.49
-130.37
-137.79
-150.21
-167.33
-187.12
-207.08
-225.60
-242.73
-259.12
-273.97
-284.02
-284.73
-273.39
-252.41
-229.57
-214.31
-211.96
-219.76
-228.03
-225.88
-207.67
-175.86
-138.21
-101.59
-67.56
-32.58
7.13
50.05
87.75
108.31
103.12
72.51
26.83
-18.05
-48.43
-58.84
-53.71
-43.59
-38.11
-40.22
-44.06
-38.27
-13.27
31.94
87.98
139.52
173.52
186.65
186.69
187.27
199.43
224.87
255.28
277.39
280.00
258.71
216.11
158.19
90.47
16.24
-62.12
-141.00
-214.62
-276.64
-322.85
-353.13
-371.05
-381.46
-387.85
-390.98
-389.20
-380.52
-364.03
-340.26
-310.41
-275.23
-234.56
-187.68
-134.13
-74.28
-9.22
59.34
128.88
195.07
251.19
288.81
300.41
282.71
239.01
178.62
113.31
52.67
0.63
-44.52
-87.43
-131.91
-178.45
-224.44
-266.28
-301.73
-330.41
-353.02
-369.42
-377.78
-375.17
-358.96
-328.68
-286.73
-237.90
-187.51
-139.89
-96.91
-58.04
-21.10
16.53
56.87
100.49
145.88
189.36
225.56
248.98
256.36
248.48
230.48
210.40
195.91
191.74
198.64
214.15
234.99
258.63
283.48
308.36
330.90
346.98
351.48
340.10
311.41
267.51
213.40
155.43
99.92
51.94
15.43
-6.80
-13.50
-6.19
9.98
26.60
34.44
27.06
3.79
-29.77
-64.15
-90.61
-105.20
-109.65
-109.35
-109.66
-112.82
-117.28
-119.08
-114.26
-100.59
-77.47
-45.03
-3.55
45.76
99.18
149.87
189.41
211.41
215.46
208.37
201.46
204.98
222.80
250.63
278.67
297.28
301.87
294.49
281.39
268.83
259.79
253.53
247.58
240.56
233.40
228.97
230.24
238.26
251.52
266.23
277.53
281.05
273.80
254.01
220.34
171.40
106.17
25.49
-66.43
-161.67
-250.23
-323.07
-375.17
-406.89
-422.98
-429.89
-433.01
-435.21
-437.08
-438.24
-438.38
-437.67
-436.03
-432.56
-425.64
-413.63
-395.85
-373.21
-347.89
-322.57
-299.10
-277.71
-256.98
-234.60
-208.48
-177.88
-143.82
-108.62
-74.95
-44.67
-18.11
6.00
30.04
56.71
88.25
125.71
168.20
212.53
253.55
285.61
304.75
310.70
307.54
302.25
301.78
309.75
324.77
341.24
352.14
352.47
341.15
320.84
295.65
268.89
241.96
214.79
187.31
160.44
135.80
114.59
96.48
79.72
62.22
43.18
23.91
7.18
-4.60
-11.09
-14.31
-17.08
-20.85
-24.43
-24.73
-19.50
-10.01
-1.75
-2.25
-16.73
-44.38
-77.56
-105.05
-117.63
-112.68
-95.10
-74.32
-59.13
-53.71
-57.21
-66.07
-76.82
-87.52
-96.93
-103.32
-104.02
-97.00
-82.87
-65.62
-50.98
-43.20
-42.68
-45.94
-48.15
-46.41
-41.33
-36.02
-33.38
-33.55
-33.52
-29.21
-18.44
-2.83
12.86
23.54
26.79
24.20
20.16
19.06
23.14
32.31
45.74
63.61
86.95
115.57
145.27
167.20
171.11
150.53
107.32
51.76
-1.84
-41.69
-63.02
-68.05
-62.57
-52.09
-40.65
-32.10
-31.74
-45.67
-77.67
-125.38
-179.15
-225.13
-250.81
-250.16
-225.11
-182.76
-130.84
-74.33
-15.27
44.95
103.10
153.68
190.66
210.80
215.35
209.75
200.93
194.03
190.35
187.06
179.16
161.85
132.47
91.08
40.30
-15.53
-71.11
-120.96
-160.68
-187.64
-201.87
-205.30
-200.20
-188.05
-169.26
-144.48
-115.83
-86.83
-60.90
-39.17
-19.34
3.27
33.06
71.43
115.98
161.93
204.75
242.35
275.25
305.05
332.33
355.52
371.42
376.83
370.26
352.54
326.22
294.61
260.34
224.65
187.08
146.22
99.85
45.46
-19.15
-94.83
-179.85
-269.01
-354.26
-426.76
-479.86
-511.42
-524.40
-525.10
-520.20
-514.11
-508.06
-500.94
-491.18
-478.07
-462.05
-443.85
-423.62
-400.62
-373.87
-343.06
-309.21
-274.36
-241.06
-211.17
-185.19
-162.32
-140.95
-119.56
-97.44
-75.03
-53.56
-34.35
-18.07
-4.39
7.93
20.42
34.23
49.64
66.11
82.63
98.31
112.86
126.70
140.86
156.75
175.82
199.20
226.99
257.67
287.90
313.13
328.93
332.54
323.95
305.84
282.52
258.23
235.85
216.41
199.62
184.72
171.15
158.73
147.42
136.95
126.80
116.42
105.62
94.89
85.33
78.34
74.94
75.12
77.61
80.23
80.79
78.10
72.48
65.65
59.85
56.79
56.79
58.62
60.03
58.50
52.29
41.03
25.98
9.72
-4.51
-13.56
-15.08
-8.14
6.66
27.14
49.80
70.38
84.49
88.42
80.12
59.90
30.62
-2.70
-33.95
-57.27
-68.27
-64.99
-48.30
-21.68
9.67
40.15
65.15
82.13
90.74
92.31
88.84
81.97
72.18
59.01
41.63
19.73
-5.85
-33.20
-60.07
-84.94
-107.64
-128.96
-149.55
-168.92
-185.19
-196.03
-199.86
-196.42
-186.11
-168.54
-142.07
-104.98
-58.06
-6.50
40.48
72.92
84.45
75.43
52.73
26.58
6.15
-3.60
-2.38
7.03
20.98
36.54
51.63
64.52
73.48
76.94
74.12
65.68
53.70
41.25
31.51
26.79
27.73
33.16
40.56
47.05
50.47
49.96
46.07
40.18
33.71
27.47
21.43
14.95
7.26
-1.95
-12.32
-22.78
-31.94
-38.60
-42.15
-42.77
-41.28
-38.75
-36.19
-34.21
-32.95
-32.20
-31.62
-30.93
-30.03
-28.87
-27.45
-25.66
-23.39
-20.69
-17.78
-15.13
-13.23
-12.32
-12.26
-12.64
-12.96
-12.94
-12.62
-12.21
-11.85
-11.43
-10.58
-8.88
-6.24
-2.92
0.44
3.16
4.81
5.37
5.11
4.47
3.85
3.52
3.63
4.17
4.87
5.15
4.25
1.68
-2.25
-6.07
-7.42
-4.09
4.75
17.67
31.14
40.88
43.57
38.39
27.23
13.70
1.48
-7.02
-10.95
-10.54
-6.22
1.55
11.96
23.31
33.16
39.44
41.67
41.54
41.95
45.15
50.87
56.05
56.34
48.48
32.24
10.64
-11.62
-30.29
-43.05
-49.73
-51.37
-49.18
-43.98
-36.33
-27.13
-17.85
-10.47
-6.94
-8.51
-15.37
-26.42
-39.53
-52.11
-61.76
-67.07
-67.89
-65.36
-61.35
-57.54
-55.03
-53.91
-53.33
-52.12
-49.34
-44.85
-39.16
-32.94
-26.41
-19.24
-11.00
-1.79
7.29
14.48
18.32
18.58
16.59
14.62
14.68
17.52
22.32
27.30
30.72
31.72
30.50
27.79
24.40
20.90
17.62
14.84
12.82
11.82
11.84
12.35
12.41
10.87
6.98
0.79
-6.63
-13.43
-17.69
-18.28
-15.34
-10.21
-4.85
-0.91
0.84
0.75
-0.17
-0.82
-0.65
0.21
1.18
1.70
1.64
1.43
1.76
3.07
5.22
7.55
9.19
9.56
8.66
6.94
4.92
2.96
1.10
-0.62
-2.04
-2.73
-2.32
-0.78
1.44
3.61
5.18
6.05
6.62
7.38
8.49
9.69
10.52
10.78
10.75
11.07
12.24
14.22
16.42
18.01
18.46
17.86
16.78
15.94
15.73
16.10
16.65
16.96
16.80
16.20
15.31
14.28
13.21
12.19
11.34
10.80
10.68
10.97
11.54
12.20
12.77
13.14
13.27
13.11
12.69
11.99
11.06
9.97
8.84
7.74
6.71
5.74
4.82
3.97
3.23
2.64
2.12
1.55
0.74
-0.44
-1.97
-3.68
-5.32
-6.66
-7.56
-8.03
-8.18
-8.17
-8.14
-8.23
-8.51
-9.04
-9.80
-10.71
-11.62
-12.39
-12.94
-13.27
-13.45
-13.57
-13.68
-13.78
-13.80
-13.66
-13.32
-12.74
-11.99
-11.16
-10.34
-9.57
-8.88
-8.20
-7.49
-6.75
-6.04
-5.50
-5.20
-5.11
-5.10
-4.92
-4.42
-3.56
-2.47
-1.37
-0.46
0.15
0.50
0.73
0.99
1.42
2.08
2.97
4.01
5.08
6.03
6.74
7.12
7.20
7.06
6.84
6.69
6.71
6.97
7.47
8.14
8.89
9.55
9.98
10.03
9.66
8.91
7.94
6.99
6.29
5.95
5.95
6.14
6.28
6.18
5.76
5.06
4.22
3.38
2.61
1.87
1.09
0.19
-0.82
-1.84
-2.72
-3.32
-3.60
-3.62
-3.50
-3.36
-3.27
-3.28
-3.40
-3.67
-4.17
-4.90
-5.81
-6.75
-7.52
-7.97
-8.09
-7.92
-7.57
-7.11
-6.57
-5.94
-5.27
-4.60
-4.03
-3.60
-3.31
-3.10
-2.86
-2.54
-2.13
-1.64
-1.09
-0.47
0.21
0.90
1.52
1.97
2.17
2.15
2.05
2.01
2.17
2.52
3.01
3.51
3.97
4.39
4.77
5.09
5.27
5.24
5.01
4.70
4.49
4.51
4.76
5.10
5.31
5.20
4.68
3.85
2.85
1.88
1.06
0.44
-0.01
-0.37
-0.70
-1.01
-1.28
-1.45
-1.52
-1.52
-1.56
-1.71
-2.02
-2.42
-2.80
-3.04
-3.10
-3.02
-2.89
-2.80
-2.77
-2.75
-2.66
-2.48
-2.25
-2.09
-2.13
-2.42
-2.86
-3.28
-3.43
-3.21
-2.67
-2.04
-1.61
-1.54
-1.80
-2.14
-2.24
-1.91
-1.16
-0.21
0.64
1.16
1.31
1.19
1.03
0.98
1.14
1.50
2.03
2.62
3.21
3.69
3.97
4.02
3.88
3.67
3.47
3.38
3.39
3.42
3.41
3.31
3.16
3.00
2.85
2.70
2.53
2.30
2.04
1.80
1.59
1.44
1.28
1.08
0.83
0.60
0.45
0.42
0.49
0.58
0.64
0.60
0.48
0.25
-0.07
-0.50
-1.00
-1.50
-1.88
-2.10
-2.16
-2.14
-2.14
-2.20
-2.28
-2.32
-2.31
-2.29
-2.37
-2.61
-2.99
-3.38
-3.69
-3.87
-3.94
-3.97
-4.01
-4.01
-3.87
-3.55
-3.05
-2.48
-1.97
-1.58
-1.31
-1.08
-0.82
-0.51
-0.14
0.24
0.59
0.93
1.25
1.57
1.87
2.10
2.26
2.32
2.32
2.34
2.41
2.55
2.70
2.77
2.67
2.38
1.95
1.49
1.10
0.86
0.79
0.83
0.91
0.96
0.92
0.82
0.74
0.72
0.78
0.87
0.87
0.65
0.17
-0.47
-1.11
-1.51
-1.58
-1.33
-0.91
-0.49
-0.19
-0.08
-0.13
-0.34
-0.68
-1.15
-1.70
-2.22
-2.57
-2.64
-2.40
-1.94
-1.44
-1.04
-0.80
-0.69
-0.58
-0.35
0.05
0.61
1.23
1.79
2.18
2.33
2.26
2.06
1.84
1.75
1.85
2.11
2.39
2.52
2.40
2.04
1.61
1.25
1.09
1.11
1.20
1.25
1.18
0.99
0.73
0.43
0.10
-0.29
-0.74
-1.23
-1.68
-1.99
-2.09
-1.96
-1.66
-1.32
-1.07
-0.99
-1.10
-1.29
-1.43
-1.40
-1.18
-0.83
-0.51
-0.36
-0.45
-0.76
-1.18
-1.57
-1.81
-1.82
-1.59
-1.15
-0.57
0.02
0.53
0.84
0.91
0.74
0.43
0.07
-0.20
-0.31
-0.28
-0.18
-0.10
-0.10
-0.17
-0.25
-0.26
-0.14
0.09
0.39
0.65
0.82
0.82
0.62
0.24
-0.27
-0.77
-1.11
-1.18
-0.99
-0.72
-0.63
-0.91
-1.58
-2.38
-2.99
-3.07
-2.54
-1.59
-0.60
0.07
0.24
0.02
-0.27
-0.22
0.43
1.69
3.22
4.50
5.01
4.46
3.02
1.30
0.15
0.32
2.09
5.14
8.54
11.17
12.15
11.21
8.90
6.38
5.03
5.89
9.13
13.94
18.74
21.81
22.10
19.75
16.07
13.02
12.19
14.09
17.84
21.64
23.78
23.41
20.94
18.07
17.01
19.72
27.30
39.46
54.36
68.65
77.99
78.02
66.27
43.71
15.45
-10.64
-26.99
-29.73
-20.66
-6.38
4.90
7.21
-0.91
-16.80
-36.01
-55.11
-72.91
-89.65
-105.26
-117.97
-124.75
-123.15
-113.00
-97.02
-79.87
-65.77
-56.81
-52.28
-49.54
-45.94
-40.45
-34.14
-29.42
-28.63
-32.58
-40.33
-49.70
-58.37
-64.79
-68.50
-69.68
-68.67
-65.75
-61.12
-55.24
-48.77
-42.43
-36.61
-31.56
-27.74
-26.33
-28.95
-36.64
-48.35
-59.78
-64.03
-53.89
-25.37
19.44
71.95
119.59
150.29
156.90
139.52
104.77
62.91
24.36
-2.76
-13.69
-7.09
15.16
48.08
84.09
114.31
130.85
129.22
109.99
78.51
42.85
11.15
-10.86
-20.89
-19.81
-10.58
3.05
17.47
29.77
38.04
41.56
40.67
36.67
31.27
26.26
22.95
21.71
21.94
22.34
21.54
18.82
14.50
9.81
6.29
4.99
6.06
8.85
12.48
16.45
20.85
26.16
32.61
39.79
46.63
51.83
54.48
54.46
52.41
49.38
46.42
44.29
43.33
43.69
45.48
48.98
54.63
62.83
73.84
87.44
102.64
117.96
131.42
141.18
146.04
145.78
141.17
133.75
125.47
118.63
115.57
118.31
127.68
142.46
158.88
171.37
174.28
164.05
140.52
106.83
67.83
27.87
-10.67
-47.51
-83.59
-119.92
-156.68
-193.18
-228.02
-259.45
-285.41
-303.64
-312.25
-310.09
-297.47
-276.04
-248.54
-218.13
-187.89
-160.59
-138.70
-124.41
-119.05
-122.53
-132.41
-143.87
-150.54
-146.42
-128.14
-96.30
-55.79
-14.26
20.34
42.26
49.39
43.13
27.15
5.42
-18.90
-43.82
-67.73
-88.31
-101.90
-104.07
-91.25
-62.94
-23.08
20.41
57.80
81.01
86.24
74.98
52.79
26.81
3.37
-13.58
-22.63
-24.30
-20.22
-12.44
-3.19
5.41
11.60
14.19
12.77
7.72
0.09
-8.44
-15.87
-20.39
-20.95
-17.78
-12.28
-6.48
-2.15
-0.28
-0.82
-3.08
-6.10
-8.45
-8.46
-3.92
7.13
25.56
50.14
77.63
103.97
126.32
144.89
163.16
186.11
217.32
256.66
299.55
338.78
367.15
379.75
374.50
351.11
310.07
252.76
182.88
107.83
38.54
-13.11
-38.22
-34.22
-6.42
33.81
72.50
97.40
101.37
84.03
51.65
14.32
-17.83
-39.11
-51.36
-63.62
-88.03
-133.62
-201.01
-281.19
-359.12
-419.45
-451.89
-453.03
-425.04
-373.11
-303.85
-225.18
-147.05
-80.73
-35.91
-17.16
-21.43
-39.18
-58.39
-69.43
-68.53
-58.11
-44.37
-33.59
-29.41
-31.66
-36.51
-38.63
-33.14
-17.24
8.72
41.46
75.87
106.29
127.92
137.54
133.73
117.22
91.01
60.18
31.10
9.68
-0.58
0.13
8.16
18.04
24.84
25.94
21.46
13.45
4.36
-4.08
-11.22
-17.10
-21.89
-25.60
-28.11
-29.49
-29.92
-29.55
-28.34
-25.95
-22.01
-16.44
-9.65
-2.55
3.79
8.44
10.86
10.87
8.65
4.58
-0.72
-6.37
-11.30
-14.39
-14.75
-11.98
-6.31
1.42
9.98
18.17
25.10
30.35
34.07
36.91
39.81
43.69
49.31
56.91
66.27
77.00
88.92
102.37
117.99
136.17
156.48
177.39
196.55
211.64
221.15
224.88
223.88
219.79
214.19
207.94
200.90
191.89
178.80
158.71
128.21
84.12
25.04
-47.10
-126.17
-202.35
-264.40
-302.97
-313.64
-298.53
-265.18
-223.90
-184.23
-152.45
-130.89
-118.62
-113.10
-111.60
-111.84
-112.05
-110.80
-106.99
-100.04
-90.07
-78.05
-65.67
-54.95
-47.50
-43.94
-43.51
-44.17
-43.35
-39.13
-31.34
-21.72
-13.24
-8.76
-9.56
-14.74
-21.69
-27.26
-29.12
-26.51
-20.30
-12.29
-4.54
1.36
4.59
5.29
4.50
3.79
4.67
7.92
13.16
18.94
23.48
25.31
23.88
19.60
13.53
6.95
0.96
-3.63
-6.19
-6.23
-3.36
2.57
11.26
21.72
32.30
40.92
45.73
45.71
41.19
33.83
26.21
21.03
20.19
24.34
32.65
43.25
53.89
62.65
68.46
71.23
71.61
70.53
68.84
67.22
66.17
66.18
67.67
70.81
75.30
80.42
85.28
89.15
92.04
94.25
96.18
97.44
96.15
88.92
71.39
39.63
-8.42
-71.59
-145.21
-221.44
-290.85
-344.52
-375.89
-382.14
-364.29
-326.33
-274.01
-213.69
-151.67
-93.87
-45.34
-9.51
12.60
22.73
24.72
23.18
21.70
21.86
23.35
24.84
25.75
26.60
28.99
34.50
43.43
54.23
64.03
69.87
69.99
64.70
55.97
46.37
37.97
31.68
27.59
25.71
26.52
30.58
37.58
45.36
50.00
47.19
34.33
12.21
-14.87
-40.70
-59.66
-68.71
-68.12
-60.52
-49.18
-36.64
-24.02
-11.57
0.57
11.82
21.18
27.69
31.06
31.84
31.06
29.71
28.22
26.40
23.73
19.88
15.26
11.01
8.60
9.16
12.86
18.70
24.92
29.69
31.86
31.20
28.30
24.09
19.42
14.83
10.62
6.99
4.13
2.20
1.14
0.62
0.18
-0.58
-1.83
-3.40
-4.99
-6.32
-7.32
-8.17
-9.17
-10.57
-12.42
-14.54
-16.63
-18.38
-19.62
-20.35
-20.64
-20.62
-20.42
-20.09
-19.58
-18.68
-17.02
-14.14
-9.61
-3.21
4.90
14.17
23.69
32.38
39.24
43.58
45.22
44.46
41.98
38.63
35.11
31.84
28.88
26.10
23.33
20.55
17.91
15.60
13.74
12.32
11.27
10.44
9.77
9.22
8.73
8.24
7.65
6.85
5.81
4.52
3.08
1.65
0.43
-0.43
-0.86
-0.93
-0.84
-0.79
-0.92
-1.25
-1.66
-2.03
-2.27
-2.39
-2.50
-2.71
-3.04
-3.46
-3.83
-4.06
-4.06
-3.86
-3.53
-3.18
-2.94
-2.90
-3.10
-3.55
-4.20
-4.93
-5.61
-6.10
-6.29
-6.12
-5.61
-4.79
-3.74
-2.52
-1.27
-0.10
0.85
1.47
1.78
1.84
1.73
1.48
1.10
0.59
-0.01
-0.57
-0.93
-0.93
-0.54
0.17
1.03
1.85
2.51
2.94
3.15
3.18
3.12
3.03
3.00
3.07
3.32
3.75
4.32
4.87
5.21
5.14
4.56
3.55
2.39
1.42
0.93
0.96
1.37
1.84
2.13
2.17
2.08
2.04
2.21
2.54
2.84
2.87
2.50
1.72
0.73
-0.24
-0.98
-1.44
-1.69
-1.85
-2.06
-2.39
-2.81
-3.23
-3.55
-3.70
-3.68
-3.52
-3.24
-2.91
-2.54
-2.20
-1.94
-1.84
-1.93
-2.22
-2.61
-2.98
-3.23
-3.31
-3.27
-3.23
-3.28
-3.43
-3.60
-3.66
-3.50
-3.10
-2.53
-1.87
-1.21
-0.57
0.01
0.54
0.99
1.33
1.58
1.75
1.90
2.06
2.25
2.50
2.86
3.35
3.94
4.58
5.12
5.43
5.42
5.09
4.54
3.93
3.40
3.01
2.75
2.52
2.22
1.78
1.27
0.82
0.53
0.44
0.46
0.46
0.34
0.11
-0.11
-0.18
-0.10
0.02
-0.01
-0.33
-0.90
-1.54
-2.00
-2.13
-1.91
-1.50
-1.10
-0.86
-0.87
-1.07
-1.40
-1.73
-1.99
-2.09
-2.02
-1.82
-1.54
-1.29
-1.11
-1.01
-0.99
-1.03
-1.11
-1.22
-1.35
-1.46
-1.50
-1.44
-1.23
-0.89
-0.46
0.02
0.50
0.95
1.35
1.67
1.87
1.87
1.64
1.21
0.70
0.29
0.14
0.28
0.62
0.96
1.15
1.15
1.03
0.93
0.93
1.05
1.21
1.30
1.26
1.08
0.79
0.48
0.23
0.15
0.27
0.53
0.77
0.80
0.47
-0.21
-1.05
-1.80
-2.24
-2.31
-2.12
-1.89
-1.79
-1.85
-1.94
-1.90
-1.59
-1.07
-0.46
0.06
0.37
0.44
0.35
0.21
0.11
0.09
0.20
0.44
0.83
1.35
1.90
2.37
2.61
2.57
2.25
1.76
1.23
0.77
0.42
0.18
0.03
-0.05
-0.10
-0.13
-0.21
-0.38
-0.69
-1.07
-1.44
-1.68
-1.76
-1.67
-1.51
-1.33
-1.22
-1.17
-1.14
-1.06
-0.87
-0.51
-0.01
0.55
1.03
1.28
1.25
1.01
0.72
0.53
0.49
0.54
0.54
0.43
0.23
0.07
0.04
0.13
0.17
-0.08
-0.74
-1.72
-2.74
-3.49
-3.76
-3.62
-3.27
-2.98
-2.87
-2.88
-2.81
-2.45
-1.70
-0.65
0.51
1.58
2.41
2.92
3.13
3.05
2.74
2.26
1.79
1.51
1.65
2.32
3.51
5.02
6.55
7.75
8.34
8.18
7.32
5.96
4.36
2.82
1.51
0.57
0.00
-0.29
-0.45
-0.63
-0.96
-1.47
-2.13
-2.83
-3.47
-3.94
-4.20
-4.19
-3.91
-3.37
-2.65
-1.94
-1.49
-1.49
-2.01
-2.87
-3.72
-4.19
-4.07
-3.46
-2.68
-2.11
-2.01
-2.33
-2.81
-3.08
-2.89
-2.17
-1.01
0.39
1.86
3.21
4.28
4.89
4.85
4.11
2.82
1.35
0.16
-0.34
0.00
1.04
2.40
3.65
4.48
4.82
4.79
4.67
4.67
4.87
5.17
5.39
5.33
4.93
4.28
3.50
2.71
1.97
1.28
0.62
0.01
-0.55
-1.02
-1.41
-1.70
-1.94
-2.19
-2.58
-3.33
-4.68
-6.73
-9.27
-11.79
-13.58
-13.97
-12.74
-10.15
-6.91
-3.89
-1.81
-1.19
-2.32
-5.34
-10.13
-16.16
-22.36
-27.32
-29.74
-29.04
-25.67
-20.98
-16.65
-13.90
-13.08
-13.74
-15.15
-16.67
-18.08
-19.44
-20.79
-21.96
-22.70
-23.03
-23.54
-25.27
-29.27
-35.93
-44.68
-54.02
-62.06
-66.91
-66.99
-61.22
-49.44
-32.92
-14.51
1.92
12.86
16.61
13.99
7.76
1.02
-4.51
-9.04
-13.97
-20.37
-27.83
-34.54
-38.19
-37.08
-30.78
-19.94
-5.82
10.05
25.90
39.93
50.83
58.47
64.18
70.20
78.52
89.45
101.25
110.92
115.69
114.75
109.71
103.93
100.78
102.02
106.76
111.78
112.72
105.98
90.39
67.98
43.73
23.99
14.44
17.90
33.30
56.26
80.44
99.66
109.08
105.77
88.74
59.14
20.65
-20.60
-57.22
-83.03
-95.23
-95.72
-89.69
-82.60
-77.21
-72.19
-63.25
-46.00
-19.12
14.03
45.82
67.07
70.24
52.44
16.69
-29.08
-74.47
-110.07
-129.87
-132.43
-120.31
-98.40
-72.50
-48.08
-29.51
-19.65
-19.27
-26.91
-39.27
-52.04
-61.19
-63.81
-58.71
-46.58
-29.99
-12.96
0.13
6.00
3.90
-4.03
-13.72
-21.07
-23.86
-22.28
-18.30
-14.10
-10.97
-9.08
-7.99
-7.36
-7.14
-7.32
-7.50
-7.06
-5.56
-3.27
-1.02
0.43
1.10
1.94
4.22
8.53
14.06
18.88
21.01
19.55
15.19
9.70
4.85
1.54
-0.46
-1.88
-3.27
-4.29
-4.01
-1.42
3.84
11.23
19.41
26.69
31.65
33.60
32.75
30.10
27.01
24.66
23.68
23.93
24.76
25.42
25.49
25.01
24.33
23.77
23.26
22.31
20.22
16.53
11.36
5.51
0.24
-3.20
-4.13
-2.68
0.15
2.90
4.27
3.65
1.41
-1.31
-3.14
-3.16
-1.38
1.26
3.30
3.53
1.57
-1.87
-5.36
-7.47
-7.47
-5.59
-2.67
0.42
3.24
5.80
8.13
9.86
10.19
8.56
5.40
2.44
2.10
6.14
14.33
24.17
31.99
34.91
32.52
27.06
22.04
20.00
20.90
22.12
20.03
12.31
-0.61
-15.65
-28.79
-37.05
-39.84
-38.68
-35.95
-33.43
-31.53
-29.68
-27.28
-24.53
-22.39
-21.96
-23.47
-26.00
-27.93
-28.07
-26.60
-25.13
-25.88
-30.37
-38.55
-48.84
-59.08
-67.62
-74.06
-79.00
-83.27
-87.26
-90.53
-92.32
-92.13
-90.20
-87.41
-84.61
-81.92
-78.46
-72.75
-63.30
-49.32
-31.04
-9.83
11.78
30.18
41.08
40.58
26.69
0.93
-31.21
-61.34
-81.02
-84.61
-71.28
-45.02
-12.50
19.47
45.99
64.86
76.23
81.65
83.02
82.00
79.90
77.74
76.14
75.10
73.91
71.44
66.90
60.44
53.55
48.50
47.31
50.63
57.21
64.48
69.66
71.05
68.53
63.15
55.99
47.52
37.47
25.75
13.13
1.03
-8.79
-15.20
-18.32
-19.26
-19.71
-21.15
-24.26
-28.80
-33.90
-38.45
-41.42
-42.00
-39.63
-34.14
-26.02
-16.57
-7.63
-0.92
2.87
4.62
6.50
10.99
19.35
30.72
42.28
50.54
52.95
49.13
40.74
30.37
19.97
9.94
-0.48
-12.13
-24.80
-36.78
-45.32
-48.36
-45.81
-40.09
-35.46
-36.19
-44.66
-59.95
-78.20
-93.86
-101.76
-98.98
-85.67
-65.07
-42.93
-26.53
-23.19
-38.20
-72.55
-121.61
-175.75
-223.08
-253.57
-262.46
-251.44
-226.90
-196.51
-165.98
-137.70
-111.45
-86.29
-61.97
-38.96
-17.48
3.67
27.16
55.99
91.54
132.09
172.91
207.60
230.60
239.41
235.33
222.75
206.95
191.98
179.56
169.25
159.69
149.78
139.43
129.31
120.18
112.31
105.38
98.75
92.02
85.21
78.83
73.43
69.28
66.10
63.28
60.13
56.18
51.38
46.02
40.62
35.65
31.44
28.07
25.44
23.35
21.62
20.12
18.88
18.06
17.86
18.41
19.68
21.47
23.42
25.13
26.34
26.96
27.17
27.28
27.56
28.09
28.67
28.89
28.32
26.78
24.52
22.15
20.39
19.62
19.58
19.39
17.96
14.58
9.44
3.65
-1.35
-4.55
-6.04
-6.96
-8.74
-12.19
-16.95
-21.71
-25.12
-26.71
-27.22
-27.98
-30.00
-33.20
-36.43
-38.26
-37.91
-35.78
-33.15
-31.40
-31.26
-32.53
-34.32
-35.67
-35.98
-35.10
-33.21
-30.60
-27.63
-24.69
-22.24
-20.65
-20.04
-20.15
-20.41
-20.21
-19.12
-17.07
-14.45
-11.87
-10.00
-9.33
-9.87
-11.21
-12.51
-12.90
-11.81
-9.30
-6.18
-3.60
-2.36
-2.37
-2.67
-2.00
0.29
3.78
7.17
9.05
8.80
6.88
4.45
2.54
1.35
0.31
-1.37
-4.02
-7.22
-10.12
-12.07
-12.96
-13.18
-13.14
-12.93
-12.39
-11.40
-10.19
-9.29
-9.22
-10.10
-11.48
-12.61
-12.80
-11.68
-9.27
-5.86
-2.03
1.28
2.83
1.40
-3.66
-11.92
-21.65
-30.26
-35.15
-34.73
-29.06
-19.95
-10.22
-2.92
-0.17
-2.60
-9.15
-17.50
-25.03
-29.79
-31.18
-30.01
-27.59
-24.62
-20.74
-15.04
-7.10
2.23
11.00
17.18
19.85
19.80
18.89
18.85
20.18
21.94
22.53
20.96
17.67
14.37
13.16
15.36
20.91
28.58
36.62
43.64
49.32
54.42
60.06
66.78
73.56
78.04
77.68
71.12
59.20
44.70
30.99
20.48
13.71
9.59
6.43
2.97
-1.09
-5.49
-9.93
-14.49
-19.47
-24.89
-30.12
-34.01
-35.43
-33.78
-29.26
-22.77
-15.60
-8.93
-3.71
-0.56
0.22
-1.39
-5.02
-9.90
-14.96
-19.12
-21.52
-21.82
-20.16
-16.95
-12.62
-7.50
-1.88
3.79
8.73
12.05
13.19
12.24
10.07
7.92
6.76
6.77
7.32
7.43
6.45
4.44
2.05
0.00
-1.38
-2.17
-2.46
-1.88
0.38
5.19
12.74
22.15
31.72
39.66
44.80
46.84
46.03
42.67
36.88
28.85
19.24
9.47
1.38
-3.51
-4.78
-3.21
-0.44
1.98
3.20
3.21
2.55
1.72
0.90
-0.15
-1.71
-3.84
-6.25
-8.37
-9.69
-9.97
-9.37
-8.35
-7.39
-6.79
-6.48
-6.21
-5.69
-4.94
-4.27
-4.22
-5.20
-7.25
-10.01
-12.94
-15.58
-17.80
-19.71
-21.47
-23.11
-24.52
-25.51
-26.02
-26.13
-25.99
-25.73
-25.37
-24.87
-24.27
-23.61
-23.00
-22.43
-21.82
-21.00
-19.94
-18.66
-17.33
-16.07
-14.93
-13.86
-12.77
-11.58
-10.24
-8.74
-7.08
-5.25
-3.28
-1.22
0.84
2.72
4.32
5.49
6.17
6.36
6.19
5.90
5.75
5.88
6.24
6.57
6.50
5.79
4.46
2.92
1.87
2.00
3.63
6.47
9.61
11.86
12.18
10.11
5.89
0.31
-5.54
-10.56
-13.70
-14.19
-11.91
-7.79
-3.81
-2.50
-5.74
-13.61
-24.04
-33.62
-39.26
-39.77
-36.39
-31.84
-28.68
-27.96
-28.89
-29.92
-29.83
-28.56
-26.87
-25.50
-24.57
-23.75
-23.13
-23.62
-26.56
-32.41
-39.80
-45.55
-46.04
-39.44
-26.85
-11.85
1.51
10.88
16.62
21.01
26.32
33.12
40.13
45.60
49.12
52.49
58.75
69.99
85.48
101.28
111.99
113.23
103.81
86.15
64.87
44.57
28.05
15.81
6.67
-0.88
-7.74
-13.90
-18.99
-22.86
-25.94
-29.05
-32.99
-37.99
-43.61
-48.98
-53.37
-56.77
-60.14
-65.02
-72.68
-83.15
-94.57
-103.41
-105.52
-97.77
-79.75
-54.21
-26.70
-3.88
8.54
7.69
-5.12
-24.45
-42.56
-52.20
-49.67
-36.14
-16.54
3.12
19.15
31.94
45.44
64.38
90.79
121.50
148.41
161.39
153.14
123.23
79.36
35.02
4.05
-5.17
6.85
31.12
54.88
67.63
65.36
51.31
32.62
15.96
4.43
-2.79
-8.34
-14.21
-20.31
-24.65
-24.98
-20.25
-11.30
-0.72
8.28
13.14
12.90
8.42
1.95
-4.03
-7.97
-9.90
-11.17
-13.47
-17.48
-22.16
-25.20
-24.35
-19.03
-11.13
-4.29
-2.02
-5.44
-12.37
-18.07
-17.76
-9.14
6.20
23.60
37.60
44.52
43.81
37.60
28.98
20.21
11.94
3.69
-4.98
-13.54
-20.36
-23.52
-21.97
-16.21
-8.23
-0.63
4.44
6.17
5.24
3.24
1.89
2.16
3.97
6.41
8.28
8.76
7.88
6.52
6.00
7.32
10.55
14.60
17.59
17.75
14.30
8.03
1.01
-4.28
-6.08
-4.11
0.42
5.47
9.26
10.93
10.84
10.04
9.68
10.36
12.01
14.08
15.95
17.17
17.27
15.71
11.73
4.76
-5.05
-16.37
-26.69
-33.14
-33.62
-27.80
-17.34
-5.19
5.59
12.92
16.04
15.34
11.74
6.25
-0.07
-6.04
-10.31
-11.67
-9.56
-4.50
1.78
6.89
8.60
5.76
-1.16
-10.10
-18.05
-22.09
-20.45
-13.18
-2.21
9.35
18.32
22.56
21.57
16.39
8.84
0.71
-7.02
-14.18
-20.94
-27.25
-32.41
-35.31
-34.91
-31.04
-24.60
-17.42
-11.49
-8.25
-8.09
-10.58
-14.76
-19.47
-23.39
-25.02
-23.06
-17.31
-9.45
-3.20
-2.99
-11.66
-28.19
-46.95
-59.25
-56.74
-35.19
3.24
50.60
96.08
130.00
146.66
145.39
129.31
103.10
71.15
36.90
3.27
-26.41
-48.24
-58.51
-55.37
-40.15
-17.46
6.20
24.85
35.24
37.62
34.84
30.36
26.27
22.58
17.72
10.23
0.32
-9.45
-14.93
-12.15
0.65
21.77
46.50
69.02
84.75
92.01
91.86
86.48
77.51
65.22
49.57
31.83
15.20
3.50
-1.54
-2.16
-4.20
-14.07
-34.92
-64.30
-94.73
-117.25
-125.68
-119.17
-101.93
-80.51
-60.63
-45.48
-35.93
-32.00
-34.03
-42.45
-56.21
-71.31
-80.92
-77.64
-57.11
-20.88
23.40
64.47
92.46
102.54
96.17
78.88
56.62
32.78
7.68
-19.60
-48.58
-75.79
-95.57
-102.53
-94.13
-71.98
-41.18
-8.13
21.90
46.24
65.22
80.87
95.25
109.09
121.17
128.71
128.54
118.44
98.32
70.51
39.24
9.32
-15.30
-32.68
-43.27
-49.55
-54.84
-61.78
