1539435321.00
64.000000
-0.00
-0.00
-0.00
-0.00
-0.00
-0.00
-0.00
-0.00
-0.00
-0.00
0.00
0.01
0.01
-0.00
-0.03
-0.05
-0.05
0.00
0.13
0.36
0.66
1.01
1.38
1.73
2.06
2.40
2.78
3.23
3.80
4.45
5.14
5.79
6.36
6.84
7.27
7.73
8.30
9.11
10.11
11.21
12.27
13.21
14.04
14.89
15.99
17.51
19.73
22.48
25.52
28.50
31.19
33.60
35.99
38.84
42.54
47.59
53.76
60.53
67.24
73.35
78.75
83.81
89.30
95.97
104.67
115.13
126.61
138.05
148.50
157.58
165.71
174.30
182.48
193.07
207.14
224.94
244.93
263.57
275.85
276.73
262.94
234.17
193.59
145.73
95.19
45.01
-3.85
-51.93
-100.30
-149.59
-199.57
-248.72
-294.87
-334.94
-365.52
-383.71
-388.14
-379.64
-361.02
-336.20
-308.80
-281.48
-255.62
-231.79
-210.17
-190.91
-173.96
-158.96
-145.14
-131.51
-117.48
-103.05
-88.80
-75.61
-64.23
-54.91
-47.28
-40.60
-34.02
-27.06
-19.69
-12.33
-5.59
-0.03
4.13
7.04
9.15
11.02
13.05
15.39
17.87
20.14
21.86
22.89
23.29
23.32
23.28
23.33
23.47
23.55
23.40
22.93
22.15
21.21
20.28
19.50
18.92
18.51
18.17
17.81
17.38
16.87
16.32
15.80
15.33
14.93
14.55
14.17
13.77
13.35
12.91
12.42
11.87
11.26
10.66
10.16
9.82
9.66
9.60
9.54
9.37
9.09
8.75
8.41
8.10
7.79
7.42
6.96
6.49
6.15
6.07
6.28
6.67
7.06
7.28
7.26
7.07
6.81
6.58
6.40
6.23
6.01
5.74
5.45
5.17
4.92
4.65
4.34
3.98
3.60
3.29
3.08
2.99
2.97
2.96
2.90
2.72
2.42
1.99
1.48
0.99
0.62
0.44
0.41
0.47
0.50
0.45
0.35
0.25
0.22
0.24
0.25
0.14
-0.15
-0.58
-1.07
-1.51
-1.78
-1.84
-1.70
-1.44
-1.15
-0.93
-0.85
-0.91
-1.07
-1.24
-1.31
-1.23
-0.98
-0.60
-0.15
0.29
0.66
0.92
1.03
1.00
0.83
0.59
0.37
0.24
0.28
0.48
0.80
1.11
1.33
1.45
1.52
1.62
1.78
1.98
2.15
2.21
2.15
2.02
1.88
1.78
1.76
1.81
1.90
1.99
2.06
2.07
2.03
1.96
1.94
2.01
2.16
2.31
2.38
2.29
2.08
1.87
1.79
1.91
2.19
2.48
2.66
2.64
2.46
2.22
2.03
1.93
1.86
1.75
1.56
1.35
1.22
1.26
1.47
1.74
1.95
2.00
1.94
1.86
1.86
1.94
2.04
2.04
1.88
1.59
1.26
0.99
0.81
0.70
0.65
0.65
0.72
0.88
1.07
1.22
1.26
1.20
1.09
1.04
1.12
1.31
1.51
1.63
1.59
1.42
1.17
0.93
0.74
0.59
0.48
0.39
0.39
0.50
0.74
1.04
1.30
1.39
1.26
0.93
0.56
0.32
0.34
0.62
1.07
1.49
1.69
1.58
1.18
0.64
0.17
-0.09
-0.09
0.10
0.33
0.50
0.57
0.56
0.55
0.58
0.60
0.58
0.47
0.30
0.18
0.18
0.31
0.49
0.58
0.50
0.26
-0.03
-0.17
-0.07
0.29
0.77
1.17
1.32
1.18
0.79
0.30
-0.14
-0.43
-0.53
-0.45
-0.22
0.11
0.50
0.85
1.07
1.07
0.85
0.47
0.08
-0.18
-0.21
-0.04
0.26
0.56
0.75
0.80
0.73
0.63
0.56
0.56
0.61
0.67
0.70
0.68
0.64
0.61
0.60
0.58
0.51
0.34
0.10
-0.15
-0.30
-0.29
-0.11
0.17
0.44
0.62
0.70
0.71
0.68
0.63
0.54
0.42
0.28
0.18
0.17
0.28
0.45
0.63
0.73
0.71
0.57
0.36
0.13
-0.08
-0.22
-0.27
-0.19
0.01
0.28
0.54
0.72
0.79
0.73
0.57
0.36
0.15
-0.03
-0.15
-0.21
-0.22
-0.20
-0.18
-0.14
-0.06
0.10
0.33
0.58
0.75
0.75
0.53
0.17
-0.21
-0.49
-0.60
-0.54
-0.38
-0.20
-0.01
0.19
0.39
0.55
0.56
0.37
0.02
-0.35
-0.55
-0.41
0.05
0.66
1.19
1.41
1.27
0.87
0.45
0.18
0.16
0.30
0.44
0.41
0.18
-0.18
-0.49
-0.59
-0.45
-0.14
0.19
0.42
0.50
0.43
0.31
0.21
0.19
0.27
0.42
0.57
0.62
0.52
0.28
-0.03
-0.27
-0.37
-0.32
-0.20
-0.12
-0.15
-0.26
-0.35
-0.29
-0.04
0.37
0.83
1.18
1.32
1.24
0.97
0.62
0.28
0.04
-0.10
-0.13
-0.07
0.05
0.23
0.42
0.59
0.71
0.75
0.70
0.57
0.34
0.02
-0.34
-0.68
-0.91
-0.97
-0.88
-0.70
-0.51
-0.36
-0.25
-0.15
-0.03
0.06
0.03
-0.16
-0.47
-0.78
-0.96
-0.95
-0.77
-0.54
-0.38
-0.35
-0.41
-0.48
-0.48
-0.42
-0.33
-0.26
-0.23
-0.18
-0.05
0.22
0.61
1.02
1.34
1.47
1.37
1.09
0.73
0.42
0.26
0.28
0.42
0.58
0.66
0.65
0.58
0.53
0.52
0.55
0.57
0.50
0.35
0.15
-0.05
-0.23
-0.39
-0.53
-0.62
-0.61
-0.44
-0.11
0.28
0.62
0.80
0.80
0.65
0.41
0.15
-0.07
-0.24
-0.34
-0.41
-0.48
-0.59
-0.72
-0.83
-0.85
-0.71
-0.43
-0.11
0.16
0.28
0.28
0.26
0.31
0.49
0.76
0.99
1.10
1.01
0.76
0.39
-0.01
-0.36
-0.62
-0.74
-0.71
-0.54
-0.27
0.04
0.30
0.48
0.54
0.51
0.39
0.20
-0.04
-0.30
-0.50
-0.60
-0.56
-0.40
-0.19
-0.02
0.05
0.00
-0.11
-0.20
-0.19
-0.05
0.21
0.50
0.74
0.83
0.74
0.50
0.23
0.03
-0.03
0.02
0.10
0.13
0.09
0.04
0.05
0.13
0.20
0.13
-0.13
-0.55
-0.97
-1.21
-1.13
-0.74
-0.17
0.38
0.73
0.82
0.67
0.41
0.16
0.03
0.04
0.14
0.25
0.29
0.26
0.17
0.07
-0.02
-0.11
-0.23
-0.38
-0.51
-0.54
-0.42
-0.16
0.15
0.39
0.48
0.45
0.38
0.35
0.40
0.49
0.54
0.51
0.42
0.31
0.23
0.17
0.07
-0.14
-0.44
-0.77
-1.01
-1.06
-0.93
-0.65
-0.31
0.03
0.35
0.63
0.85
0.97
0.93
0.70
0.30
-0.17
-0.60
-0.84
-0.83
-0.58
-0.19
0.17
0.38
0.37
0.19
-0.05
-0.25
-0.40
-0.54
-0.72
-0.94
-1.12
-1.12
-0.85
-0.33
0.27
0.76
1.00
0.96
0.74
0.46
0.23
0.09
0.05
0.10
0.24
0.47
0.72
0.92
0.97
0.84
0.56
0.25
0.01
-0.12
-0.16
-0.18
-0.26
-0.43
-0.64
-0.81
-0.86
-0.75
-0.50
-0.16
0.17
0.44
0.66
0.85
1.02
1.15
1.19
1.07
0.77
0.36
-0.08
-0.43
-0.62
-0.64
-0.52
-0.30
-0.02
0.27
0.54
0.72
0.81
0.79
0.70
0.57
0.44
0.31
0.16
-0.02
-0.23
-0.43
-0.60
-0.71
-0.77
-0.79
-0.79
-0.80
-0.82
-0.81
-0.76
-0.66
-0.52
-0.39
-0.32
-0.30
-0.29
-0.21
-0.03
0.23
0.44
0.51
0.41
0.21
0.07
0.06
0.20
0.36
0.40
0.27
0.04
-0.12
-0.09
0.14
0.46
0.71
0.75
0.55
0.19
-0.18
-0.46
-0.56
-0.49
-0.30
-0.07
0.10
0.17
0.12
-0.03
-0.22
-0.39
-0.48
-0.46
-0.34
-0.17
-0.02
0.05
0.04
-0.03
-0.13
-0.20
-0.25
-0.29
-0.34
-0.37
-0.37
-0.29
-0.15
0.02
0.12
0.10
-0.01
-0.15
-0.21
-0.15
0.03
0.24
0.39
0.40
0.27
0.03
-0.22
-0.39
-0.42
-0.30
-0.08
0.16
0.35
0.47
0.57
0.72
0.94
1.20
1.38
1.40
1.20
0.85
0.41
-0.03
-0.46
-0.87
-1.26
-1.51
-1.50
-1.11
-0.42
0.37
0.98
1.21
1.02
0.57
0.07
-0.30
-0.48
-0.52
-0.53
-0.54
-0.52
-0.41
-0.17
0.18
0.54
0.80
0.90
0.82
0.64
0.43
0.29
0.25
0.28
0.35
0.37
0.30
0.12
-0.14
-0.43
-0.66
-0.80
-0.82
-0.71
-0.52
-0.28
-0.04
0.15
0.26
0.26
0.18
0.05
-0.05
-0.08
-0.05
-0.02
-0.03
-0.14
-0.34
-0.55
-0.71
-0.76
-0.70
-0.57
-0.43
-0.33
-0.25
-0.17
-0.02
0.22
0.50
0.75
0.86
0.77
0.49
0.09
-0.32
-0.63
-0.80
-0.82
-0.73
-0.58
-0.41
-0.19
0.07
0.38
0.68
0.91
0.98
0.86
0.56
0.17
-0.23
-0.59
-0.87
-1.07
-1.14
-1.07
-0.83
-0.45
-0.03
0.32
0.51
0.51
0.38
0.22
0.10
0.06
0.09
0.15
0.22
0.31
0.41
0.50
0.54
0.55
0.55
0.57
0.63
0.68
0.68
0.59
0.46
0.41
0.51
0.74
1.00
1.09
0.88
0.38
-0.28
-0.87
-1.20
-1.23
-1.03
-0.78
-0.60
-0.54
-0.56
-0.56
-0.48
-0.29
-0.05
0.16
0.23
0.16
-0.01
-0.20
-0.29
-0.25
-0.08
0.14
0.33
0.39
0.31
0.13
-0.10
-0.33
-0.53
-0.68
-0.76
-0.72
-0.50
-0.10
0.40
0.84
1.07
1.01
0.68
0.25
-0.09
-0.23
-0.14
0.07
0.31
0.48
0.58
0.60
0.53
0.36
0.07
-0.28
-0.56
-0.64
-0.44
-0.02
0.46
0.81
0.91
0.75
0.44
0.11
-0.12
-0.20
-0.13
0.06
0.26
0.40
0.39
0.19
-0.16
-0.52
-0.77
-0.84
-0.74
-0.59
-0.47
-0.42
-0.44
-0.45
-0.43
-0.36
-0.28
-0.23
-0.19
-0.15
-0.08
0.05
0.21
0.36
0.48
0.54
0.51
0.42
0.27
0.10
-0.04
-0.10
-0.09
-0.06
-0.11
-0.31
-0.62
-0.95
-1.14
-1.09
-0.76
-0.26
0.26
0.62
0.74
0.62
0.36
0.08
-0.12
-0.18
-0.08
0.13
0.41
0.68
0.88
0.96
0.91
0.72
0.41
0.02
-0.37
-0.65
-0.74
-0.61
-0.33
-0.03
0.15
0.13
-0.05
-0.25
-0.36
-0.32
-0.18
-0.02
0.10
0.15
0.17
0.19
0.19
0.16
0.09
0.00
-0.06
-0.08
-0.09
-0.14
-0.26
-0.43
-0.55
-0.53
-0.37
-0.10
0.15
0.28
0.27
0.16
-0.00
-0.14
-0.23
-0.24
-0.16
0.00
0.21
0.37
0.45
0.40
0.30
0.23
0.25
0.37
0.51
0.57
0.51
0.36
0.21
0.13
0.13
0.18
0.22
0.21
0.15
0.06
-0.02
-0.09
-0.14
-0.14
-0.11
-0.04
0.04
0.08
0.05
-0.08
-0.29
-0.54
-0.81
-1.03
-1.15
-1.11
-0.91
-0.55
-0.12
0.26
0.48
0.51
0.40
0.24
0.13
0.12
0.16
0.20
0.18
0.11
0.05
0.06
0.17
0.31
0.40
0.36
0.18
-0.08
-0.27
-0.28
-0.06
0.32
0.70
0.94
0.93
0.69
0.30
-0.09
-0.38
-0.52
-0.51
-0.40
-0.27
-0.17
-0.11
-0.11
-0.12
-0.12
-0.09
-0.02
0.06
0.13
0.14
0.08
-0.03
-0.15
-0.24
-0.28
-0.29
-0.27
-0.24
-0.20
-0.14
-0.06
0.01
0.07
0.08
0.03
-0.06
-0.19
-0.28
-0.32
-0.25
-0.09
0.13
0.33
0.46
0.48
0.40
0.28
0.17
0.13
0.19
0.30
0.40
0.42
0.35
0.21
0.04
-0.12
-0.22
-0.27
-0.27
-0.27
-0.24
-0.17
-0.05
0.10
0.24
0.32
0.31
0.23
0.13
0.08
0.11
0.18
0.24
0.22
0.12
-0.02
-0.10
-0.07
0.08
0.26
0.41
0.45
0.34
0.13
-0.16
-0.45
-0.67
-0.75
-0.63
-0.31
0.12
0.53
0.73
0.62
0.18
-0.45
-1.06
-1.45
-1.49
-1.19
-0.68
-0.15
0.23
0.33
0.17
-0.20
-0.65
-1.06
-1.31
-1.38
-1.24
-0.93
-0.46
0.08
0.63
1.09
1.39
1.46
1.28
0.90
0.47
0.13
0.01
0.14
0.42
0.69
0.82
0.77
0.61
0.45
0.38
0.39
0.42
0.39
0.30
0.17
0.06
-0.03
-0.12
-0.26
-0.42
-0.55
-0.58
-0.48
-0.32
-0.16
-0.08
-0.05
-0.01
0.08
0.23
0.36
0.39
0.30
0.11
-0.07
-0.20
-0.25
-0.22
-0.15
-0.04
0.13
0.33
0.52
0.63
0.60
0.45
0.24
0.05
-0.06
-0.13
-0.21
-0.30
-0.39
-0.40
-0.31
-0.12
0.08
0.18
0.14
-0.02
-0.24
-0.45
-0.62
-0.76
-0.86
-0.88
-0.79
-0.58
-0.27
0.05
0.28
0.39
0.38
0.30
0.18
0.02
-0.16
-0.33
-0.43
-0.38
-0.15
0.19
0.50
0.58
0.35
-0.15
-0.73
-1.16
-1.23
-0.92
-0.33
0.32
0.83
1.08
1.07
0.88
0.64
0.45
0.35
0.37
0.49
0.65
0.77
0.75
0.51
0.05
-0.55
-1.16
-1.59
-1.73
-1.53
-1.09
-0.57
-0.15
0.07
0.09
-0.00
-0.10
-0.12
-0.04
0.12
0.34
0.57
0.78
0.93
0.95
0.81
0.52
0.14
-0.20
-0.38
-0.35
-0.16
0.09
0.29
0.38
0.38
0.35
0.34
0.38
0.41
0.41
0.36
0.29
0.25
0.23
0.18
0.06
-0.17
-0.44
-0.62
-0.56
-0.22
0.32
0.89
1.28
1.36
1.07
0.53
-0.13
-0.72
-1.09
-1.17
-0.98
-0.60
-0.20
0.12
0.30
0.38
0.45
0.55
0.67
0.73
0.70
0.57
0.42
0.31
0.27
0.25
0.17
-0.03
-0.32
-0.64
-0.88
-0.98
-0.96
-0.85
-0.73
-0.65
-0.62
-0.61
-0.58
-0.48
-0.27
-0.02
0.20
0.27
0.15
-0.15
-0.54
-0.87
-1.05
-1.04
-0.93
-0.78
-0.65
-0.53
-0.34
-0.05
0.34
0.71
0.95
0.96
0.76
0.45
0.15
-0.01
0.01
0.17
0.39
0.58
0.70
0.73
0.68
0.54
0.33
0.06
-0.25
-0.53
-0.75
-0.87
-0.85
-0.69
-0.45
-0.17
0.05
0.17
0.16
0.05
-0.08
-0.15
-0.08
0.16
0.50
0.85
1.09
1.13
0.99
0.73
0.48
0.32
0.26
0.24
0.17
0.01
-0.19
-0.34
-0.33
-0.14
0.16
0.44
0.58
0.54
0.35
0.11
-0.07
-0.14
-0.09
0.01
0.11
0.15
0.13
0.08
0.06
0.10
0.18
0.23
0.20
0.05
-0.17
-0.38
-0.49
-0.47
-0.36
-0.25
-0.25
-0.35
-0.52
-0.64
-0.66
-0.57
-0.43
-0.31
-0.24
-0.19
-0.13
-0.04
0.08
0.17
0.19
0.12
-0.02
-0.19
-0.34
-0.43
-0.43
-0.34
-0.17
0.05
0.27
0.45
0.55
0.59
0.57
0.52
0.46
0.38
0.28
0.17
0.09
0.05
0.07
0.11
0.11
0.01
-0.19
-0.46
-0.72
-0.91
-0.97
-0.91
-0.75
-0.50
-0.20
0.12
0.38
0.50
0.41
0.11
-0.30
-0.67
-0.84
-0.74
-0.41
0.01
0.40
0.63
0.67
0.56
0.38
0.21
0.12
0.12
0.18
0.23
0.17
-0.02
-0.31
-0.61
-0.79
-0.77
-0.54
-0.16
0.27
0.67
0.93
1.03
0.92
0.64
0.25
-0.14
-0.40
-0.48
-0.40
-0.25
-0.13
-0.10
-0.13
-0.16
-0.13
-0.03
0.09
0.18
0.21
0.21
0.23
0.33
0.51
0.71
0.85
0.85
0.68
0.39
0.01
-0.36
-0.63
-0.74
-0.64
-0.34
0.10
0.59
1.02
1.29
1.32
1.11
0.71
0.22
-0.21
-0.47
-0.53
-0.42
-0.23
-0.08
-0.05
-0.13
-0.28
-0.42
-0.51
-0.52
-0.49
-0.43
-0.35
-0.26
-0.17
-0.13
-0.13
-0.18
-0.25
-0.29
-0.33
-0.36
-0.43
-0.52
-0.59
-0.57
-0.44
-0.23
-0.01
0.12
0.14
0.08
-0.01
-0.08
-0.12
-0.12
-0.09
-0.01
0.12
0.26
0.34
0.28
0.05
-0.30
-0.67
-0.92
-0.95
-0.73
-0.30
0.26
0.82
1.27
1.51
1.52
1.37
1.14
0.92
0.76
0.63
0.48
0.29
0.07
-0.12
-0.23
-0.25
-0.22
-0.19
-0.23
-0.30
-0.37
-0.36
-0.29
-0.20
-0.17
-0.24
-0.36
-0.46
-0.43
-0.26
-0.02
0.15
0.18
0.07
-0.10
-0.20
-0.19
-0.09
0.01
0.07
0.08
0.11
0.19
0.30
0.38
0.39
0.33
0.27
0.27
0.33
0.38
0.34
0.18
-0.05
-0.27
-0.38
-0.37
-0.27
-0.14
-0.03
0.07
0.17
0.25
0.26
0.19
0.01
-0.20
-0.35
-0.36
-0.21
0.04
0.32
0.54
0.66
0.65
0.52
0.28
-0.02
-0.33
-0.55
-0.65
-0.60
-0.46
-0.32
-0.23
-0.23
-0.29
-0.38
-0.43
-0.40
-0.28
-0.11
0.05
0.13
0.09
-0.08
-0.29
-0.45
-0.45
-0.28
0.01
0.30
0.49
0.55
0.50
0.37
0.18
-0.11
-0.50
-0.93
-1.24
-1.28
-0.97
-0.41
0.18
0.56
0.57
0.30
-0.04
-0.21
-0.11
0.19
0.52
0.67
0.57
0.29
-0.01
-0.17
-0.13
0.07
0.34
0.57
0.69
0.69
0.62
0.53
0.48
0.47
0.47
0.44
0.34
0.19
0.04
-0.05
-0.04
0.04
0.11
0.04
-0.21
-0.61
-1.03
-1.30
-1.30
-1.06
-0.69
-0.34
-0.11
0.05
0.28
0.67
1.23
1.78
2.12
2.08
1.67
1.04
0.40
-0.11
-0.45
-0.68
-0.84
-0.94
-0.90
-0.70
-0.38
-0.07
0.09
0.04
-0.21
-0.50
-0.70
-0.70
-0.50
-0.18
0.14
0.38
0.47
0.41
0.22
-0.08
-0.42
-0.73
-0.88
-0.82
-0.53
-0.09
0.33
0.60
0.64
0.47
0.22
0.02
-0.07
-0.07
-0.03
0.02
0.05
0.10
0.18
0.23
0.21
0.05
-0.20
-0.44
-0.54
-0.46
-0.23
0.01
0.15
0.11
-0.07
-0.28
-0.40
-0.38
-0.24
-0.04
0.13
0.21
0.22
0.20
0.19
0.21
0.26
0.32
0.35
0.31
0.23
0.15
0.12
0.16
0.24
0.28
0.20
-0.01
-0.28
-0.51
-0.59
-0.49
-0.27
-0.04
0.09
0.11
0.07
0.06
0.15
0.34
0.55
0.69
0.67
0.47
0.12
-0.28
-0.65
-0.91
-1.06
-1.06
-0.93
-0.68
-0.33
0.09
0.48
0.75
0.80
0.58
0.17
-0.31
-0.70
-0.84
-0.71
-0.39
-0.01
0.30
0.46
0.49
0.42
0.32
0.21
0.07
-0.10
-0.24
-0.29
-0.19
0.06
0.39
0.66
0.75
0.62
0.33
0.00
-0.20
-0.19
0.03
0.37
0.68
0.81
0.68
0.31
-0.17
-0.59
-0.77
-0.66
-0.31
0.12
0.47
0.60
0.47
0.13
-0.30
-0.68
-0.89
-0.87
-0.64
-0.27
0.10
0.34
0.38
0.24
0.01
-0.18
-0.26
-0.25
-0.22
-0.22
-0.30
-0.41
-0.46
-0.39
-0.18
0.13
0.46
0.69
0.77
0.67
0.41
0.06
-0.30
-0.59
-0.72
-0.66
-0.43
-0.13
0.14
0.30
0.31
0.22
0.11
0.04
0.04
0.07
0.09
0.09
0.11
0.22
0.44
0.71
0.97
1.12
1.15
1.05
0.85
0.57
0.21
-0.19
-0.56
-0.81
-0.88
-0.77
-0.53
-0.25
0.02
0.24
0.40
0.47
0.42
0.25
0.00
-0.21
-0.30
-0.21
-0.01
0.20
0.32
0.32
0.26
0.19
0.18
0.23
0.29
0.28
0.14
-0.17
-0.58
-0.98
-1.26
-1.31
-1.14
-0.85
-0.58
-0.48
-0.58
-0.75
-0.80
-0.58
-0.07
0.58
1.12
1.36
1.22
0.79
0.27
-0.19
-0.48
-0.62
-0.67
-0.65
-0.55
-0.34
-0.04
0.30
0.56
0.64
0.52
0.25
-0.04
-0.25
-0.31
-0.23
-0.07
0.08
0.17
0.17
0.10
-0.02
-0.15
-0.27
-0.34
-0.32
-0.19
0.03
0.32
0.60
0.80
0.86
0.77
0.55
0.28
0.04
-0.09
-0.07
0.08
0.27
0.41
0.41
0.24
-0.03
-0.31
-0.47
-0.44
-0.25
0.04
0.32
0.50
0.54
0.42
0.20
-0.08
-0.35
-0.56
-0.67
-0.66
-0.56
-0.42
-0.29
-0.20
-0.14
-0.06
0.03
0.13
0.21
0.20
0.10
-0.09
-0.29
-0.45
-0.49
-0.43
-0.31
-0.18
-0.10
-0.07
-0.05
0.02
0.21
0.50
0.81
1.02
1.03
0.79
0.38
-0.07
-0.40
-0.54
-0.46
-0.28
-0.10
-0.05
-0.17
-0.43
-0.73
-0.96
-1.05
-0.97
-0.73
-0.40
-0.06
0.23
0.43
0.52
0.56
0.57
0.56
0.49
0.31
0.04
-0.28
-0.53
-0.62
-0.50
-0.21
0.12
0.38
0.50
0.46
0.32
0.20
0.19
0.34
0.62
0.90
1.03
0.92
0.53
-0.03
-0.60
-1.02
-1.16
-1.06
-0.78
-0.47
-0.21
-0.05
0.03
0.06
0.10
0.15
0.20
0.24
0.24
0.22
0.15
0.08
0.03
0.05
0.17
0.35
0.52
0.58
0.45
0.14
-0.24
-0.53
-0.63
-0.51
-0.27
-0.02
0.16
0.27
0.36
0.45
0.51
0.48
0.31
0.02
-0.30
-0.58
-0.73
-0.76
-0.68
-0.51
-0.30
-0.09
0.09
0.19
0.20
0.13
0.05
0.03
0.12
0.30
0.49
0.59
0.50
0.23
-0.14
-0.46
-0.61
-0.53
-0.27
0.03
0.25
0.34
0.29
0.18
0.05
-0.10
-0.27
-0.46
-0.60
-0.63
-0.48
-0.19
0.16
0.44
0.58
0.55
0.43
0.32
0.28
0.31
0.35
0.33
0.24
0.11
0.03
0.07
0.24
0.45
0.60
0.57
0.32
-0.06
-0.43
-0.65
-0.67
-0.51
-0.28
-0.08
0.04
0.09
0.14
0.26
0.46
0.67
0.83
0.86
0.74
0.49
0.20
-0.05
-0.24
-0.34
-0.40
-0.45
-0.49
-0.51
-0.50
-0.47
-0.41
-0.33
-0.24
-0.13
-0.02
0.04
0.03
-0.07
-0.24
-0.38
-0.44
-0.37
-0.19
0.02
0.19
0.26
0.23
0.11
-0.04
-0.17
-0.21
-0.15
-0.02
0.11
0.15
0.04
-0.15
-0.34
-0.40
-0.28
-0.04
0.23
0.41
0.45
0.38
0.26
0.17
0.13
0.10
0.03
-0.11
-0.30
-0.49
-0.58
-0.51
-0.28
0.02
0.28
0.39
0.35
0.21
0.06
-0.03
-0.04
-0.01
0.02
0.02
-0.03
-0.09
-0.15
-0.20
-0.23
-0.21
-0.15
-0.01
0.19
0.44
0.70
0.89
0.98
0.93
0.77
0.53
0.26
0.02
-0.20
-0.38
-0.51
-0.55
-0.46
-0.20
0.20
0.61
0.90
0.95
0.75
0.39
0.01
-0.29
-0.45
-0.53
-0.62
-0.75
-0.88
-0.92
-0.78
-0.48
-0.09
0.25
0.45
0.48
0.37
0.22
0.08
0.00
-0.03
-0.03
-0.04
-0.06
-0.09
-0.13
-0.18
-0.23
-0.26
-0.29
-0.30
-0.30
-0.25
-0.16
-0.04
0.08
0.16
0.16
0.09
-0.03
-0.15
-0.24
-0.29
-0.30
-0.30
-0.29
-0.26
-0.17
0.01
0.25
0.52
0.71
0.71
0.45
-0.04
-0.61
-1.06
-1.19
-0.94
-0.41
0.20
0.69
0.93
0.96
0.87
0.76
0.63
0.42
0.10
-0.32
-0.66
-0.77
-0.53
-0.01
0.61
1.10
1.31
1.23
0.95
0.58
0.16
-0.27
-0.70
-1.05
-1.20
-1.08
-0.67
-0.10
0.42
0.71
0.67
0.37
-0.04
-0.40
-0.62
-0.71
-0.73
-0.76
-0.81
-0.83
-0.75
-0.52
-0.17
0.25
0.63
0.88
0.96
0.84
0.57
0.20
-0.18
-0.46
-0.59
-0.56
-0.41
-0.22
-0.08
0.00
0.02
0.00
-0.04
-0.08
-0.13
-0.14
-0.10
0.05
0.29
0.62
0.97
1.30
1.58
1.77
1.82
1.70
1.41
0.96
0.42
-0.12
-0.59
-0.95
-1.16
-1.20
-1.05
-0.72
-0.25
0.25
0.65
0.78
0.56
0.04
-0.67
-1.36
-1.83
-1.97
-1.77
-1.33
-0.82
-0.43
-0.25
-0.27
-0.41
-0.55
-0.56
-0.41
-0.12
0.24
0.60
0.90
1.10
1.18
1.12
0.93
0.60
0.20
-0.20
-0.49
-0.58
-0.46
-0.18
0.11
0.27
0.23
0.02
-0.27
-0.48
-0.53
-0.39
-0.12
0.20
0.52
0.80
0.99
1.04
0.94
0.71
0.40
0.12
-0.06
-0.12
-0.10
-0.05
-0.02
-0.02
-0.05
-0.09
-0.16
-0.23
-0.30
-0.29
-0.21
-0.06
0.08
0.15
0.13
0.10
0.12
0.27
0.51
0.77
0.91
0.89
0.70
0.41
0.07
-0.28
-0.63
-0.95
-1.16
-1.18
-0.97
-0.56
-0.12
0.18
0.23
0.03
-0.29
-0.54
-0.60
-0.48
-0.24
0.01
0.19
0.30
0.39
0.47
0.53
0.54
0.46
0.33
0.21
0.17
0.21
0.29
0.32
0.24
0.07
-0.12
-0.22
-0.17
-0.01
0.16
0.21
0.08
-0.21
-0.53
-0.78
-0.85
-0.74
-0.51
-0.23
0.00
0.15
0.21
0.22
0.24
0.28
0.35
0.40
0.42
0.38
0.33
0.30
0.28
0.23
0.08
-0.20
-0.57
-0.91
-1.06
-0.94
-0.57
-0.08
0.33
0.54
0.54
0.42
0.30
0.28
0.35
0.45
0.47
0.38
0.24
0.15
0.19
0.38
0.62
0.76
0.70
0.39
-0.07
-0.50
-0.75
-0.73
-0.48
-0.15
0.07
0.08
-0.12
-0.40
-0.59
-0.59
-0.41
-0.16
0.00
-0.02
-0.22
-0.49
-0.70
-0.76
-0.66
-0.49
-0.33
-0.24
-0.25
-0.27
-0.22
-0.06
0.21
0.51
0.72
0.78
0.66
0.41
0.13
-0.09
-0.18
-0.18
-0.15
-0.15
-0.20
-0.29
-0.34
-0.29
-0.12
0.15
0.42
0.58
0.56
0.38
0.10
-0.15
-0.28
-0.25
-0.14
-0.03
-0.01
-0.14
-0.37
-0.58
-0.68
-0.59
-0.33
0.00
0.28
0.39
0.32
0.12
-0.11
-0.26
-0.27
-0.17
0.01
0.20
0.36
0.46
0.47
0.39
0.22
0.02
-0.15
-0.19
-0.07
0.17
0.42
0.56
0.50
0.29
0.05
-0.09
-0.07
0.10
0.30
0.44
0.42
0.26
-0.01
-0.29
-0.51
-0.62
-0.59
-0.41
-0.13
0.21
0.53
0.78
0.90
0.90
0.77
0.55
0.28
0.01
-0.18
-0.26
-0.20
-0.05
0.09
0.10
-0.07
-0.39
-0.71
-0.87
-0.78
-0.45
-0.04
0.26
0.32
0.17
-0.07
-0.24
-0.23
-0.07
0.14
0.28
0.28
0.19
0.08
-0.01
-0.05
-0.09
-0.15
-0.26
-0.38
-0.43
-0.36
-0.16
0.13
0.45
0.71
0.87
0.88
0.76
0.58
0.39
0.25
0.18
0.15
0.11
0.03
-0.09
-0.20
-0.25
-0.19
-0.02
0.19
0.37
0.45
0.42
0.31
0.18
0.06
-0.05
-0.16
-0.26
-0.32
-0.29
-0.16
0.01
0.13
0.08
-0.15
-0.46
-0.71
-0.77
-0.60
-0.27
0.07
0.31
0.39
0.31
0.09
-0.23
-0.64
-1.10
-1.53
-1.80
-1.79
-1.44
-0.82
-0.09
0.54
0.91
0.97
0.76
0.42
0.06
-0.24
-0.42
-0.49
-0.42
-0.24
0.02
0.31
0.59
0.82
0.99
1.10
1.13
1.07
0.86
0.52
0.10
-0.32
-0.60
-0.67
-0.53
-0.24
0.07
0.31
0.42
0.42
0.39
0.38
0.40
0.42
0.37
0.24
0.04
-0.17
-0.32
-0.42
-0.46
-0.48
-0.49
-0.47
-0.40
-0.26
-0.11
0.03
0.10
0.12
0.10
0.08
0.10
0.13
0.16
0.16
0.12
0.05
-0.00
0.00
0.08
0.24
0.41
0.51
0.45
0.21
-0.20
-0.66
-1.04
-1.20
-1.10
-0.79
-0.37
0.00
0.26
0.39
0.44
0.47
0.51
0.56
0.56
0.50
0.36
0.16
-0.06
-0.30
-0.55
-0.80
-1.01
-1.12
-1.06
-0.79
-0.36
0.16
0.62
0.90
0.95
0.79
0.52
0.28
0.17
0.18
0.25
0.30
0.26
0.14
-0.01
-0.12
-0.17
-0.16
-0.11
-0.04
0.06
0.18
0.26
0.26
0.12
-0.16
-0.49
-0.78
-0.93
-0.92
-0.76
-0.52
-0.28
-0.05
0.15
0.32
0.42
0.43
0.34
0.17
-0.01
-0.14
-0.15
-0.05
0.10
0.23
0.29
0.28
0.24
0.24
0.28
0.34
0.34
0.23
0.00
-0.27
-0.49
-0.55
-0.39
-0.04
0.42
0.86
1.13
1.14
0.85
0.36
-0.14
-0.47
-0.50
-0.28
0.03
0.24
0.23
-0.00
-0.31
-0.58
-0.71
-0.69
-0.57
-0.38
-0.16
0.09
0.35
0.57
0.68
0.61
0.37
-0.01
-0.40
-0.71
-0.84
-0.78
-0.55
-0.23
0.08
0.29
0.35
0.26
0.05
-0.20
-0.40
-0.48
-0.37
-0.08
0.34
0.77
1.08
1.19
1.05
0.75
0.39
0.07
-0.14
-0.25
-0.32
-0.40
-0.50
-0.61
-0.65
-0.56
-0.33
-0.02
0.26
0.41
0.41
0.30
0.19
0.16
0.24
0.36
0.43
0.41
0.33
0.30
0.41
0.67
0.98
1.15
1.04
0.62
-0.01
-0.66
-1.10
-1.23
-1.09
-0.78
-0.47
-0.26
-0.14
-0.09
-0.04
0.02
0.05
-0.02
-0.20
-0.45
-0.65
-0.71
-0.58
-0.34
-0.07
0.10
0.13
0.03
-0.16
-0.36
-0.54
-0.63
-0.62
-0.47
-0.19
0.15
0.47
0.63
0.57
0.31
-0.05
-0.36
-0.46
-0.31
0.04
0.45
0.77
0.89
0.80
0.60
0.40
0.27
0.24
0.28
0.35
0.42
0.48
0.48
0.36
0.07
-0.35
-0.77
-1.01
-0.94
-0.55
-0.03
0.42
0.59
0.47
0.16
-0.15
-0.33
-0.34
-0.27
-0.22
-0.25
-0.33
-0.41
-0.38
-0.26
-0.07
0.08
0.12
0.02
-0.18
-0.38
-0.52
-0.54
-0.48
-0.38
-0.33
-0.35
-0.42
-0.48
-0.51
-0.47
-0.37
-0.24
-0.12
-0.03
0.04
0.12
0.25
0.46
0.70
0.93
1.06
1.05
0.91
0.74
0.65
0.71
0.90
1.11
1.21
1.10
0.81
0.47
0.24
0.21
0.37
0.58
0.66
0.51
0.16
-0.26
-0.58
-0.68
-0.59
-0.43
-0.33
-0.37
-0.50
-0.62
-0.66
-0.59
-0.46
-0.36
-0.36
-0.46
-0.62
-0.73
-0.71
-0.54
-0.26
0.03
0.21
0.26
0.21
0.17
0.21
0.36
0.55
0.66
0.61
0.37
0.03
-0.27
-0.42
-0.37
-0.16
0.07
0.21
0.16
-0.06
-0.36
-0.56
-0.52
-0.23
0.22
0.58
0.67
0.41
-0.07
-0.54
-0.77
-0.66
-0.33
0.05
0.32
0.43
0.47
0.50
0.55
0.54
0.37
-0.01
-0.53
-1.07
-1.45
-1.58
-1.43
-1.09
-0.69
-0.34
-0.11
0.01
0.03
0.06
0.15
0.35
0.62
0.86
0.99
0.95
0.80
0.62
0.52
0.53
0.62
0.68
0.63
0.43
0.14
-0.17
-0.41
-0.55
-0.58
-0.53
-0.45
-0.35
-0.28
-0.25
-0.30
-0.42
-0.58
-0.70
-0.71
-0.55
-0.22
0.20
0.62
0.89
0.94
0.76
0.48
0.24
0.19
0.33
0.58
0.75
0.69
0.39
-0.04
-0.41
-0.60
-0.61
-0.55
-0.54
-0.61
-0.69
-0.63
-0.37
0.02
0.38
0.54
0.43
0.14
-0.18
-0.36
-0.35
-0.20
-0.01
0.12
0.20
0.24
0.32
0.45
0.60
0.70
0.70
0.57
0.36
0.14
-0.03
-0.12
-0.14
-0.13
-0.13
-0.12
-0.11
-0.07
0.01
0.10
0.16
0.17
0.09
-0.05
-0.23
-0.39
-0.46
-0.39
-0.19
0.10
0.36
0.50
0.47
0.27
-0.00
-0.23
-0.33
-0.28
-0.14
0.01
0.07
-0.01
-0.22
-0.48
-0.70
-0.79
-0.73
-0.54
-0.29
-0.06
0.12
0.26
0.40
0.54
0.64
0.60
0.36
-0.10
-0.64
-1.06
-1.17
-0.90
-0.31
0.35
0.85
1.01
0.83
0.43
-0.01
-0.34
-0.46
-0.39
-0.21
-0.02
0.10
0.14
0.14
0.18
0.31
0.52
0.74
0.86
0.80
0.57
0.24
-0.09
-0.34
-0.49
-0.55
-0.56
-0.55
-0.53
-0.51
-0.51
-0.52
-0.52
-0.45
-0.26
0.06
0.48
0.90
1.17
1.20
0.98
0.56
0.09
-0.28
-0.42
-0.35
-0.14
0.05
0.13
0.06
-0.05
-0.10
0.00
0.22
0.47
0.61
0.57
0.38
0.15
0.00
0.00
0.13
0.29
0.39
0.33
0.12
-0.19
-0.50
-0.72
-0.80
-0.73
-0.57
-0.36
-0.14
0.07
0.30
0.55
0.77
0.90
0.88
0.68
0.36
0.01
-0.26
-0.40
-0.45
-0.48
-0.54
-0.63
-0.67
-0.62
-0.43
-0.20
-0.06
-0.12
-0.40
-0.77
-1.10
-1.22
-1.12
-0.88
-0.61
-0.40
-0.26
-0.17
-0.06
0.07
0.23
0.42
0.65
0.93
1.26
1.55
1.69
1.61
1.29
0.81
0.32
-0.07
-0.31
-0.42
-0.47
-0.53
-0.63
-0.72
-0.76
-0.69
-0.49
-0.21
0.04
0.14
0.04
-0.23
-0.55
-0.77
-0.77
-0.54
-0.16
0.23
0.49
0.56
0.45
0.28
0.15
0.15
0.30
0.55
0.80
0.94
0.92
0.75
0.49
0.22
-0.01
-0.16
-0.24
-0.24
-0.20
-0.12
-0.03
0.05
0.10
0.11
0.11
0.11
0.14
0.17
0.19
0.17
0.09
-0.03
-0.16
-0.27
-0.36
-0.43
-0.50
-0.57
-0.65
-0.70
-0.68
-0.58
-0.39
-0.13
0.13
0.35
0.50
0.55
0.54
0.51
0.48
0.47
0.46
0.39
0.21
-0.09
-0.43
-0.71
-0.82
-0.70
-0.39
-0.02
0.27
0.38
0.32
0.14
-0.06
-0.19
-0.22
-0.18
-0.12
-0.06
-0.03
-0.05
-0.09
-0.16
-0.22
-0.26
-0.29
-0.34
-0.41
-0.53
-0.62
-0.65
-0.54
-0.30
0.04
0.39
0.63
0.70
0.58
0.31
0.00
-0.21
-0.24
-0.09
0.18
0.45
0.62
0.67
0.65
0.63
0.65
0.67
0.63
0.48
0.23
-0.03
-0.20
-0.20
-0.06
0.11
0.22
0.20
0.05
-0.17
-0.38
-0.48
-0.42
-0.16
0.26
0.72
1.06
1.09
0.77
0.14
-0.60
-1.21
-1.50
-1.44
-1.11
-0.70
-0.36
-0.16
-0.09
-0.07
-0.05
-0.02
-0.01
-0.02
-0.04
-0.02
0.09
0.27
0.47
0.61
0.66
0.62
0.56
0.51
0.45
0.33
0.11
-0.22
-0.58
-0.86
-0.96
-0.83
-0.48
-0.02
0.44
0.79
0.97
0.96
0.80
0.58
0.35
0.15
-0.04
-0.25
-0.49
-0.71
-0.84
-0.79
-0.54
-0.18
0.18
0.41
0.47
0.40
0.29
0.22
0.18
0.10
-0.09
-0.39
-0.72
-0.95
-0.97
-0.78
-0.46
-0.19
-0.05
-0.08
-0.18
-0.22
-0.13
0.07
0.25
0.31
0.24
0.08
-0.04
-0.04
0.12
0.37
0.61
0.77
0.82
0.77
0.63
0.43
0.20
-0.02
-0.17
-0.22
-0.15
-0.01
0.12
0.21
0.21
0.16
0.07
-0.05
-0.19
-0.35
-0.52
-0.62
-0.61
-0.46
-0.22
0.05
0.25
0.36
0.37
0.31
0.23
0.16
0.11
0.11
0.14
0.22
0.30
0.36
0.36
0.32
0.26
0.21
0.18
0.17
0.16
0.13
0.10
0.04
-0.02
-0.11
-0.24
-0.38
-0.49
-0.52
-0.44
-0.25
-0.00
0.22
0.35
0.37
0.32
0.26
0.27
0.34
0.38
0.28
-0.05
-0.58
-1.13
-1.46
-1.41
-0.96
-0.29
0.36
0.78
0.87
0.68
0.33
-0.06
-0.40
-0.64
-0.76
-0.75
-0.57
-0.24
0.19
0.59
0.87
0.94
0.82
0.57
0.30
0.06
-0.12
-0.24
-0.28
-0.23
-0.08
0.13
0.31
0.37
0.22
-0.13
-0.60
-1.03
-1.28
-1.28
-1.02
-0.60
-0.12
0.30
0.55
0.61
0.48
0.23
-0.04
-0.23
-0.31
-0.28
-0.21
-0.16
-0.15
-0.17
-0.19
-0.18
-0.14
-0.10
-0.08
-0.13
-0.21
-0.30
-0.35
-0.34
-0.28
-0.18
-0.10
-0.06
-0.06
-0.08
-0.10
-0.06
0.04
0.22
0.44
0.65
0.79
0.82
0.71
0.51
0.29
0.14
0.12
0.21
0.37
0.52
0.61
0.64
0.67
0.75
0.87
0.95
0.88
0.60
0.13
-0.38
-0.73
-0.80
-0.54
-0.08
0.39
0.69
0.76
0.59
0.29
-0.02
-0.26
-0.38
-0.38
-0.26
-0.05
0.22
0.48
0.67
0.73
0.62
0.33
-0.08
-0.55
-0.97
-1.24
-1.29
-1.13
-0.82
-0.44
-0.07
0.21
0.37
0.39
0.25
-0.00
-0.29
-0.50
-0.52
-0.32
0.04
0.39
0.59
0.52
0.20
-0.24
-0.65
-0.89
-0.89
-0.67
-0.31
0.11
0.47
0.68
0.70
0.54
0.30
0.06
-0.11
-0.19
-0.23
-0.27
-0.34
-0.42
-0.44
-0.39
-0.27
-0.13
-0.01
0.06
0.10
0.13
0.16
0.17
0.16
0.11
0.07
0.07
0.17
0.37
0.63
0.87
1.02
1.01
0.85
0.59
0.31
0.06
-0.13
-0.27
-0.37
-0.40
-0.36
-0.26
-0.12
-0.04
-0.07
-0.23
-0.49
-0.76
-0.94
-0.99
-0.89
-0.69
-0.46
-0.28
-0.19
-0.21
-0.27
-0.31
-0.27
-0.16
-0.04
-0.00
-0.09
-0.26
-0.39
-0.38
-0.21
0.09
0.40
0.62
0.71
0.67
0.53
0.33
0.10
-0.12
-0.27
-0.30
-0.18
0.06
0.34
0.57
0.67
0.62
0.44
0.23
0.05
-0.04
-0.01
0.10
0.26
0.41
0.49
0.47
0.34
0.12
-0.16
-0.46
-0.71
-0.86
-0.87
-0.74
-0.51
-0.26
-0.04
0.11
0.19
0.24
0.29
0.39
0.54
0.70
0.82
0.84
0.72
0.45
0.07
-0.36
-0.77
-1.08
-1.24
-1.26
-1.15
-0.96
-0.70
-0.43
-0.19
-0.02
0.05
0.05
0.06
0.13
0.32
0.60
0.86
1.02
1.01
0.85
0.62
0.42
0.30
0.28
0.33
0.39
0.45
0.48
0.47
0.41
0.32
0.25
0.25
0.35
0.52
0.71
0.86
0.93
0.91
0.79
0.54
0.16
-0.33
-0.88
-1.35
-1.61
-1.61
-1.36
-0.97
-0.59
-0.32
-0.18
-0.14
-0.14
-0.14
-0.14
-0.17
-0.24
-0.34
-0.42
-0.46
-0.43
-0.37
-0.30
-0.23
-0.14
0.00
0.21
0.45
0.66
0.77
0.73
0.58
0.37
0.19
0.11
0.14
0.24
0.34
0.35
0.23
-0.02
-0.37
-0.74
-1.02
-1.11
-0.97
-0.61
-0.13
0.29
0.54
0.58
0.42
0.19
-0.03
-0.19
-0.29
-0.33
-0.32
-0.25
-0.10
0.07
0.20
0.21
0.08
-0.14
-0.38
-0.56
-0.63
-0.62
-0.56
-0.45
-0.29
-0.02
0.33
0.70
0.97
1.03
0.81
0.39
-0.09
-0.44
-0.53
-0.33
0.05
0.48
0.80
0.94
0.93
0.83
0.73
0.68
0.66
0.61
0.48
0.25
-0.04
-0.31
-0.46
-0.43
-0.23
0.08
0.35
0.49
0.43
0.21
-0.08
-0.35
-0.51
-0.58
-0.57
-0.53
-0.48
-0.39
-0.25
-0.06
0.12
0.21
0.18
0.01
-0.24
-0.46
-0.59
-0.59
-0.50
-0.38
-0.28
-0.26
-0.32
-0.45
-0.59
-0.68
-0.66
-0.49
-0.21
0.16
0.52
0.80
0.94
0.93
0.79
0.58
0.38
0.24
0.17
0.13
0.09
0.01
-0.11
-0.24
-0.40
-0.55
-0.68
-0.74
-0.66
-0.40
0.05
0.56
1.01
1.24
1.20
0.92
0.55
0.23
0.06
0.05
0.16
0.30
0.36
0.29
0.07
-0.26
-0.62
-0.90
-1.03
-0.98
-0.79
-0.53
-0.30
-0.14
-0.08
-0.09
-0.16
-0.26
-0.36
-0.41
-0.38
-0.19
0.12
0.48
0.73
0.75
0.48
0.04
-0.36
-0.53
-0.36
0.05
0.51
0.80
0.78
0.51
0.14
-0.17
-0.31
-0.27
-0.15
-0.01
0.08
0.15
0.24
0.38
0.56
0.72
0.79
0.70
0.44
0.03
-0.43
-0.83
-1.09
-1.16
-1.06
-0.81
-0.46
-0.07
0.33
0.63
0.78
0.74
0.53
0.24
-0.01
-0.15
-0.14
-0.03
0.10
0.18
0.17
0.10
0.05
0.07
0.19
0.35
0.46
0.43
0.22
-0.11
-0.46
-0.71
-0.77
-0.67
-0.47
-0.27
-0.15
-0.11
-0.14
-0.20
-0.27
-0.35
-0.42
-0.49
-0.54
-0.55
-0.47
-0.30
-0.03
0.31
0.65
0.89
0.98
0.90
0.72
0.50
0.33
0.24
0.22
0.26
0.32
0.35
0.32
0.22
0.06
-0.12
-0.23
-0.22
-0.05
0.21
0.45
0.57
0.51
0.29
0.02
-0.18
-0.27
-0.23
-0.15
-0.08
-0.08
-0.15
-0.25
-0.32
-0.32
-0.24
-0.13
-0.03
-0.02
-0.13
-0.34
-0.60
-0.80
-0.87
-0.78
-0.56
-0.29
-0.03
0.18
0.33
0.47
0.60
0.71
0.77
0.76
0.71
0.64
0.62
0.63
0.61
0.48
0.18
-0.28
-0.80
-1.24
-1.48
-1.44
-1.14
-0.66
-0.10
0.41
0.80
0.99
0.96
0.74
0.39
0.06
-0.16
-0.19
-0.05
0.17
0.34
0.37
0.19
-0.16
-0.58
-0.93
-1.09
-1.00
-0.71
-0.32
0.03
0.25
0.30
0.23
0.13
0.08
0.12
0.25
0.38
0.43
0.33
0.08
-0.23
-0.49
-0.59
-0.49
-0.26
0.01
0.21
0.29
0.28
0.21
0.12
0.05
0.01
0.01
0.07
0.16
0.24
0.26
0.22
0.14
0.10
0.16
0.31
0.46
0.49
0.33
0.01
-0.31
-0.52
-0.52
-0.40
-0.29
-0.30
-0.43
-0.57
-0.58
-0.38
-0.02
0.35
0.56
0.55
0.39
0.23
0.21
0.38
0.65
0.86
0.88
0.67
0.30
-0.08
-0.34
-0.37
-0.21
0.05
0.29
0.41
0.40
0.28
0.12
-0.01
-0.11
-0.21
-0.34
-0.53
-0.77
-0.97
-1.05
-0.97
-0.71
-0.33
0.06
0.35
0.45
0.35
0.10
-0.16
-0.30
-0.24
-0.00
0.32
0.62
0.79
0.80
0.67
0.46
0.22
-0.02
-0.30
-0.61
-0.91
-1.11
-1.16
-1.00
-0.69
-0.37
-0.17
-0.17
-0.35
-0.63
-0.88
-1.01
-0.97
-0.77
-0.45
-0.04
0.42
0.84
1.10
1.12
0.88
0.47
0.07
-0.17
-0.17
0.06
0.39
0.71
0.93
1.05
1.08
1.07
1.01
0.90
0.73
0.53
0.37
0.31
0.38
0.53
0.64
0.62
0.40
0.05
-0.31
-0.58
-0.71
-0.76
-0.82
-0.94
-1.08
-1.12
-0.95
-0.58
-0.10
0.28
0.41
0.27
-0.04
-0.32
-0.43
-0.33
-0.11
0.11
0.22
0.18
0.03
-0.12
-0.20
-0.16
-0.03
0.15
0.32
0.41
0.37
0.22
-0.00
-0.20
-0.31
-0.27
-0.12
0.11
0.34
0.53
0.63
0.60
0.44
0.15
-0.20
-0.52
-0.70
-0.66
-0.41
-0.04
0.34
0.61
0.70
0.63
0.45
0.24
0.08
0.02
0.09
0.26
0.49
0.69
0.77
0.68
0.41
0.03
-0.34
-0.58
-0.61
-0.42
-0.08
0.31
0.62
0.77
0.70
0.43
0.02
-0.41
-0.75
-0.91
-0.88
-0.71
-0.50
-0.34
-0.28
-0.35
-0.51
-0.75
-1.02
-1.28
-1.46
-1.52
-1.42
-1.19
-0.87
-0.51
-0.16
0.15
0.42
0.66
0.85
0.96
0.96
0.85
0.66
0.46
0.32
0.26
0.29
0.36
0.41
0.40
0.28
0.10
-0.08
-0.21
-0.24
-0.18
-0.06
0.07
0.17
0.21
0.17
0.09
-0.01
-0.05
-0.01
0.11
0.25
0.34
0.31
0.16
-0.09
-0.35
-0.57
-0.70
-0.76
-0.74
-0.66
-0.49
-0.23
0.11
0.47
0.76
0.88
0.82
0.61
0.35
0.15
0.11
0.24
0.46
0.67
0.73
0.59
0.27
-0.16
-0.56
-0.81
-0.83
-0.62
-0.24
0.19
0.53
0.71
0.67
0.46
0.16
-0.15
-0.37
-0.45
-0.38
-0.20
0.02
0.19
0.26
0.23
0.14
0.05
0.01
0.01
0.03
0.03
-0.00
-0.05
-0.08
-0.05
0.06
0.28
0.54
0.78
0.88
0.76
0.40
-0.13
-0.68
-1.11
-1.32
-1.29
-1.09
-0.80
-0.51
-0.24
-0.03
0.12
0.19
0.15
0.04
-0.09
-0.17
-0.15
-0.01
0.17
0.32
0.37
0.33
0.24
0.18
0.20
0.27
0.35
0.38
0.35
0.30
0.31
0.38
0.51
0.61
0.60
0.42
0.09
-0.33
-0.74
-1.01
-1.09
-0.96
-0.69
-0.40
-0.18
-0.08
-0.06
-0.04
0.00
0.07
0.08
0.02
-0.08
-0.12
0.01
0.32
0.71
0.97
0.99
0.77
0.43
0.17
0.08
0.16
0.30
0.38
0.33
0.14
-0.14
-0.47
-0.80
-1.11
-1.31
-1.32
-1.08
-0.61
-0.04
0.47
0.74
0.70
0.38
-0.07
-0.50
-0.76
-0.80
-0.65
-0.41
-0.21
-0.13
-0.19
-0.32
-0.41
-0.39
-0.24
-0.02
0.16
0.24
0.23
0.18
0.20
0.35
0.60
0.87
1.06
1.11
1.00
0.74
0.39
0.00
-0.36
-0.60
-0.66
-0.51
-0.19
0.17
0.44
0.51
0.35
0.05
-0.27
-0.47
-0.52
-0.43
-0.29
-0.15
-0.02
0.11
0.26
0.39
0.44
0.37
0.22
0.08
0.04
0.16
0.38
0.61
0.74
0.73
0.61
0.42
0.21
-0.02
-0.25
-0.47
-0.65
-0.76
-0.78
-0.69
-0.52
-0.27
0.03
0.33
0.53
0.53
0.30
-0.10
-0.51
-0.75
-0.72
-0.43
-0.02
0.31
0.49
0.50
0.43
0.34
0.26
0.14
-0.05
-0.31
-0.55
-0.67
-0.61
-0.41
-0.15
0.08
0.22
0.28
0.28
0.24
0.14
-0.02
-0.19
-0.30
-0.26
-0.06
0.28
0.65
0.94
1.04
0.92
0.61
0.20
-0.20
-0.49
-0.59
-0.52
-0.32
-0.08
0.11
0.21
0.19
0.04
-0.18
-0.41
-0.57
-0.60
-0.50
-0.34
-0.20
-0.15
-0.21
-0.30
-0.34
-0.27
-0.11
0.06
0.17
0.18
0.13
0.09
0.12
0.20
0.30
0.37
0.41
0.46
0.56
0.74
0.94
1.12
1.19
1.12
0.95
0.70
0.41
0.10
-0.23
-0.57
-0.92
-1.25
-1.52
-1.69
-1.70
-1.52
-1.16
-0.70
-0.26
-0.02
-0.06
-0.37
-0.82
-1.20
-1.33
-1.15
-0.67
-0.02
0.65
1.20
1.53
1.60
1.40
1.01
0.53
0.12
-0.10
-0.07
0.18
0.56
0.92
1.17
1.24
1.12
0.81
0.35
-0.18
-0.65
-0.92
-0.91
-0.62
-0.19
0.21
0.41
0.39
0.19
-0.05
-0.23
-0.29
-0.26
-0.23
-0.27
-0.43
-0.67
-0.91
-1.08
-1.10
-0.99
-0.77
-0.54
-0.35
-0.20
-0.04
0.21
0.60
1.09
1.56
1.83
1.80
1.44
0.90
0.37
0.03
-0.04
0.10
0.32
0.49
0.55
0.53
0.46
0.36
0.19
-0.10
-0.53
-1.03
-1.47
-1.74
-1.75
-1.53
-1.15
-0.72
-0.33
-0.01
0.20
0.32
0.35
0.35
0.35
0.40
0.51
0.66
0.77
0.76
0.60
0.29
-0.07
-0.36
-0.50
-0.45
-0.25
0.01
0.25
0.37
0.33
0.16
-0.09
-0.34
-0.52
-0.61
-0.62
-0.60
-0.59
-0.58
-0.54
-0.44
-0.24
0.02
0.28
0.45
0.49
0.41
0.26
0.15
0.14
0.24
0.35
0.39
0.27
-0.02
-0.37
-0.67
-0.80
-0.76
-0.62
-0.47
-0.38
-0.33
-0.29
-0.20
-0.09
0.03
0.12
0.19
0.26
0.36
0.49
0.61
0.68
0.64
0.51
0.31
0.11
0.01
0.04
0.21
0.44
0.63
0.69
0.59
0.38
0.14
-0.03
-0.09
-0.04
0.08
0.20
0.28
0.26
0.14
-0.06
-0.27
-0.47
-0.62
-0.72
-0.77
-0.76
-0.65
-0.42
-0.07
0.29
0.56
0.63
0.51
0.27
0.06
-0.01
0.07
0.23
0.33
0.26
0.00
-0.38
-0.74
-0.92
-0.81
-0.42
0.13
0.70
1.10
1.26
1.18
0.96
0.70
0.50
0.36
0.28
0.21
0.13
0.07
0.07
0.16
0.31
0.43
0.43
0.25
-0.07
-0.40
-0.62
-0.65
-0.54
-0.38
-0.31
-0.39
-0.58
-0.80
-0.95
-0.96
-0.82
-0.60
-0.34
-0.11
0.06
0.12
0.04
-0.17
-0.47
-0.76
-0.92
-0.85
-0.56
-0.16
0.21
0.36
0.25
-0.08
-0.47
-0.72
-0.70
-0.38
0.15
0.72
1.14
1.30
1.19
0.89
0.54
0.30
0.24
0.38
0.64
0.88
1.00
0.91
0.64
0.26
-0.12
-0.42
-0.58
-0.60
-0.51
-0.35
-0.17
0.00
0.11
0.11
-0.01
-0.21
-0.43
-0.54
-0.48
-0.27
-0.01
0.20
0.24
0.11
-0.14
-0.41
-0.61
-0.70
-0.63
-0.41
-0.09
0.24
0.49
0.55
0.39
0.07
-0.26
-0.46
-0.44
-0.23
0.07
0.32
0.48
0.56
0.61
0.70
0.80
0.83
0.68
0.33
-0.14
-0.57
-0.77
-0.69
-0.40
-0.08
0.08
-0.00
-0.25
-0.51
-0.63
-0.55
-0.34
-0.13
-0.02
-0.06
-0.18
-0.30
-0.31
-0.18
0.04
0.27
0.42
0.46
0.39
0.28
0.19
0.17
0.21
0.28
0.35
0.41
0.44
0.46
0.46
0.43
0.37
0.32
0.31
0.37
0.48
0.59
0.62
0.56
0.42
0.26
0.14
0.11
0.14
0.18
0.17
0.07
-0.07
-0.20
-0.27
-0.27
-0.23
-0.18
-0.17
-0.19
-0.20
-0.19
-0.19
-0.24
-0.38
-0.62
-0.86
-0.99
-0.92
-0.67
-0.34
-0.10
-0.02
-0.09
-0.21
-0.27
-0.19
-0.02
0.17
0.26
0.21
0.05
-0.15
-0.28
-0.30
-0.21
-0.08
0.04
0.12
0.15
0.14
0.14
0.15
0.18
0.20
0.19
0.14
0.01
-0.16
-0.35
-0.51
-0.59
-0.55
-0.43
-0.27
-0.14
-0.09
-0.09
-0.10
-0.09
-0.04
0.02
0.05
0.00
-0.09
-0.17
-0.15
-0.03
0.19
0.44
0.64
0.72
0.64
0.39
-0.01
-0.46
-0.88
-1.16
-1.22
-1.07
-0.78
-0.46
-0.20
-0.06
-0.03
-0.06
-0.09
-0.10
-0.06
0.06
0.29
0.62
0.99
1.29
1.41
1.30
0.98
0.58
0.27
0.13
0.19
0.37
0.59
0.77
0.86
0.85
0.74
0.53
0.23
-0.11
-0.44
-0.66
-0.72
-0.61
-0.34
-0.02
0.28
0.46
0.48
0.33
0.10
-0.12
-0.24
-0.22
-0.08
0.09
0.22
0.24
0.14
-0.08
-0.36
-0.64
-0.84
-0.92
-0.83
-0.60
-0.31
-0.07
0.05
-0.01
-0.21
-0.48
-0.72
-0.86
-0.88
-0.80
-0.65
-0.44
-0.16
0.17
0.52
0.82
0.96
0.88
0.60
0.20
-0.15
-0.32
-0.25
0.02
0.37
0.66
0.83
0.90
0.94
1.02
1.13
1.21
1.18
1.02
0.79
0.55
0.37
0.23
0.07
-0.13
-0.37
-0.56
-0.64
-0.60
-0.50
-0.42
-0.46
-0.60
-0.81
-1.01
-1.14
-1.18
-1.11
-0.93
-0.65
-0.33
-0.04
0.15
0.17
0.06
-0.11
-0.26
-0.32
-0.29
-0.20
-0.08
0.05
0.14
0.18
0.15
0.07
0.00
0.01
0.14
0.34
0.50
0.52
0.34
0.03
-0.25
-0.38
-0.31
-0.12
0.08
0.17
0.14
0.07
0.03
0.07
0.14
0.17
0.05
-0.20
-0.52
-0.76
-0.80
-0.59
-0.15
0.39
0.87
1.14
1.13
0.88
0.47
0.06
-0.24
-0.39
-0.38
-0.23
-0.01
0.23
0.42
0.53
0.51
0.40
0.23
0.06
-0.06
-0.16
-0.26
-0.40
-0.58
-0.74
-0.79
-0.67
-0.40
-0.05
0.27
0.47
0.55
0.53
0.48
0.41
0.32
0.17
-0.06
-0.34
-0.60
-0.74
-0.70
-0.47
-0.13
0.23
0.52
0.71
0.84
0.93
0.97
0.91
0.70
0.33
-0.14
-0.57
-0.82
-0.84
-0.68
-0.45
-0.25
-0.12
-0.06
-0.03
-0.03
-0.09
-0.22
-0.37
-0.45
-0.36
-0.07
0.37
0.78
1.00
0.93
0.60
0.14
-0.26
-0.47
-0.43
-0.20
0.07
0.26
0.30
0.17
-0.06
-0.31
-0.47
-0.52
-0.43
-0.26
-0.07
0.10
0.21
0.25
0.23
0.17
0.07
-0.04
-0.17
-0.26
-0.27
-0.18
0.01
0.24
0.39
0.38
0.17
-0.17
-0.50
-0.68
-0.63
-0.40
-0.10
0.12
0.22
0.22
0.19
0.17
0.18
0.14
0.02
-0.14
-0.28
-0.28
-0.12
0.14
0.36
0.43
0.34
0.13
-0.09
-0.25
-0.31
-0.33
-0.34
-0.34
-0.26
-0.05
0.32
0.77
1.13
1.26
1.06
0.57
-0.04
-0.56
-0.83
-0.80
-0.55
-0.23
0.03
0.13
0.08
-0.07
-0.25
-0.39
-0.44
-0.41
-0.31
-0.19
-0.06
0.07
0.21
0.36
0.50
0.60
0.60
0.49
0.29
0.05
-0.15
-0.26
-0.27
-0.22
-0.17
-0.12
-0.09
-0.04
0.04
0.13
0.17
0.13
-0.02
-0.24
-0.44
-0.54
-0.48
-0.26
0.06
0.39
0.65
0.78
0.74
0.59
0.38
0.14
-0.08
-0.27
-0.41
-0.46
-0.37
-0.16
0.09
0.28
0.33
0.23
0.09
0.01
0.06
0.20
0.29
0.24
0.02
-0.26
-0.46
-0.45
-0.22
0.16
0.54
0.79
0.85
0.71
0.42
0.06
-0.30
-0.58
-0.75
-0.78
-0.70
-0.55
-0.38
-0.25
-0.18
-0.19
-0.28
-0.44
-0.61
-0.73
-0.76
-0.67
-0.47
-0.18
0.13
0.46
0.73
0.92
0.96
0.85
0.65
0.46
0.38
0.44
0.62
0.80
0.91
0.90
0.77
0.55
0.28
-0.02
-0.34
-0.60
-0.73
-0.66
-0.38
0.02
0.40
0.61
0.57
0.29
-0.14
-0.54
-0.77
-0.74
-0.48
-0.10
0.22
0.36
0.25
-0.03
-0.34
-0.54
-0.58
-0.52
-0.45
-0.49
-0.61
-0.74
-0.75
-0.60
-0.33
-0.09
-0.01
-0.13
-0.34
-0.47
-0.40
-0.11
0.27
0.55
0.60
0.41
0.08
-0.22
-0.36
-0.35
-0.27
-0.22
-0.27
-0.42
-0.57
-0.61
-0.48
-0.17
0.23
0.59
0.80
0.82
0.68
0.48
0.31
0.23
0.23
0.27
0.28
0.26
0.23
0.21
0.23
0.25
0.24
0.16
0.02
-0.11
-0.18
-0.17
-0.11
-0.06
-0.07
-0.15
-0.25
-0.29
-0.23
-0.07
0.13
0.29
0.38
0.39
0.35
0.33
0.34
0.38
0.39
0.36
0.31
0.27
0.28
0.33
0.36
0.32
0.18
-0.04
-0.27
-0.47
-0.60
-0.67
-0.71
-0.71
-0.68
-0.60
-0.46
-0.31
-0.17
-0.09
-0.06
-0.06
-0.06
-0.05
-0.07
-0.16
-0.33
-0.53
-0.66
-0.62
-0.36
0.05
0.51
0.88
1.05
1.05
0.95
0.85
0.82
0.85
0.86
0.81
0.70
0.57
0.50
0.52
0.56
0.53
0.35
0.04
-0.31
-0.57
-0.66
-0.59
-0.47
-0.42
-0.47
-0.56
-0.59
-0.46
-0.17
0.19
0.50
0.64
0.55
0.26
-0.17
-0.64
-1.04
-1.33
-1.44
-1.39
-1.17
-0.82
-0.39
0.04
0.39
0.60
0.65
0.55
0.37
0.17
0.01
-0.08
-0.10
-0.05
0.06
0.22
0.37
0.49
0.51
0.39
0.15
-0.15
-0.42
-0.57
-0.55
-0.38
-0.13
0.12
0.30
0.35
0.29
0.14
-0.04
-0.16
-0.16
-0.04
0.16
0.37
0.50
0.49
0.38
0.22
0.08
0.01
-0.00
0.01
0.03
0.04
0.05
0.08
0.12
0.15
0.13
0.04
-0.11
-0.25
-0.35
-0.39
-0.38
-0.37
-0.35
-0.34
-0.31
-0.24
-0.15
-0.05
0.05
0.15
0.27
0.41
0.55
0.62
0.59
0.45
0.25
0.06
-0.07
-0.14
-0.20
-0.30
-0.42
-0.52
-0.51
-0.34
-0.01
0.41
0.80
1.06
1.13
0.96
0.63
0.20
-0.21
-0.50
-0.62
-0.60
-0.53
-0.49
-0.56
-0.72
-0.88
-0.93
-0.82
-0.54
-0.18
0.18
0.45
0.63
0.72
0.75
0.73
0.62
0.40
0.09
-0.21
-0.39
-0.37
-0.14
0.22
0.56
0.74
0.68
0.41
0.03
-0.34
-0.61
-0.74
-0.70
-0.54
-0.30
-0.01
0.29
0.54
0.69
0.71
0.59
0.37
0.11
-0.11
-0.25
-0.30
-0.31
-0.34
-0.42
-0.56
-0.71
-0.80
-0.77
-0.57
-0.25
0.08
0.29
0.26
0.01
-0.38
-0.76
-0.96
-0.93
-0.72
-0.42
-0.15
0.00
0.07
0.08
0.11
0.17
0.28
0.42
0.60
0.80
0.97
1.02
0.90
0.57
0.10
-0.40
-0.81
-1.01
-0.92
-0.56
-0.00
0.63
1.20
1.57
1.68
1.51
1.12
0.60
0.07
-0.36
-0.62
-0.66
-0.51
-0.23
0.05
0.23
0.24
0.07
-0.18
-0.40
-0.47
-0.34
-0.05
0.27
0.49
0.50
0.32
0.06
-0.14
-0.16
-0.00
0.24
0.42
0.46
0.34
0.15
0.01
-0.05
-0.06
-0.10
-0.21
-0.36
-0.46
-0.44
-0.28
-0.06
0.12
0.18
0.10
-0.07
-0.23
-0.31
-0.27
-0.15
-0.03
0.00
-0.08
-0.26
-0.47
-0.62
-0.62
-0.48
-0.23
0.05
0.28
0.43
0.51
0.55
0.54
0.47
0.32
0.12
-0.07
-0.17
-0.15
-0.06
0.02
-0.03
-0.21
-0.46
-0.61
-0.52
-0.16
0.39
0.89
1.14
1.04
0.63
0.10
-0.33
-0.52
-0.47
-0.28
-0.13
-0.12
-0.23
-0.38
-0.45
-0.35
-0.10
0.21
0.46
0.57
0.48
0.21
-0.18
-0.61
-1.00
-1.25
-1.30
-1.12
-0.76
-0.32
0.06
0.26
0.26
0.13
-0.02
-0.09
-0.03
0.11
0.26
0.35
0.35
0.29
0.22
0.18
0.21
0.27
0.34
0.36
0.31
0.22
0.14
0.15
0.29
0.52
0.73
0.82
0.71
0.45
0.15
-0.09
-0.20
-0.20
-0.12
-0.01
0.12
0.28
0.45
0.61
0.66
0.58
0.37
0.11
-0.10
-0.21
-0.24
-0.27
-0.35
-0.51
-0.66
-0.75
-0.71
-0.56
-0.32
-0.08
0.09
0.16
0.11
-0.05
-0.28
-0.47
-0.56
-0.51
-0.33
-0.10
0.09
0.14
0.03
-0.22
-0.53
-0.79
-0.89
-0.77
-0.42
0.08
0.60
0.99
1.17
1.14
0.98
0.79
0.67
0.63
0.65
0.68
0.66
0.53
0.27
-0.10
-0.51
-0.82
-0.90
-0.73
-0.36
0.02
0.23
0.17
-0.11
-0.48
-0.81
-1.00
-1.07
-1.10
-1.12
-1.12
-1.05
-0.90
-0.65
-0.39
-0.17
-0.04
0.02
0.06
0.11
0.19
0.28
0.37
0.44
0.51
0.57
0.64
0.71
0.79
0.87
0.98
1.08
1.13
1.11
0.99
0.78
0.53
0.28
0.07
-0.09
-0.20
-0.25
-0.26
-0.22
-0.19
-0.22
-0.35
-0.54
-0.66
-0.59
-0.28
0.20
0.67
0.95
0.95
0.73
0.44
0.23
0.17
0.20
0.21
0.12
-0.07
-0.29
-0.46
-0.58
-0.67
-0.81
-1.00
-1.17
-1.22
-1.03
-0.59
-0.01
0.50
0.77
0.68
0.29
-0.25
-0.74
-1.03
-1.04
-0.80
-0.37
0.16
0.71
1.19
1.50
1.57
1.36
0.91
0.37
-0.14
-0.49
-0.65
-0.63
-0.52
-0.37
-0.26
-0.22
-0.28
-0.40
-0.52
-0.53
-0.36
-0.04
0.34
0.63
0.70
0.53
0.19
-0.17
-0.44
-0.56
-0.52
-0.35
-0.11
0.15
0.39
0.55
0.60
0.52
0.37
0.20
0.07
0.02
-0.01
-0.05
-0.14
-0.26
-0.34
-0.31
-0.12
0.18
0.48
0.65
0.62
0.42
0.13
-0.15
-0.35
-0.45
-0.47
-0.42
-0.31
-0.12
0.10
0.29
0.35
0.22
-0.06
-0.40
-0.64
-0.70
-0.55
-0.28
0.01
0.24
0.40
0.52
0.66
0.84
1.02
1.14
1.13
0.97
0.70
0.39
0.12
-0.06
-0.15
-0.18
-0.21
-0.26
-0.37
-0.52
-0.68
-0.82
-0.90
-0.90
-0.83
-0.72
-0.59
-0.49
-0.43
-0.43
-0.47
-0.53
-0.57
-0.57
-0.49
-0.35
-0.20
-0.10
-0.10
-0.20
-0.32
-0.34
-0.20
0.05
0.29
0.36
0.22
-0.06
-0.30
-0.35
-0.15
0.19
0.50
0.63
0.57
0.40
0.28
0.29
0.44
0.61
0.67
0.57
0.34
0.07
-0.11
-0.13
0.06
0.38
0.77
1.09
1.26
1.22
0.99
0.64
0.28
-0.02
-0.21
-0.29
-0.27
-0.18
-0.08
0.02
0.07
0.06
-0.02
-0.15
-0.30
-0.41
-0.47
-0.49
-0.46
-0.39
-0.27
-0.11
0.05
0.16
0.17
0.06
-0.14
-0.41
-0.67
-0.85
-0.89
-0.77
-0.50
-0.16
0.15
0.34
0.37
0.25
0.05
-0.14
-0.28
-0.33
-0.30
-0.23
-0.14
-0.06
0.02
0.10
0.18
0.25
0.27
0.20
0.02
-0.20
-0.36
-0.37
-0.23
-0.02
0.08
-0.04
-0.36
-0.73
-0.92
-0.80
-0.36
0.21
0.69
0.92
0.89
0.74
0.62
0.59
0.62
0.62
0.54
0.42
0.36
0.43
0.65
0.93
1.14
1.16
0.96
0.61
0.19
-0.17
-0.42
-0.50
-0.42
-0.22
0.02
0.19
0.23
0.10
-0.13
-0.34
-0.42
-0.30
-0.02
0.30
0.53
0.54
0.32
-0.05
-0.42
-0.64
-0.61
-0.35
0.02
0.32
0.44
0.33
0.05
-0.23
-0.41
-0.42
-0.32
-0.20
-0.15
-0.16
-0.20
-0.21
-0.16
-0.10
-0.05
-0.04
-0.07
-0.10
-0.11
-0.12
-0.17
-0.31
-0.55
-0.86
-1.15
-1.31
-1.28
-1.04
-0.65
-0.21
0.16
0.36
0.38
0.28
0.17
0.14
0.24
0.38
0.48
0.47
0.37
0.25
0.19
0.20
0.25
0.23
0.09
-0.16
-0.41
-0.53
-0.45
-0.19
0.16
0.47
0.64
0.63
0.48
0.25
0.04
-0.04
0.05
0.28
0.54
0.71
0.67
0.42
0.04
-0.32
-0.54
-0.55
-0.42
-0.25
-0.15
-0.19
-0.33
-0.51
-0.61
-0.60
-0.46
-0.24
0.03
0.28
0.47
0.59
0.62
0.55
0.39
0.14
-0.15
-0.44
-0.64
-0.70
-0.59
-0.36
-0.08
0.12
0.15
-0.00
-0.26
-0.48
-0.57
-0.48
-0.25
0.04
0.32
0.55
0.75
0.88
0.90
0.76
0.42
-0.05
-0.52
-0.84
-0.88
-0.64
-0.23
0.24
0.63
0.88
0.98
0.94
0.78
0.53
0.23
-0.02
-0.14
-0.07
0.18
0.50
0.73
0.74
0.51
0.15
-0.20
-0.40
-0.42
-0.30
-0.16
-0.04
0.03
0.09
0.18
0.31
0.44
0.54
0.56
0.49
0.34
0.15
-0.06
-0.25
-0.41
-0.56
-0.71
-0.85
-0.94
-0.93
-0.78
-0.54
-0.27
-0.09
-0.06
-0.19
-0.41
-0.63
-0.78
-0.84
-0.77
-0.55
-0.20
0.23
0.65
0.92
0.96
0.79
0.48
0.18
-0.00
-0.07
-0.06
-0.04
-0.03
-0.00
0.10
0.26
0.41
0.42
0.23
-0.11
-0.45
-0.62
-0.50
-0.12
0.37
0.77
0.94
0.84
0.51
0.08
-0.33
-0.64
-0.77
-0.72
-0.51
-0.22
0.03
0.14
0.08
-0.11
-0.34
-0.48
-0.46
-0.28
-0.02
0.23
0.41
0.50
0.53
0.51
0.46
0.35
0.14
-0.16
-0.51
-0.80
-0.96
-0.92
-0.71
-0.39
-0.05
0.24
0.45
0.56
0.55
0.41
0.15
-0.16
-0.43
-0.53
-0.39
-0.05
0.38
0.73
0.87
0.78
0.52
0.21
-0.07
-0.26
-0.35
-0.34
-0.21
0.02
0.30
0.52
0.56
0.37
-0.00
-0.45
-0.80
-0.97
-0.96
-0.81
-0.59
-0.35
-0.09
0.17
0.41
0.57
0.61
0.50
0.28
0.02
-0.20
-0.29
-0.20
0.07
0.45
0.82
1.03
0.99
0.71
0.31
-0.04
-0.17
-0.05
0.20
0.40
0.40
0.17
-0.19
-0.52
-0.69
-0.68
-0.55
-0.38
-0.24
-0.17
-0.14
-0.15
-0.20
-0.26
-0.31
-0.29
-0.18
0.01
0.18
0.26
0.22
0.15
0.12
0.18
0.29
0.33
0.20
-0.10
-0.42
-0.59
-0.47
-0.08
0.40
0.77
0.85
0.63
0.25
-0.07
-0.17
-0.00
0.35
0.68
0.81
0.63
0.21
-0.31
-0.76
-0.99
-0.98
-0.81
-0.53
-0.23
0.11
0.48
0.85
1.15
1.25
1.09
0.68
0.14
-0.34
-0.61
-0.61
-0.40
-0.11
0.15
0.30
0.38
0.42
0.48
0.55
0.58
0.55
0.43
0.28
0.13
-0.00
-0.13
-0.29
-0.50
-0.73
-0.88
-0.88
-0.70
-0.42
-0.17
-0.11
-0.25
-0.52
-0.79
-0.89
-0.78
-0.51
-0.22
-0.04
-0.02
-0.16
-0.36
-0.52
-0.58
-0.51
-0.36
-0.18
-0.03
0.06
0.09
0.09
0.10
0.15
0.21
0.28
0.31
0.28
0.18
0.04
-0.12
-0.26
-0.34
-0.33
-0.23
-0.06
0.14
0.30
0.40
0.44
0.44
0.46
0.48
0.48
0.38
0.16
-0.16
-0.50
-0.75
-0.82
-0.69
-0.40
-0.04
0.31
0.61
0.82
0.91
0.85
0.62
0.26
-0.14
-0.44
-0.55
-0.44
-0.16
0.13
0.31
0.30
0.13
-0.13
-0.37
-0.53
-0.55
-0.43
-0.22
0.06
0.34
0.59
0.76
0.85
0.84
0.74
0.53
0.23
-0.11
-0.43
-0.65
-0.72
-0.63
-0.44
-0.24
-0.10
-0.05
-0.06
-0.01
0.16
0.47
0.82
1.07
1.08
0.82
0.38
-0.07
-0.36
-0.43
-0.32
-0.12
0.05
0.15
0.21
0.26
0.34
0.44
0.49
0.43
0.25
-0.06
-0.43
-0.76
-0.97
-1.03
-0.93
-0.73
-0.47
-0.20
0.02
0.18
0.24
0.22
0.13
0.02
-0.06
-0.06
-0.01
0.03
0.02
-0.09
-0.26
-0.44
-0.58
-0.63
-0.62
-0.55
-0.45
-0.31
-0.15
0.03
0.20
0.35
0.44
0.45
0.39
0.31
0.24
0.23
0.33
0.52
0.75
0.97
1.12
1.16
1.12
1.02
0.88
0.73
0.58
0.43
0.29
0.18
0.08
-0.01
-0.14
-0.31
-0.51
-0.70
-0.82
-0.85
-0.79
-0.70
-0.67
-0.70
-0.79
-0.87
-0.84
-0.68
-0.40
-0.09
0.17
0.29
0.29
0.23
0.18
0.18
0.21
0.19
0.06
-0.19
-0.49
-0.68
-0.64
-0.35
0.08
0.43
0.53
0.32
-0.08
-0.48
-0.70
-0.67
-0.43
-0.10
0.22
0.48
0.70
0.89
1.03
1.10
1.04
0.84
0.55
0.23
-0.04
-0.20
-0.22
-0.07
0.23
0.61
0.96
1.14
1.01
0.53
-0.23
-1.06
-1.68
-1.87
-1.55
-0.87
-0.12
0.39
0.46
0.12
-0.39
-0.79
-0.89
-0.67
-0.32
-0.06
-0.03
-0.22
-0.48
-0.62
-0.52
-0.24
0.10
0.30
0.27
0.05
-0.23
-0.39
-0.34
-0.07
0.31
0.66
0.88
0.93
0.83
0.65
0.48
0.35
0.29
0.28
0.28
0.25
0.14
-0.04
-0.27
-0.45
-0.51
-0.36
0.00
0.49
0.99
1.34
1.43
1.26
0.89
0.45
0.06
-0.22
-0.41
-0.54
-0.67
-0.79
-0.85
-0.82
-0.69
-0.51
-0.33
-0.21
-0.15
-0.12
-0.10
-0.07
-0.08
-0.17
-0.34
-0.53
-0.64
-0.56
-0.26
0.17
0.58
0.82
0.79
0.56
0.26
0.04
-0.03
0.02
0.07
0.05
-0.05
-0.14
-0.13
0.01
0.23
0.40
0.40
0.21
-0.14
-0.49
-0.77
-0.90
-0.94
-0.92
-0.88
-0.82
-0.71
-0.52
-0.24
0.06
0.32
0.45
0.42
0.23
-0.06
-0.36
-0.59
-0.68
-0.64
-0.48
-0.26
-0.04
0.14
0.26
0.32
0.36
0.41
0.46
0.49
0.48
0.43
0.37
0.34
0.39
0.51
0.65
0.73
0.68
0.45
0.11
-0.25
-0.51
-0.61
-0.57
-0.44
-0.32
-0.25
-0.23
-0.23
-0.18
-0.08
0.03
0.11
0.11
0.04
-0.03
-0.02
0.10
0.30
0.47
0.51
0.39
0.14
-0.12
-0.28
-0.27
-0.11
0.13
0.37
0.57
0.70
0.76
0.75
0.67
0.48
0.24
-0.01
-0.18
-0.21
-0.13
0.01
0.11
0.10
-0.01
-0.19
-0.35
-0.42
-0.41
-0.33
-0.25
-0.22
-0.24
-0.28
-0.27
-0.20
-0.08
0.02
0.05
0.00
-0.06
-0.07
0.05
0.28
0.56
0.82
0.99
1.07
1.06
0.93
0.68
0.30
-0.16
-0.61
-0.92
-1.04
-0.94
-0.70
-0.41
-0.14
0.06
0.18
0.26
0.31
0.35
0.38
0.36
0.28
0.10
-0.16
-0.46
-0.73
-0.91
-0.96
-0.87
-0.68
-0.45
-0.22
-0.05
0.04
0.06
0.05
0.06
0.15
0.33
0.54
0.68
0.67
0.48
0.18
-0.12
-0.28
-0.28
-0.15
-0.02
-0.00
-0.14
-0.40
-0.66
-0.81
-0.79
-0.59
-0.30
-0.02
0.16
0.17
0.01
-0.27
-0.57
-0.79
-0.82
-0.66
-0.35
0.03
0.37
0.58
0.66
0.65
0.62
0.60
0.61
0.61
0.58
0.49
0.40
0.33
0.32
0.37
0.47
0.56
0.61
0.61
0.57
0.52
0.46
0.41
0.35
0.24
0.08
-0.14
-0.36
-0.53
-0.60
-0.53
-0.34
-0.06
0.23
0.46
0.57
0.54
0.42
0.28
0.19
0.15
0.13
0.04
-0.15
-0.42
-0.66
-0.75
-0.62
-0.28
0.12
0.44
0.53
0.38
0.06
-0.33
-0.66
-0.85
-0.89
-0.79
-0.60
-0.37
-0.17
-0.05
-0.04
-0.16
-0.36
-0.55
-0.66
-0.63
-0.49
-0.29
-0.09
0.07
0.18
0.25
0.27
0.25
0.15
0.01
-0.14
-0.24
-0.26
-0.20
-0.12
-0.02
0.10
0.26
0.49
0.74
0.98
1.12
1.14
1.03
0.82
0.56
0.28
0.01
-0.21
-0.34
-0.34
-0.20
0.02
0.23
0.35
0.37
0.31
0.23
0.19
0.21
0.27
0.33
0.35
0.27
0.08
-0.22
-0.58
-0.93
-1.17
-1.25
-1.15
-0.90
-0.58
-0.26
0.02
0.23
0.35
0.37
0.30
0.14
-0.07
-0.26
-0.34
-0.28
-0.11
0.11
0.28
0.34
0.31
0.21
0.10
0.00
-0.07
-0.11
-0.11
-0.02
0.16
0.41
0.62
0.69
0.56
0.23
-0.20
-0.60
-0.83
-0.85
-0.67
-0.40
-0.13
0.07
0.18
0.22
0.23
0.23
0.22
0.18
0.11
-0.03
-0.22
-0.44
-0.64
-0.74
-0.71
-0.56
-0.36
-0.23
-0.21
-0.28
-0.34
-0.28
-0.04
0.32
0.67
0.88
0.89
0.77
0.64
0.58
0.61
0.67
0.68
0.58
0.38
0.16
-0.04
-0.19
-0.30
-0.40
-0.50
-0.61
-0.73
-0.84
-0.95
-1.01
-1.00
-0.88
-0.66
-0.38
-0.10
0.12
0.25
0.31
0.30
0.26
0.19
0.13
0.12
0.18
0.31
0.53
0.80
1.09
1.36
1.53
1.55
1.40
1.11
0.78
0.49
0.27
0.11
-0.04
-0.24
-0.48
-0.69
-0.80
-0.77
-0.62
-0.43
-0.29
-0.27
-0.35
-0.49
-0.61
-0.66
-0.64
-0.57
-0.49
-0.41
-0.34
-0.22
-0.06
0.15
0.32
0.41
0.37
0.24
0.09
0.02
0.04
0.10
0.10
-0.06
-0.33
-0.60
-0.73
-0.63
-0.33
-0.00
0.17
0.10
-0.18
-0.51
-0.74
-0.75
-0.56
-0.24
0.11
0.44
0.74
0.98
1.12
1.09
0.87
0.50
0.09
-0.22
-0.35
-0.28
-0.08
0.13
0.23
0.17
-0.03
-0.31
-0.55
-0.66
-0.59
-0.41
-0.17
0.04
0.17
0.24
0.28
0.30
0.30
0.29
0.26
0.23
0.22
0.24
0.28
0.29
0.29
0.30
0.34
0.44
0.53
0.53
0.38
0.10
-0.23
-0.48
-0.60
-0.60
-0.57
-0.56
-0.59
-0.59
-0.49
-0.28
0.03
0.34
0.56
0.65
0.60
0.48
0.35
0.25
0.18
0.10
-0.01
-0.16
-0.26
-0.26
-0.11
0.12
0.33
0.39
0.25
-0.03
-0.31
-0.52
-0.59
-0.57
-0.50
-0.39
-0.20
0.09
0.45
0.78
0.93
0.82
0.49
0.09
-0.19
-0.22
-0.00
0.32
0.57
0.65
0.53
0.32
0.14
0.06
0.04
0.01
-0.12
-0.36
-0.67
-0.94
-1.07
-1.03
-0.80
-0.44
-0.03
0.31
0.49
0.41
0.09
-0.38
-0.84
-1.13
-1.17
-0.99
-0.67
-0.35
-0.10
0.07
0.16
0.22
0.24
0.22
0.17
0.11
0.10
0.18
0.35
0.55
0.68
0.63
0.39
0.02
-0.35
-0.56
-0.54
-0.31
0.03
0.36
0.62
0.77
0.83
0.78
0.59
0.26
-0.15
-0.52
-0.70
-0.63
-0.36
-0.05
0.16
0.23
0.21
0.22
0.37
0.63
0.90
1.06
1.06
0.89
0.61
0.28
-0.06
-0.35
-0.55
-0.57
-0.40
-0.08
0.30
0.61
0.75
0.71
0.53
0.30
0.07
-0.13
-0.34
-0.55
-0.75
-0.88
-0.91
-0.79
-0.58
-0.34
-0.15
-0.08
-0.13
-0.29
-0.50
-0.70
-0.81
-0.78
-0.60
-0.31
-0.02
0.16
0.11
-0.17
-0.59
-1.00
-1.26
-1.30
-1.12
-0.80
-0.42
-0.04
0.35
0.77
1.19
1.54
1.73
1.66
1.34
0.83
0.29
-0.13
-0.31
-0.27
-0.10
0.06
0.11
-0.01
-0.22
-0.43
-0.49
-0.37
-0.08
0.26
0.53
0.62
0.55
0.37
0.21
0.13
0.16
0.25
0.34
0.35
0.29
0.20
0.11
0.05
0.04
0.05
0.09
0.15
0.24
0.32
0.35
0.27
0.05
-0.27
-0.59
-0.80
-0.80
-0.63
-0.38
-0.14
-0.01
0.01
0.00
0.04
0.16
0.34
0.51
0.59
0.54
0.38
0.15
-0.07
-0.22
-0.27
-0.21
-0.07
0.13
0.32
0.46
0.48
0.39
0.19
-0.09
-0.38
-0.62
-0.74
-0.73
-0.62
-0.46
-0.33
-0.30
-0.38
-0.55
-0.73
-0.83
-0.78
-0.58
-0.27
0.08
0.38
0.59
0.71
0.74
0.70
0.62
0.47
0.30
0.15
0.08
0.08
0.14
0.18
0.13
0.01
-0.14
-0.23
-0.23
-0.13
-0.01
0.08
0.07
-0.03
-0.19
-0.37
-0.49
-0.48
-0.31
0.02
0.41
0.72
0.82
0.65
0.27
-0.15
-0.47
-0.60
-0.58
-0.50
-0.46
-0.48
-0.51
-0.45
-0.28
-0.04
0.15
0.22
0.16
0.06
0.01
0.06
0.19
0.30
0.34
0.30
0.22
0.17
0.17
0.19
0.18
0.10
-0.05
-0.24
-0.40
-0.51
-0.56
-0.55
-0.51
-0.44
-0.35
-0.23
-0.08
0.08
0.23
0.31
0.29
0.16
-0.01
-0.13
-0.11
0.09
0.42
0.76
0.98
1.02
0.87
0.62
0.36
0.15
0.02
-0.05
-0.05
0.02
0.17
0.38
0.57
0.68
0.65
0.49
0.28
0.08
-0.11
-0.27
-0.41
-0.48
-0.42
-0.20
0.11
0.37
0.43
0.26
-0.10
-0.47
-0.69
-0.67
-0.44
-0.08
0.29
0.57
0.71
0.69
0.49
0.13
-0.33
-0.80
-1.18
-1.39
-1.42
-1.26
-0.97
-0.61
-0.23
0.11
0.39
0.60
0.74
0.78
0.74
0.61
0.42
0.24
0.10
0.02
-0.04
-0.12
-0.26
-0.42
-0.53
-0.52
-0.40
-0.21
-0.04
0.04
0.03
-0.01
-0.04
-0.01
0.06
0.14
0.21
0.29
0.39
0.52
0.64
0.68
0.58
0.34
0.04
-0.20
-0.29
-0.22
-0.06
0.07
0.08
-0.04
-0.20
-0.31
-0.31
-0.21
-0.08
0.01
0.03
0.00
-0.03
-0.03
-0.00
0.00
-0.03
-0.11
-0.20
-0.26
-0.25
-0.18
-0.08
-0.01
-0.01
-0.09
-0.22
-0.31
-0.31
-0.18
0.06
0.34
0.57
0.70
0.71
0.63
0.49
0.31
0.09
-0.18
-0.46
-0.71
-0.83
-0.77
-0.51
-0.14
0.22
0.45
0.51
0.41
0.28
0.21
0.24
0.36
0.50
0.60
0.61
0.52
0.35
0.13
-0.09
-0.26
-0.33
-0.29
-0.17
-0.05
0.02
0.01
-0.07
-0.14
-0.14
-0.08
-0.00
0.02
-0.08
-0.26
-0.44
-0.54
-0.47
-0.25
0.01
0.18
0.18
-0.01
-0.29
-0.54
-0.67
-0.67
-0.59
-0.51
-0.48
-0.47
-0.42
-0.31
-0.13
0.07
0.26
0.46
0.66
0.88
1.06
1.12
1.01
0.75
0.42
0.17
0.09
0.18
0.34
0.44
0.38
0.15
-0.13
-0.35
-0.43
-0.38
-0.25
-0.12
-0.01
0.10
0.23
0.35
0.39
0.28
0.01
-0.33
-0.62
-0.75
-0.68
-0.48
-0.25
-0.06
0.05
0.09
0.11
0.11
0.08
0.01
-0.09
-0.21
-0.27
-0.22
-0.03
0.27
0.58
0.78
0.75
0.46
-0.01
-0.51
-0.84
-0.92
-0.78
-0.55
-0.39
-0.38
-0.47
-0.59
-0.64
-0.60
-0.53
-0.46
-0.41
-0.35
-0.23
-0.00
0.30
0.58
0.77
0.79
0.65
0.43
0.23
0.15
0.23
0.45
0.74
1.01
1.18
1.19
1.02
0.68
0.20
-0.33
-0.81
-1.11
-1.12
-0.84
-0.37
0.13
0.50
0.65
0.60
0.47
0.35
0.29
0.27
0.23
0.14
0.00
-0.08
-0.05
0.08
0.25
0.34
0.29
0.09
-0.19
-0.46
-0.65
-0.74
-0.72
-0.60
-0.41
-0.20
-0.03
0.06
0.03
-0.05
-0.10
-0.05
0.10
0.29
0.40
0.38
0.25
0.09
-0.01
-0.04
-0.02
-0.06
-0.22
-0.48
-0.76
-0.91
-0.82
-0.47
0.02
0.51
0.81
0.82
0.58
0.17
-0.26
-0.59
-0.73
-0.68
-0.47
-0.17
0.11
0.31
0.40
0.37
0.28
0.16
0.06
0.00
-0.01
0.02
0.09
0.16
0.20
0.16
0.04
-0.12
-0.22
-0.19
0.01
0.29
0.52
0.58
0.46
0.23
0.05
0.01
0.12
0.27
0.34
0.23
-0.03
-0.33
-0.54
-0.58
-0.48
-0.35
-0.30
-0.40
-0.64
-0.93
-1.18
-1.28
-1.22
-1.00
-0.67
-0.29
0.08
0.38
0.57
0.60
0.49
0.29
0.10
-0.01
0.01
0.14
0.36
0.62
0.89
1.13
1.28
1.30
1.14
0.82
0.43
0.10
-0.07
-0.03
0.15
0.36
0.49
0.49
0.35
0.13
-0.10
-0.29
-0.40
-0.45
-0.44
-0.37
-0.23
-0.00
0.28
0.53
0.63
0.47
0.06
-0.46
-0.89
-1.07
-0.93
-0.58
-0.17
0.11
0.20
0.11
-0.04
-0.16
-0.20
-0.17
-0.11
-0.04
0.01
0.05
0.08
0.09
0.06
-0.02
-0.17
-0.35
-0.51
-0.59
-0.53
-0.36
-0.12
0.10
0.21
0.19
0.07
-0.08
-0.20
-0.26
-0.28
-0.28
-0.29
-0.30
-0.30
-0.27
-0.21
-0.15
-0.08
-0.00
0.09
0.20
0.32
0.44
0.54
0.60
0.59
0.48
0.26
-0.04
-0.33
-0.52
-0.53
-0.34
-0.01
0.36
0.67
0.82
0.79
0.58
0.25
-0.13
-0.46
-0.66
-0.67
-0.52
-0.28
-0.05
0.12
0.21
0.25
0.24
0.19
0.06
-0.11
-0.29
-0.36
-0.28
-0.02
0.34
0.67
0.88
0.93
0.85
0.72
0.58
0.45
0.32
0.18
0.05
-0.01
-0.00
0.09
0.21
0.31
0.37
0.34
0.24
0.06
-0.17
-0.38
-0.53
-0.56
-0.49
-0.38
-0.28
-0.25
-0.26
-0.30
-0.31
-0.28
-0.25
-0.22
-0.20
-0.20
-0.17
-0.14
-0.11
-0.12
-0.15
-0.19
-0.18
-0.13
-0.06
-0.01
-0.01
-0.08
-0.19
-0.30
-0.37
-0.35
-0.23
-0.01
0.24
0.44
0.51
0.40
0.14
-0.18
-0.44
-0.54
-0.46
-0.29
-0.15
-0.14
-0.29
-0.54
-0.75
-0.82
-0.69
-0.37
0.03
0.40
0.65
0.75
0.76
0.74
0.73
0.69
0.58
0.36
0.05
-0.23
-0.38
-0.34
-0.13
0.13
0.34
0.43
0.40
0.31
0.22
0.12
0.03
-0.06
-0.11
-0.09
0.03
0.24
0.49
0.73
0.92
1.02
1.01
0.85
0.51
0.02
-0.56
-1.10
-1.45
-1.53
-1.31
-0.87
-0.33
0.18
0.56
0.79
0.87
0.81
0.64
0.35
-0.03
-0.48
-0.88
-1.14
-1.17
-0.98
-0.65
-0.32
-0.07
0.07
0.12
0.16
0.21
0.24
0.24
0.19
0.13
0.15
0.31
0.60
0.96
1.28
1.43
1.37
1.14
0.80
0.46
0.19
0.02
-0.09
-0.19
-0.34
-0.58
-0.85
-1.05
-1.07
-0.87
-0.53
-0.17
0.04
0.02
-0.20
-0.47
-0.64
-0.61
-0.38
-0.07
0.19
0.29
0.21
0.01
-0.22
-0.37
-0.42
-0.35
-0.22
-0.08
0.04
0.11
0.15
0.16
0.16
0.14
0.10
0.05
0.00
0.00
0.04
0.11
0.16
0.16
0.11
0.04
0.01
0.06
0.20
0.37
0.47
0.45
0.29
0.05
-0.16
-0.28
-0.28
-0.21
-0.18
-0.23
-0.35
-0.45
-0.43
-0.24
0.09
0.46
0.75
0.91
0.91
0.81
0.66
0.52
0.40
0.31
0.25
0.19
0.14
0.09
0.04
-0.02
-0.08
-0.17
-0.32
-0.52
-0.76
-0.97
-1.08
-1.04
-0.85
-0.56
-0.23
0.09
0.34
0.50
0.53
0.45
0.31
0.15
0.06
0.02
-0.00
-0.08
-0.23
-0.44
-0.61
-0.64
-0.49
-0.22
0.06
0.22
0.21
0.07
-0.11
-0.23
-0.24
-0.16
0.00
0.21
0.45
0.67
0.82
0.83
0.64
0.33
0.02
-0.13
-0.07
0.17
0.43
0.55
0.46
0.20
-0.13
-0.40
-0.55
-0.61
-0.61
-0.59
-0.56
-0.55
-0.54
-0.56
-0.58
-0.57
-0.50
-0.35
-0.11
0.20
0.52
0.80
0.99
1.05
0.96
0.72
0.36
-0.04
-0.37
-0.54
-0.54
-0.39
-0.19
-0.04
0.03
-0.01
-0.09
-0.15
-0.16
-0.12
-0.08
-0.12
-0.24
-0.42
-0.59
-0.68
-0.69
-0.64
-0.56
-0.48
-0.35
-0.13
0.18
0.56
0.89
1.10
1.12
0.98
0.71
0.41
0.13
-0.11
-0.28
-0.38
-0.39
-0.29
-0.14
0.01
0.07
-0.00
-0.18
-0.36
-0.44
-0.36
-0.15
0.07
0.14
0.02
-0.25
-0.52
-0.62
-0.52
-0.25
0.03
0.19
0.21
0.15
0.11
0.16
0.30
0.45
0.53
0.49
0.39
0.31
0.35
0.53
0.82
1.10
1.30
1.34
1.21
0.98
0.70
0.45
0.24
0.07
-0.09
-0.24
-0.38
-0.45
-0.39
-0.17
0.18
0.56
0.87
1.00
0.90
0.60
0.19
-0.24
-0.60
-0.83
-0.96
-1.02
-1.04
-1.03
-1.01
-0.97
-0.92
-0.89
-0.89
-0.91
-0.91
-0.85
-0.70
-0.48
-0.25
-0.05
0.04
0.03
-0.06
-0.13
-0.11
0.06
0.34
0.63
0.80
0.78
0.56
0.28
0.07
0.03
0.15
0.31
0.41
0.36
0.21
0.06
-0.01
0.01
0.07
0.11
0.11
0.11
0.16
0.26
0.36
0.35
0.18
-0.11
-0.45
-0.71
-0.84
-0.83
-0.72
-0.56
-0.39
-0.22
-0.07
0.05
0.15
0.19
0.22
0.23
0.23
0.26
0.31
0.39
0.49
0.57
0.60
0.55
0.43
0.32
0.28
0.38
0.59
0.81
0.93
0.85
0.61
0.28
-0.03
-0.23
-0.34
-0.43
-0.56
-0.76
-0.99
-1.15
-1.16
-1.00
-0.70
-0.35
-0.02
0.24
0.42
0.53
0.57
0.55
0.47
0.36
0.23
0.14
0.06
0.02
0.00
-0.02
-0.04
-0.07
-0.12
-0.20
-0.32
-0.46
-0.59
-0.62
-0.49
-0.21
0.16
0.49
0.70
0.73
0.62
0.43
0.22
0.03
-0.13
-0.25
-0.29
-0.25
-0.11
0.07
0.21
0.24
0.13
-0.07
-0.28
-0.40
-0.38
-0.24
-0.03
0.14
0.19
0.10
-0.14
-0.46
-0.74
-0.92
-0.94
-0.85
-0.69
-0.53
-0.38
-0.23
-0.07
0.05
0.10
0.03
-0.12
-0.25
-0.24
0.00
0.44
0.94
1.29
1.33
1.03
0.50
-0.03
-0.36
-0.41
-0.21
0.12
0.45
0.68
0.80
0.84
0.83
0.77
0.61
0.36
0.04
-0.25
-0.45
-0.50
-0.44
-0.33
-0.22
-0.15
-0.10
-0.05
-0.01
0.04
0.11
0.19
0.30
0.39
0.42
0.37
0.22
0.03
-0.10
-0.12
-0.05
0.04
0.08
0.02
-0.12
-0.28
-0.40
-0.44
-0.38
-0.24
-0.06
0.11
0.22
0.22
0.12
-0.06
-0.27
-0.48
-0.68
-0.87
-1.05
-1.19
-1.22
-1.13
-0.92
-0.62
-0.29
0.03
0.33
0.58
0.74
0.74
0.56
0.22
-0.17
-0.45
-0.51
-0.31
0.11
0.59
0.97
1.10
0.95
0.57
0.11
-0.28
-0.47
-0.44
-0.26
-0.05
0.08
0.10
0.06
0.05
0.14
0.32
0.51
0.60
0.49
0.17
-0.25
-0.61
-0.76
-0.61
-0.23
0.25
0.62
0.76
0.62
0.28
-0.14
-0.52
-0.75
-0.80
-0.67
-0.38
-0.00
0.37
0.66
0.80
0.79
0.65
0.41
0.13
-0.16
-0.37
-0.40
-0.17
0.34
1.00
1.58
1.84
1.69
1.19
0.55
0.03
-0.25
-0.27
-0.17
-0.10
-0.14
-0.27
-0.41
-0.49
-0.46
-0.36
-0.24
-0.19
-0.21
-0.31
-0.42
-0.48
-0.45
-0.33
-0.19
-0.13
-0.22
-0.47
-0.82
-1.17
-1.41
-1.48
-1.39
-1.21
-1.00
-0.79
-0.59
-0.36
-0.07
0.26
0.57
0.80
0.88
0.83
0.71
0.58
0.52
0.51
0.51
0.47
0.38
0.25
0.13
0.05
-0.00
-0.08
-0.21
-0.36
-0.43
-0.33
-0.01
0.45
0.88
1.09
0.99
0.61
0.13
-0.25
-0.40
-0.34
-0.17
-0.05
-0.08
-0.24
-0.44
-0.57
-0.53
-0.36
-0.14
0.02
0.05
-0.02
-0.10
-0.09
0.05
0.27
0.43
0.43
0.24
-0.08
-0.38
-0.51
-0.38
-0.02
0.46
0.90
1.16
1.18
0.95
0.57
0.19
-0.07
-0.14
-0.04
0.16
0.32
0.34
0.19
-0.09
-0.41
-0.64
-0.71
-0.58
-0.32
-0.06
0.10
0.09
-0.07
-0.29
-0.46
-0.52
-0.45
-0.32
-0.18
-0.06
0.01
0.04
0.05
0.06
0.06
0.06
0.06
0.07
0.06
0.04
0.04
0.08
0.19
0.35
0.49
0.51
0.37
0.08
-0.23
-0.40
-0.36
-0.11
0.24
0.54
0.66
0.59
0.39
0.15
-0.05
-0.21
-0.34
-0.48
-0.62
-0.72
-0.74
-0.62
-0.41
-0.14
0.08
0.21
0.20
0.09
-0.08
-0.27
-0.45
-0.62
-0.79
-0.91
-0.92
-0.71
-0.27
0.32
0.88
1.21
1.23
0.97
0.60
0.27
0.06
-0.03
-0.07
-0.11
-0.13
-0.05
0.17
0.48
0.78
0.96
0.94
0.76
0.51
0.29
0.15
0.10
0.11
0.11
0.07
-0.01
-0.13
-0.25
-0.30
-0.28
-0.20
-0.10
-0.07
-0.15
-0.34
-0.59
-0.82
-0.94
-0.91
-0.72
-0.46
-0.21
-0.03
0.05
0.06
0.05
0.04
0.05
0.05
0.04
0.02
0.03
0.09
0.22
0.39
0.51
0.53
0.39
0.14
-0.17
-0.42
-0.53
-0.48
-0.35
-0.22
-0.17
-0.22
-0.32
-0.36
-0.25
0.04
0.45
0.92
1.31
1.55
1.58
1.38
0.97
0.42
-0.19
-0.74
-1.12
-1.28
-1.19
-0.89
-0.45
0.02
0.39
0.54
0.45
0.17
-0.18
-0.43
-0.51
-0.43
-0.25
-0.10
-0.03
-0.05
-0.13
-0.24
-0.37
-0.54
-0.72
-0.84
-0.82
-0.61
-0.26
0.10
0.35
0.44
0.40
0.33
0.29
0.26
0.17
-0.04
-0.33
-0.59
-0.67
-0.50
-0.11
0.37
0.76
0.99
1.03
0.96
0.79
0.57
0.31
0.02
-0.22
-0.33
-0.26
-0.02
0.27
0.46
0.45
0.21
-0.19
-0.60
-0.90
-1.03
-0.97
-0.78
-0.50
-0.18
0.15
0.43
0.61
0.64
0.56
0.45
0.41
0.49
0.67
0.81
0.79
0.56
0.19
-0.15
-0.27
-0.12
0.24
0.64
0.91
0.94
0.74
0.41
0.06
-0.21
-0.36
-0.44
-0.48
-0.53
-0.58
-0.59
-0.55
-0.46
-0.36
-0.31
-0.33
-0.39
-0.42
-0.33
-0.11
0.14
0.33
0.36
0.25
0.08
-0.03
-0.04
0.03
0.09
0.07
-0.04
-0.16
-0.19
-0.08
0.14
0.36
0.44
0.32
0.00
-0.39
-0.70
-0.86
-0.84
-0.72
-0.59
-0.50
-0.42
-0.32
-0.17
-0.00
0.13
0.14
0.05
-0.09
-0.15
-0.05
0.19
0.47
0.66
0.69
0.56
0.36
0.21
0.16
0.17
0.14
-0.00
-0.25
-0.51
-0.67
-0.63
-0.41
-0.10
0.19
0.38
0.44
0.42
0.38
0.36
0.37
0.40
0.41
0.40
0.36
0.29
0.22
0.16
0.13
0.14
0.15
0.14
0.11
0.05
-0.05
-0.19
-0.39
-0.63
-0.86
-1.00
-0.99
-0.79
-0.49
-0.19
0.02
0.10
0.09
0.10
0.17
0.32
0.45
0.48
0.36
0.16
-0.02
-0.07
0.02
0.21
0.36
0.38
0.25
0.01
-0.23
-0.42
-0.49
-0.44
-0.26
0.06
0.48
0.92
1.23
1.25
0.92
0.30
-0.42
-1.03
-1.33
-1.30
-1.01
-0.61
-0.22
0.09
0.32
0.50
0.60
0.61
0.47
0.19
-0.17
-0.48
-0.65
-0.63
-0.45
-0.16
0.15
0.44
0.65
0.74
0.68
0.48
0.17
-0.15
-0.35
-0.37
-0.20
0.07
0.29
0.37
0.26
-0.01
-0.34
-0.62
-0.76
-0.70
-0.44
-0.05
0.34
0.62
0.72
0.65
0.48
0.31
0.21
0.15
0.07
-0.06
-0.24
-0.36
-0.33
-0.14
0.12
0.30
0.29
0.07
-0.24
-0.48
-0.52
-0.35
-0.07
0.18
0.29
0.26
0.16
0.08
0.12
0.26
0.44
0.58
0.61
0.54
0.37
0.14
-0.11
-0.36
-0.59
-0.76
-0.82
-0.74
-0.53
-0.25
0.00
0.11
0.03
-0.21
-0.50
-0.69
-0.68
-0.45
-0.06
0.39
0.76
0.99
1.06
0.97
0.75
0.44
0.10
-0.24
-0.52
-0.68
-0.71
-0.61
-0.41
-0.14
0.12
0.33
0.46
0.47
0.36
0.14
-0.18
-0.51
-0.78
-0.88
-0.79
-0.51
-0.16
0.14
0.29
0.25
0.11
-0.03
-0.09
-0.03
0.10
0.23
0.31
0.34
0.37
0.43
0.54
0.69
0.80
0.84
0.78
0.65
0.48
0.32
0.16
-0.02
-0.25
-0.53
-0.80
-0.96
-0.91
-0.63
-0.19
0.25
0.55
0.64
0.52
0.29
0.05
-0.14
-0.29
-0.43
-0.55
-0.64
-0.63
-0.53
-0.36
-0.22
-0.20
-0.30
-0.46
-0.55
-0.49
-0.25
0.09
0.43
0.65
0.72
0.68
0.60
0.55
0.51
0.44
0.26
-0.05
-0.41
-0.70
-0.79
-0.66
-0.39
-0.13
-0.02
-0.09
-0.28
-0.44
-0.46
-0.32
-0.10
0.11
0.22
0.24
0.24
0.28
0.39
0.53
0.62
0.56
0.32
-0.06
-0.48
-0.79
-0.88
-0.72
-0.37
0.04
0.41
0.66
0.80
0.86
0.84
0.72
0.50
0.21
-0.03
-0.14
-0.03
0.24
0.53
0.68
0.61
0.36
0.06
-0.15
-0.21
-0.14
-0.01
0.11
0.20
0.25
0.28
0.25
0.13
-0.11
-0.42
-0.72
-0.92
-0.93
-0.77
-0.51
-0.24
-0.07
-0.05
-0.14
-0.28
-0.38
-0.39
-0.30
-0.14
0.02
0.15
0.20
0.15
0.01
-0.20
-0.43
-0.62
-0.72
-0.68
-0.51
-0.24
0.05
0.31
0.50
0.63
0.71
0.76
0.78
0.75
0.64
0.46
0.24
0.03
-0.14
-0.24
-0.27
-0.21
-0.09
0.10
0.32
0.49
0.56
0.47
0.26
-0.00
-0.24
-0.40
-0.46
-0.47
-0.47
-0.48
-0.50
-0.52
-0.51
-0.46
-0.38
-0.25
-0.05
0.19
0.44
0.61
0.60
0.39
0.04
-0.32
-0.54
-0.53
-0.32
-0.02
0.26
0.46
0.59
0.72
0.85
0.96
0.95
0.73
0.34
-0.15
-0.57
-0.82
-0.85
-0.71
-0.53
-0.37
-0.26
-0.18
-0.11
-0.05
-0.04
-0.11
-0.26
-0.41
-0.45
-0.30
-0.01
0.32
0.54
0.54
0.32
-0.02
-0.37
-0.61
-0.69
-0.58
-0.28
0.17
0.70
1.16
1.42
1.41
1.16
0.82
0.53
0.36
0.28
0.19
0.01
-0.27
-0.56
-0.75
-0.79
-0.68
-0.48
-0.30
-0.17
-0.13
-0.15
-0.18
-0.16
-0.06
0.12
0.32
0.47
0.51
0.42
0.24
0.06
-0.05
-0.07
-0.03
0.03
0.04
0.01
-0.04
-0.09
-0.12
-0.16
-0.24
-0.38
-0.59
-0.83
-1.03
-1.15
-1.11
-0.86
-0.41
0.20
0.84
1.36
1.62
1.55
1.23
0.78
0.36
0.06
-0.10
-0.16
-0.17
-0.17
-0.16
-0.16
-0.18
-0.26
-0.40
-0.59
-0.75
-0.84
-0.81
-0.70
-0.54
-0.41
-0.31
-0.23
-0.13
0.01
0.17
0.29
0.31
0.18
-0.07
-0.33
-0.48
-0.43
-0.17
0.23
0.62
0.86
0.88
0.72
0.49
0.33
0.31
0.44
0.65
0.83
0.91
0.89
0.80
0.70
0.59
0.48
0.33
0.13
-0.11
-0.33
-0.51
-0.64
-0.76
-0.89
-1.04
-1.18
-1.23
-1.12
-0.83
-0.40
0.04
0.38
0.54
0.50
0.32
0.09
-0.13
-0.32
-0.46
-0.53
-0.50
-0.31
0.05
0.51
0.95
1.21
1.17
0.86
0.37
-0.11
-0.43
-0.53
-0.48
-0.39
-0.38
-0.47
-0.62
-0.69
-0.60
-0.38
-0.14
-0.01
-0.12
-0.43
-0.82
-1.13
-1.23
-1.09
-0.80
-0.48
-0.26
-0.17
-0.19
-0.28
-0.39
-0.56
-0.83
-1.24
-1.73
-2.16
-2.40
-2.32
-1.96
-1.46
-1.02
-0.78
-0.73
-0.75
-0.71
-0.54
-0.31
-0.13
-0.05
-0.01
0.16
0.61
1.36
2.26
3.06
3.53
3.56
3.21
2.65
2.06
1.55
1.13
0.74
0.36
-0.01
-0.30
-0.43
-0.35
-0.10
0.25
0.60
0.84
0.95
0.92
0.83
0.71
0.63
0.61
0.66
0.78
0.95
1.15
1.35
1.51
1.62
1.65
1.59
1.45
1.21
0.87
0.46
0.03
-0.33
-0.52
-0.51
-0.32
-0.07
0.10
0.12
-0.01
-0.18
-0.27
-0.20
-0.01
0.17
0.24
0.17
0.02
-0.10
-0.13
-0.08
-0.05
-0.16
-0.43
-0.74
-0.97
-0.96
-0.72
-0.31
0.10
0.36
0.44
0.34
0.15
-0.06
-0.25
-0.39
-0.51
-0.59
-0.61
-0.54
-0.37
-0.13
0.11
0.26
0.24
0.04
-0.31
-0.71
-1.04
-1.24
-1.26
-1.14
-0.91
-0.60
-0.29
-0.01
0.18
0.26
0.25
0.25
0.33
0.55
0.89
1.19
1.31
1.14
0.67
-0.05
-0.91
-1.80
-2.59
-3.05
-2.91
-1.94
-0.12
2.26
4.65
6.39
7.06
6.64
5.53
4.33
3.49
3.06
2.71
1.91
0.31
-2.06
-4.74
-7.07
-8.45
-8.64
-7.85
-6.51
-5.10
-3.90
-2.93
-2.06
-1.15
-0.21
0.60
1.05
1.00
0.51
-0.18
-0.73
-0.88
-0.56
0.08
0.72
1.10
1.11
0.84
0.52
0.35
0.42
0.64
0.87
0.98
0.94
0.83
0.74
0.75
0.83
0.90
0.90
0.83
0.70
0.57
0.46
0.37
0.28
0.22
0.20
0.26
0.41
0.61
0.82
0.99
1.11
1.18
1.23
1.29
1.36
1.42
1.43
1.35
1.19
0.96
0.73
0.53
0.39
0.30
0.22
0.14
0.09
0.10
0.22
0.46
0.72
0.90
0.90
0.70
0.34
-0.03
-0.29
-0.39
-0.34
-0.22
-0.13
-0.12
-0.21
-0.37
-0.58
-0.78
-0.99
-1.19
-1.38
-1.53
-1.61
-1.59
-1.48
-1.32
-1.17
-1.08
-1.07
-1.08
-1.07
-0.97
-0.79
-0.57
-0.41
-0.36
-0.43
-0.57
-0.69
-0.70
-0.56
-0.29
0.03
0.31
0.47
0.50
0.46
0.45
0.54
0.71
0.88
0.94
0.84
0.57
0.23
-0.06
-0.20
-0.15
0.04
0.29
0.47
0.47
0.24
-0.20
-0.72
-1.16
-1.35
-1.21
-0.80
-0.31
0.09
0.27
0.25
0.13
0.04
0.08
0.24
0.42
0.53
0.48
0.30
0.08
-0.08
-0.10
0.02
0.20
0.38
0.49
0.53
0.51
0.45
0.37
0.27
0.19
0.14
0.16
0.22
0.25
0.17
-0.06
-0.40
-0.72
-0.88
-0.81
-0.54
-0.20
0.06
0.16
0.12
-0.02
-0.17
-0.30
-0.41
-0.49
-0.56
-0.59
-0.57
-0.51
-0.45
-0.40
-0.39
-0.38
-0.37
-0.38
-0.46
-0.61
-0.82
-0.99
-1.06
-1.02
-0.93
-0.91
-1.01
-1.21
-1.39
-1.40
-1.20
-0.85
-0.51
-0.34
-0.39
-0.63
-0.94
-1.20
-1.35
-1.41
-1.44
-1.55
-1.79
-2.22
-2.82
-3.50
-4.08
-4.37
-4.18
-3.50
-2.45
-1.29
-0.27
0.46
0.84
0.91
0.69
0.18
-0.60
-1.58
-2.57
-3.39
-3.92
-4.14
-4.17
-4.13
-4.11
-4.10
-4.07
-4.02
-3.99
-4.09
-4.37
-4.84
-5.42
-5.96
-6.29
-6.29
-5.95
-5.40
-4.81
-4.37
-4.15
-4.07
-3.98
-3.81
-3.65
-3.77
-4.43
-5.68
-7.25
-8.62
-9.23
-8.68
-6.87
-3.96
-0.34
3.52
7.10
9.94
11.72
12.36
12.05
11.13
9.99
8.91
8.05
7.57
7.66
8.52
10.22
12.60
15.17
17.37
18.71
19.02
18.42
17.19
15.62
13.86
11.97
9.99
8.00
6.17
4.73
3.85
3.61
4.01
4.99
6.49
8.58
11.37
14.77
18.30
21.02
21.83
19.95
15.36
8.99
2.36
-3.02
-6.35
-7.72
-7.93
-7.92
-8.29
-9.07
-9.93
-10.46
-10.51
-10.21
-9.84
-9.63
-9.61
-9.66
-9.56
-9.13
-8.35
-7.37
-6.42
-5.70
-5.31
-5.19
-5.15
-4.99
-4.56
-3.89
-3.14
-2.51
-2.19
-2.22
-2.49
-2.78
-2.87
-2.64
-2.15
-1.56
-1.04
-0.72
-0.60
-0.60
-0.61
-0.56
-0.43
-0.26
-0.11
-0.01
0.04
0.07
0.14
0.27
0.48
0.79
1.14
1.44
1.57
1.43
1.03
0.44
-0.18
-0.68
-0.98
-1.10
-1.14
-1.19
-1.27
-1.35
-1.37
-1.30
-1.15
-0.99
-0.86
-0.80
-0.77
-0.72
-0.59
-0.35
-0.04
0.28
0.52
0.63
0.60
0.48
0.36
0.30
0.32
0.37
0.36
0.21
-0.08
-0.43
-0.73
-0.86
-0.79
-0.55
-0.26
-0.02
0.10
0.11
0.04
-0.02
-0.03
0.02
0.06
0.06
-0.02
-0.13
-0.20
-0.15
0.02
0.24
0.37
0.32
0.09
-0.22
-0.46
-0.50
-0.34
-0.10
0.09
0.14
0.09
0.02
0.02
0.11
0.22
0.24
0.13
-0.06
-0.18
-0.13
0.14
0.54
0.87
0.98
0.76
0.26
-0.39
-0.99
-1.37
-1.45
-1.21
-0.75
-0.19
0.35
0.75
0.94
0.92
0.71
0.40
0.10
-0.06
-0.03
0.20
0.54
0.87
1.08
1.11
0.94
0.64
0.28
-0.09
-0.39
-0.55
-0.53
-0.33
0.02
0.40
0.67
0.74
0.58
0.23
-0.16
-0.49
-0.67
-0.69
-0.61
-0.51
-0.46
-0.47
-0.52
-0.56
-0.54
-0.47
-0.40
-0.38
-0.44
-0.56
-0.71
-0.82
-0.82
-0.69
-0.43
-0.09
0.27
0.58
0.81
0.91
0.87
0.69
0.41
0.10
-0.15
-0.29
-0.30
-0.22
-0.13
-0.11
-0.17
-0.26
-0.27
-0.10
0.27
0.75
1.23
1.56
1.67
1.53
1.20
0.79
0.39
0.10
-0.02
0.00
0.08
0.13
0.04
-0.20
-0.54
-0.87
-1.08
-1.11
-0.99
-0.77
-0.53
-0.32
-0.16
-0.04
0.03
0.03
-0.05
-0.18
-0.32
-0.41
-0.39
-0.27
-0.06
0.17
0.35
0.42
0.34
0.16
-0.06
-0.22
-0.25
-0.15
0.01
0.11
0.06
-0.16
-0.44
-0.65
-0.68
-0.47
-0.08
0.36
0.71
0.90
0.90
0.72
0.42
0.03
-0.37
-0.74
-0.98
-1.03
-0.85
-0.49
-0.04
0.36
0.56
0.52
0.28
-0.04
-0.29
-0.38
-0.30
-0.13
0.02
0.10
0.11
0.11
0.12
0.16
0.19
0.19
0.17
0.16
0.22
0.34
0.48
0.58
0.56
0.42
0.18
-0.12
-0.39
-0.57
-0.59
-0.47
-0.25
-0.04
0.07
0.08
0.04
0.04
0.13
0.27
0.37
0.35
0.22
0.08
0.02
0.07
0.18
0.27
0.27
0.21
0.19
0.28
0.48
0.70
0.82
0.78
0.63
0.44
0.29
0.16
-0.02
-0.30
-0.64
-0.94
-1.07
-0.96
-0.67
-0.34
-0.11
-0.02
-0.03
-0.01
0.12
0.35
0.57
0.67
0.57
0.30
-0.01
-0.27
-0.40
-0.41
-0.36
-0.34
-0.36
-0.41
-0.44
-0.40
-0.28
-0.11
0.05
0.13
0.10
-0.05
-0.28
-0.54
-0.78
-0.92
-0.90
-0.71
-0.38
0.00
0.35
0.62
0.78
0.86
0.87
0.80
0.62
0.31
-0.11
-0.53
-0.86
-0.98
-0.90
-0.67
-0.43
-0.27
-0.25
-0.34
-0.50
-0.66
-0.78
-0.86
-0.89
-0.86
-0.76
-0.57
-0.28
0.08
0.46
0.78
0.97
0.99
0.87
0.65
0.39
0.13
-0.07
-0.18
-0.20
-0.14
0.01
0.20
0.38
0.49
0.50
0.39
0.23
0.09
0.05
0.12
0.26
0.40
0.47
0.44
0.39
0.40
0.51
0.71
0.88
0.94
0.86
0.69
0.55
0.49
0.52
0.56
0.52
0.35
0.11
-0.08
-0.16
-0.13
-0.06
-0.05
-0.15
-0.29
-0.41
-0.45
-0.40
-0.32
-0.29
-0.30
-0.32
-0.30
-0.22
-0.11
-0.04
-0.04
-0.08
-0.12
-0.09
-0.00
0.12
0.24
0.33
0.38
0.37
0.23
-0.05
-0.49
-0.98
-1.37
-1.49
-1.28
-0.78
-0.18
0.33
0.59
0.55
0.29
-0.07
-0.40
-0.59
-0.60
-0.44
-0.19
0.05
0.20
0.22
0.15
0.04
-0.02
-0.00
0.10
0.23
0.36
0.48
0.61
0.76
0.93
1.06
1.10
1.03
0.85
0.62
0.41
0.27
0.20
0.21
0.23
0.23
0.12
-0.11
-0.44
-0.79
-1.05
-1.13
-1.02
-0.79
-0.57
-0.47
-0.51
-0.64
-0.71
-0.60
-0.30
0.12
0.51
0.75
0.77
0.64
0.45
0.33
0.32
0.37
0.40
0.36
0.25
0.11
-0.00
-0.07
-0.12
-0.16
-0.17
-0.13
-0.02
0.12
0.24
0.27
0.24
0.19
0.21
0.28
0.36
0.33
0.15
-0.16
-0.48
-0.69
-0.72
-0.60
-0.40
-0.16
0.08
0.34
0.62
0.86
0.94
0.79
0.42
-0.08
-0.55
-0.87
-0.99
-0.93
-0.76
-0.58
-0.44
-0.37
-0.38
-0.43
-0.51
-0.58
-0.62
-0.60
-0.52
-0.38
-0.19
0.03
0.24
0.39
0.43
0.36
0.18
-0.04
-0.24
-0.39
-0.47
-0.50
-0.48
-0.39
-0.24
-0.04
0.16
0.30
0.34
0.29
0.22
0.22
0.37
0.66
1.00
1.30
1.47
1.45
1.25
0.90
0.46
0.01
-0.38
-0.68
-0.87
-0.96
-0.99
-0.98
-0.94
-0.86
-0.73
-0.55
-0.35
-0.15
0.02
0.16
0.23
0.25
0.22
0.16
0.15
0.23
0.42
0.68
0.93
1.08
1.08
0.96
0.78
0.62
0.51
0.42
0.32
0.20
0.10
0.12
0.31
0.67
1.06
1.30
1.24
0.83
0.17
-0.54
-1.07
-1.31
-1.27
-1.02
-0.71
-0.43
-0.24
-0.19
-0.27
-0.49
-0.81
-1.15
-1.42
-1.55
-1.50
-1.30
-0.99
-0.64
-0.30
-0.02
0.16
0.25
0.25
0.23
0.25
0.35
0.53
0.74
0.92
1.01
1.00
0.91
0.75
0.55
0.31
0.04
-0.22
-0.42
-0.52
-0.50
-0.38
-0.21
-0.07
0.00
0.01
-0.04
-0.10
-0.12
-0.08
0.02
0.15
0.26
0.29
0.25
0.17
0.10
0.09
0.14
0.18
0.16
0.04
-0.12
-0.25
-0.25
-0.12
0.09
0.29
0.39
0.38
0.30
0.24
0.26
0.39
0.58
0.74
0.78
0.68
0.43
0.09
-0.28
-0.64
-0.94
-1.13
-1.19
-1.10
-0.86
-0.51
-0.13
0.24
0.53
0.73
0.81
0.78
0.60
0.30
-0.09
-0.47
-0.75
-0.87
-0.86
-0.77
-0.67
-0.58
-0.49
-0.39
-0.28
-0.22
-0.28
-0.47
-0.71
-0.87
-0.82
-0.52
-0.06
0.42
0.75
0.87
0.80
0.62
0.47
0.41
0.44
0.52
0.59
0.59
0.54
0.45
0.36
0.33
0.37
0.49
0.65
0.77
0.77
0.58
0.21
-0.26
-0.70
-0.99
-1.06
-0.93
-0.67
-0.42
-0.28
-0.29
-0.43
-0.62
-0.77
-0.81
-0.73
-0.56
-0.33
-0.08
0.16
0.35
0.44
0.40
0.28
0.15
0.10
0.14
0.23
0.25
0.14
-0.09
-0.32
-0.43
-0.33
-0.10
0.15
0.30
0.32
0.30
0.34
0.50
0.74
0.96
1.02
0.87
0.53
0.10
-0.26
-0.44
-0.39
-0.15
0.16
0.42
0.56
0.55
0.43
0.24
0.02
-0.22
-0.44
-0.61
-0.67
-0.60
-0.42
-0.20
-0.02
0.08
0.10
0.09
0.10
0.14
0.18
0.20
0.19
0.16
0.16
0.22
0.32
0.43
0.47
0.40
0.20
-0.11
-0.45
-0.75
-0.94
-0.96
-0.81
-0.51
-0.12
0.31
0.71
1.04
1.24
1.25
1.00
0.48
-0.24
-0.97
-1.50
-1.66
-1.38
-0.74
0.01
0.63
0.89
0.75
0.31
-0.19
-0.54
-0.60
-0.42
-0.10
0.19
0.41
0.57
0.71
0.89
1.05
1.12
1.06
0.89
0.70
0.58
0.55
0.58
0.62
0.64
0.68
0.80
0.99
1.18
1.25
1.14
0.90
0.69
0.71
1.03
1.60
2.24
2.72
2.91
2.81
2.48
2.07
1.73
1.54
1.66
2.25
3.42
5.05
6.71
7.63
7.10
4.76
0.89
-3.62
-7.66
-10.29
-11.14
-10.44
-8.76
-6.66
-4.49
-2.36
-0.35
1.37
2.51
2.83
2.32
1.23
0.06
-0.73
-0.89
-0.41
0.35
0.90
0.81
-0.11
-1.72
-3.57
-5.09
-5.78
-5.47
-4.37
-2.91
-1.58
-0.70
-0.32
-0.26
-0.26
-0.17
0.02
0.19
0.22
0.07
-0.16
-0.33
-0.32
-0.09
0.31
0.76
1.12
1.31
1.29
1.10
0.81
0.53
0.34
0.28
0.35
0.44
0.48
0.40
0.21
-0.06
-0.31
-0.49
-0.58
-0.55
-0.41
-0.16
0.20
0.59
0.92
1.13
1.17
1.09
0.94
0.76
0.55
0.28
-0.05
-0.39
-0.64
-0.74
-0.71
-0.62
-0.57
-0.59
-0.63
-0.63
-0.52
-0.35
-0.21
-0.17
-0.24
-0.32
-0.31
-0.16
0.04
0.18
0.19
0.08
-0.03
-0.04
0.09
0.29
0.44
0.45
0.32
0.11
-0.09
-0.20
-0.20
-0.13
-0.02
0.11
0.25
0.37
0.44
0.46
0.43
0.38
0.34
0.32
0.30
0.23
0.09
-0.13
-0.38
-0.60
-0.73
-0.74
-0.67
-0.58
-0.56
-0.66
-0.87
-1.11
-1.26
-1.24
-0.99
-0.58
-0.12
0.27
0.50
0.54
0.43
0.27
0.15
0.13
0.22
0.40
0.60
0.74
0.81
0.80
0.77
0.74
0.73
0.74
0.75
0.76
0.73
0.67
0.54
0.34
0.08
-0.17
-0.37
-0.46
-0.50
-0.54
-0.66
-0.87
-1.09
-1.23
-1.22
-1.12
-1.03
-1.05
-1.20
-1.37
-1.39
-1.15
-0.65
-0.05
0.45
0.71
0.68
0.46
0.22
0.08
0.09
0.21
0.36
0.44
0.42
0.33
0.22
0.21
0.37
0.71
1.14
1.52
1.68
1.56
1.19
0.73
0.33
0.11
0.03
0.04
0.03
-0.04
-0.15
-0.23
-0.24
-0.17
-0.07
0.03
0.08
0.04
-0.08
-0.30
-0.57
-0.83
-1.02
-1.08
-0.99
-0.80
-0.59
-0.42
-0.30
-0.21
-0.14
-0.05
0.04
0.09
0.06
-0.02
-0.13
-0.20
-0.19
-0.07
0.13
0.36
0.58
0.74
0.78
0.70
0.50
0.23
-0.01
-0.12
-0.06
0.12
0.29
0.34
0.17
-0.16
-0.55
-0.83
-0.92
-0.81
-0.58
-0.32
-0.08
0.11
0.25
0.34
0.35
0.27
0.14
0.02
-0.01
0.10
0.30
0.52
0.66
0.67
0.58
0.44
0.32
0.26
0.27
0.29
0.29
0.25
0.18
0.10
0.02
-0.06
-0.12
-0.15
-0.14
-0.09
-0.03
-0.01
-0.05
-0.14
-0.23
-0.27
-0.26
-0.25
-0.30
-0.43
-0.61
-0.74
-0.73
-0.54
-0.23
0.12
0.42
0.63
0.72
0.71
0.61
0.44
0.25
0.07
-0.04
-0.06
0.02
0.15
0.28
0.37
0.37
0.28
0.09
-0.17
-0.46
-0.70
-0.82
-0.82
-0.70
-0.50
-0.27
-0.03
0.22
0.44
0.58
0.59
0.45
0.19
-0.11
-0.34
-0.43
-0.40
-0.33
-0.33
-0.44
-0.64
-0.83
-0.93
-0.85
-0.63
-0.34
-0.07
0.14
0.30
0.43
0.56
0.69
0.79
0.84
0.83
0.75
0.61
0.45
0.29
0.18
0.14
0.13
0.11
0.01
-0.17
-0.38
-0.53
-0.55
-0.43
-0.22
-0.03
0.11
0.18
0.21
0.25
0.29
0.27
0.16
-0.04
-0.24
-0.36
-0.34
-0.18
0.02
0.18
0.24
0.23
0.18
0.17
0.20
0.27
0.32
0.32
0.26
0.12
-0.06
-0.26
-0.47
-0.62
-0.69
-0.63
-0.42
-0.12
0.20
0.45
0.56
0.51
0.33
0.12
-0.02
-0.05
0.04
0.16
0.25
0.27
0.27
0.33
0.48
0.67
0.79
0.70
0.37
-0.14
-0.66
-1.05
-1.21
-1.12
-0.86
-0.54
-0.24
-0.05
0.00
-0.07
-0.22
-0.35
-0.38
-0.28
-0.09
0.07
0.09
-0.06
-0.32
-0.54
-0.59
-0.41
-0.07
0.23
0.35
0.25
0.03
-0.13
-0.08
0.16
0.47
0.64
0.56
0.26
-0.11
-0.37
-0.43
-0.32
-0.17
-0.13
-0.25
-0.47
-0.67
-0.71
-0.55
-0.25
0.10
0.37
0.50
0.52
0.47
0.39
0.30
0.19
0.07
0.01
0.09
0.35
0.73
1.11
1.33
1.31
1.05
0.68
0.33
0.10
0.03
0.07
0.15
0.19
0.12
-0.05
-0.29
-0.50
-0.58
-0.45
-0.16
0.20
0.51
0.67
0.68
0.55
0.35
0.11
-0.14
-0.40
-0.59
-0.67
-0.58
-0.34
-0.03
0.24
0.39
0.41
0.33
0.21
0.08
-0.07
-0.27
-0.52
-0.78
-0.94
-0.94
-0.73
-0.41
-0.10
0.05
-0.02
-0.27
-0.57
-0.80
-0.86
-0.76
-0.57
-0.38
-0.23
-0.15
-0.12
-0.07
0.02
0.15
0.30
0.43
0.51
0.51
0.44
0.31
0.20
0.16
0.22
0.39
0.63
0.85
0.95
0.88
0.63
0.25
-0.15
-0.46
-0.62
-0.63
-0.56
-0.51
-0.51
-0.55
-0.52
-0.33
0.01
0.40
0.69
0.73
0.49
0.05
-0.41
-0.72
-0.80
-0.66
-0.40
-0.13
0.05
0.12
0.11
0.09
0.11
0.19
0.29
0.35
0.33
0.21
0.02
-0.19
-0.36
-0.47
-0.51
-0.50
-0.41
-0.23
0.04
0.35
0.62
0.74
0.66
0.42
0.11
-0.14
-0.24
-0.18
-0.02
0.12
0.16
0.06
-0.12
-0.31
-0.43
-0.44
-0.34
-0.17
0.05
0.26
0.43
0.50
0.44
0.27
0.05
-0.15
-0.25
-0.24
-0.14
-0.01
0.14
0.30
0.50
0.73
0.92
0.97
0.82
0.51
0.14
-0.12
-0.18
-0.06
0.12
0.22
0.14
-0.07
-0.31
-0.44
-0.39
-0.17
0.09
0.24
0.18
-0.07
-0.41
-0.65
-0.67
-0.45
-0.11
0.18
0.26
0.12
-0.10
-0.22
-0.14
0.09
0.29
0.28
0.02
-0.35
-0.61
-0.58
-0.26
0.19
0.56
0.71
0.66
0.51
0.38
0.29
0.20
0.04
-0.23
-0.55
-0.84
-1.01
-0.98
-0.79
-0.47
-0.11
0.23
0.47
0.55
0.47
0.27
0.04
-0.11
-0.14
-0.06
0.03
0.06
-0.00
-0.12
-0.23
-0.27
-0.26
-0.26
-0.35
-0.51
-0.66
-0.71
-0.56
-0.24
0.16
0.52
0.76
0.85
0.87
0.86
0.88
0.89
0.86
0.73
0.50
0.21
-0.06
-0.27
-0.39
-0.45
-0.49
-0.54
-0.57
-0.54
-0.41
-0.21
0.00
0.15
0.16
0.05
-0.11
-0.27
-0.34
-0.34
-0.27
-0.19
-0.14
-0.15
-0.21
-0.31
-0.38
-0.41
-0.35
-0.23
-0.08
0.08
0.21
0.30
0.34
0.34
0.29
0.22
0.12
0.03
-0.03
-0.04
-0.01
-0.00
-0.05
-0.19
-0.38
-0.57
-0.66
-0.61
-0.41
-0.13
0.15
0.34
0.40
0.38
0.33
0.30
0.33
0.40
0.48
0.53
0.56
0.54
0.47
0.36
0.22
0.09
0.02
0.04
0.14
0.28
0.40
0.48
0.51
0.50
0.47
0.38
0.21
-0.05
-0.36
-0.60
-0.66
-0.47
-0.09
0.31
0.55
0.52
0.24
-0.16
-0.52
-0.70
-0.65
-0.41
-0.07
0.25
0.44
0.45
0.28
0.02
-0.24
-0.43
-0.49
-0.44
-0.30
-0.14
0.03
0.18
0.28
0.30
0.23
0.08
-0.08
-0.17
-0.12
0.05
0.28
0.44
0.42
0.22
-0.11
-0.46
-0.71
-0.85
-0.88
-0.89
-0.87
-0.81
-0.63
-0.32
0.06
0.38
0.51
0.42
0.16
-0.12
-0.25
-0.17
0.06
0.32
0.47
0.49
0.40
0.31
0.29
0.34
0.37
0.32
0.13
-0.12
-0.33
-0.38
-0.22
0.09
0.41
0.59
0.56
0.37
0.14
-0.01
0.00
0.13
0.27
0.32
0.22
0.01
-0.18
-0.27
-0.22
-0.07
0.09
0.20
0.23
0.23
0.20
0.15
0.04
-0.14
-0.37
-0.62
-0.84
-1.02
-1.16
-1.27
-1.27
-1.09
-0.68
-0.11
0.48
0.89
1.03
0.91
0.65
0.38
0.17
0.01
-0.10
-0.17
-0.15
-0.01
0.22
0.47
0.62
0.59
0.40
0.12
-0.14
-0.29
-0.32
-0.26
-0.17
-0.10
-0.06
-0.05
-0.05
-0.05
-0.02
0.04
0.14
0.26
0.39
0.50
0.57
0.58
0.51
0.37
0.15
-0.11
-0.36
-0.55
-0.64
-0.63
-0.52
-0.34
-0.13
0.11
0.35
0.55
0.65
0.62
0.49
0.33
0.21
0.17
0.17
0.15
0.03
-0.16
-0.34
-0.42
-0.37
-0.23
-0.11
-0.07
-0.16
-0.33
-0.50
-0.59
-0.56
-0.40
-0.16
0.09
0.26
0.27
0.11
-0.16
-0.42
-0.56
-0.55
-0.43
-0.29
-0.18
-0.10
0.02
0.21
0.47
0.77
0.97
1.02
0.91
0.69
0.47
0.31
0.26
0.30
0.36
0.36
0.22
-0.05
-0.38
-0.66
-0.79
-0.70
-0.45
-0.11
0.17
0.28
0.19
-0.10
-0.49
-0.89
-1.19
-1.32
-1.25
-1.03
-0.71
-0.40
-0.16
-0.02
0.03
0.02
0.00
0.03
0.11
0.23
0.38
0.50
0.55
0.51
0.39
0.22
0.09
0.01
0.01
0.04
0.03
-0.02
-0.13
-0.20
-0.18
-0.03
0.23
0.51
0.72
0.80
0.79
0.78
0.84
0.98
1.12
1.17
1.02
0.68
0.24
-0.19
-0.50
-0.65
-0.64
-0.52
-0.32
-0.08
0.15
0.30
0.33
0.20
-0.06
-0.37
-0.61
-0.72
-0.68
-0.53
-0.35
-0.20
-0.12
-0.11
-0.15
-0.22
-0.30
-0.37
-0.41
-0.41
-0.36
-0.26
-0.11
0.05
0.22
0.39
0.53
0.65
0.71
0.69
0.57
0.41
0.26
0.16
0.10
0.04
-0.07
-0.25
-0.45
-0.59
-0.60
-0.44
-0.15
0.16
0.38
0.45
0.34
0.10
-0.19
-0.49
-0.72
-0.87
-0.92
-0.87
-0.74
-0.54
-0.31
-0.09
0.09
0.21
0.26
0.28
0.32
0.41
0.59
0.86
1.17
1.43
1.56
1.49
1.21
0.77
0.29
-0.15
-0.48
-0.70
-0.84
-0.91
-0.89
-0.74
-0.45
-0.07
0.29
0.54
0.58
0.43
0.14
-0.18
-0.44
-0.58
-0.58
-0.51
-0.43
-0.41
-0.47
-0.59
-0.69
-0.72
-0.64
-0.44
-0.16
0.13
0.37
0.50
0.49
0.36
0.17
0.03
0.01
0.13
0.32
0.48
0.50
0.37
0.15
-0.03
-0.10
-0.04
0.09
0.22
0.27
0.23
0.14
0.03
-0.07
-0.14
-0.17
-0.16
-0.09
0.02
0.15
0.29
0.39
0.44
0.40
0.27
0.06
-0.17
-0.35
-0.39
-0.24
0.05
0.33
0.46
0.31
-0.09
-0.62
-1.05
-1.20
-1.03
-0.64
-0.25
-0.02
-0.02
-0.16
-0.27
-0.24
-0.05
0.20
0.39
0.45
0.42
0.35
0.31
0.26
0.13
-0.11
-0.40
-0.60
-0.62
-0.42
-0.10
0.19
0.34
0.31
0.21
0.13
0.15
0.24
0.31
0.30
0.21
0.08
0.02
0.08
0.27
0.55
0.82
1.02
1.09
0.97
0.66
0.22
-0.26
-0.67
-0.91
-0.96
-0.88
-0.77
-0.76
-0.86
-1.04
-1.18
-1.17
-0.96
-0.60
-0.20
0.12
0.31
0.39
0.46
0.57
0.70
0.77
0.67
0.37
-0.05
-0.43
-0.62
-0.54
-0.27
0.06
0.31
0.45
0.49
0.53
0.61
0.68
0.69
0.56
0.29
-0.04
-0.33
-0.50
-0.53
-0.47
-0.37
-0.31
-0.30
-0.29
-0.22
-0.01
0.36
0.79
1.14
1.28
1.13
0.78
0.39
0.10
-0.02
-0.01
0.03
-0.02
-0.16
-0.31
-0.37
-0.28
-0.08
0.13
0.26
0.26
0.16
0.03
-0.05
-0.10
-0.15
-0.25
-0.43
-0.61
-0.70
-0.60
-0.33
0.04
0.35
0.50
0.46
0.31
0.16
0.05
-0.01
-0.11
-0.28
-0.50
-0.66
-0.66
-0.45
-0.08
0.28
0.52
0.56
0.42
0.21
0.01
-0.12
-0.18
-0.17
-0.10
0.02
0.16
0.30
0.36
0.33
0.20
0.01
-0.17
-0.29
-0.32
-0.26
-0.12
0.03
0.15
0.17
0.06
-0.13
-0.33
-0.46
-0.47
-0.38
-0.25
-0.17
-0.21
-0.36
-0.56
-0.75
-0.84
-0.79
-0.62
-0.34
0.02
0.41
0.78
1.06
1.18
1.10
0.86
0.51
0.19
-0.03
-0.08
0.00
0.14
0.25
0.26
0.16
-0.04
-0.30
-0.53
-0.65
-0.60
-0.37
-0.02
0.33
0.56
0.60
0.47
0.24
-0.00
-0.20
-0.31
-0.35
-0.34
-0.30
-0.26
-0.21
-0.13
-0.01
0.13
0.27
0.32
0.22
-0.06
-0.47
-0.86
-1.06
-0.98
-0.65
-0.21
0.16
0.33
0.29
0.16
0.10
0.19
0.42
0.71
0.89
0.89
0.69
0.40
0.11
-0.10
-0.19
-0.18
-0.08
0.06
0.19
0.28
0.29
0.22
0.12
0.02
-0.01
0.03
0.10
0.14
0.11
0.01
-0.11
-0.19
-0.20
-0.17
-0.14
-0.14
-0.19
-0.25
-0.28
-0.26
-0.20
-0.12
-0.06
-0.03
0.00
0.06
0.17
0.33
0.48
0.57
0.56
0.41
0.15
-0.18
-0.47
-0.61
-0.56
-0.30
0.06
0.38
0.53
0.46
0.23
-0.02
-0.17
-0.12
0.07
0.31
0.50
0.57
0.53
0.41
0.23
-0.00
-0.30
-0.64
-0.95
-1.11
-1.03
-0.72
-0.26
0.18
0.50
0.65
0.70
0.73
0.79
0.87
0.88
0.76
0.47
0.11
-0.22
-0.41
-0.41
-0.29
-0.16
-0.12
-0.21
-0.35
-0.47
-0.47
-0.36
-0.21
-0.14
-0.25
-0.52
-0.82
-1.04
-1.07
-0.93
-0.69
-0.43
-0.21
-0.02
0.17
0.36
0.51
0.55
0.45
0.24
-0.01
-0.22
-0.31
-0.27
-0.13
0.05
0.22
0.33
0.34
0.26
0.10
-0.09
-0.24
-0.29
-0.21
-0.06
0.08
0.11
-0.00
-0.19
-0.32
-0.25
0.07
0.57
1.10
1.45
1.51
1.29
0.93
0.56
0.28
0.11
-0.02
-0.16
-0.32
-0.44
-0.47
-0.38
-0.23
-0.14
-0.18
-0.34
-0.56
-0.70
-0.68
-0.50
-0.22
0.04
0.20
0.24
0.18
0.10
0.05
0.05
0.08
0.12
0.16
0.17
0.16
0.09
-0.06
-0.27
-0.49
-0.63
-0.58
-0.30
0.17
0.68
1.02
1.08
0.81
0.32
-0.21
-0.63
-0.83
-0.82
-0.66
-0.42
-0.17
0.07
0.27
0.44
0.54
0.56
0.49
0.35
0.16
0.01
-0.07
-0.04
0.08
0.24
0.40
0.51
0.54
0.49
0.37
0.19
-0.03
-0.26
-0.47
-0.62
-0.71
-0.73
-0.68
-0.60
-0.49
-0.37
-0.25
-0.14
-0.05
-0.01
-0.01
-0.05
-0.11
-0.14
-0.12
-0.04
0.09
0.22
0.33
0.39
0.39
0.36
0.34
0.34
0.38
0.45
0.53
0.54
0.43
0.16
-0.24
-0.67
-1.02
-1.15
-1.03
-0.68
-0.19
0.29
0.66
0.85
0.82
0.59
0.22
-0.21
-0.60
-0.85
-0.92
-0.86
-0.74
-0.64
-0.60
-0.58
-0.54
-0.42
-0.23
0.02
0.29
0.52
0.70
0.81
0.86
0.89
0.91
0.94
0.96
0.96
0.91
0.83
0.75
0.70
0.66
0.60
0.43
0.12
-0.27
-0.60
-0.73
-0.60
-0.28
0.05
0.20
0.11
-0.17
-0.48
-0.68
-0.71
-0.62
-0.50
-0.45
-0.45
-0.47
-0.45
-0.37
-0.31
-0.29
-0.31
-0.33
-0.29
-0.18
-0.04
0.03
-0.03
-0.21
-0.48
-0.76
-0.99
-1.11
-1.09
-0.91
-0.60
-0.21
0.16
0.39
0.45
0.37
0.26
0.21
0.29
0.46
0.66
0.83
0.93
0.96
0.93
0.85
0.72
0.55
0.39
0.31
0.38
0.57
0.82
0.98
0.90
0.58
0.09
-0.38
-0.67
-0.71
-0.55
-0.33
-0.18
-0.18
-0.28
-0.39
-0.45
-0.42
-0.37
-0.37
-0.41
-0.44
-0.39
-0.20
0.11
0.42
0.62
0.63
0.48
0.25
0.05
-0.07
-0.10
-0.11
-0.11
-0.11
-0.04
0.11
0.35
0.63
0.85
0.91
0.79
0.50
0.13
-0.22
-0.44
-0.50
-0.40
-0.20
0.01
0.14
0.11
-0.09
-0.43
-0.81
-1.10
-1.22
-1.16
-0.94
-0.68
-0.47
-0.35
-0.29
-0.22
-0.10
0.08
0.27
0.39
0.37
0.22
-0.04
-0.30
-0.49
-0.53
-0.42
-0.17
0.12
0.37
0.52
0.55
0.49
0.40
0.35
0.37
0.46
0.58
0.67
0.67
0.59
0.45
0.33
0.28
0.29
0.31
0.30
0.19
-0.01
-0.26
-0.50
-0.68
-0.75
-0.72
-0.60
-0.44
-0.27
-0.15
-0.11
-0.12
-0.16
-0.17
-0.11
0.01
0.18
0.34
0.45
0.49
0.46
0.39
0.30
0.18
0.06
-0.03
-0.07
-0.03
0.06
0.15
0.16
0.06
-0.16
-0.42
-0.65
-0.78
-0.78
-0.62
-0.34
0.02
0.39
0.68
0.82
0.77
0.56
0.28
0.02
-0.15
-0.21
-0.18
-0.08
0.05
0.20
0.34
0.44
0.43
0.32
0.15
-0.00
-0.08
-0.06
0.00
0.02
-0.07
-0.28
-0.54
-0.70
-0.68
-0.45
-0.08
0.28
0.48
0.46
0.26
-0.00
-0.20
-0.27
-0.20
-0.04
0.14
0.27
0.32
0.29
0.17
-0.01
-0.22
-0.41
-0.54
-0.54
-0.38
-0.10
0.27
0.63
0.90
0.98
0.82
0.45
-0.06
-0.53
-0.82
-0.81
-0.52
-0.09
0.29
0.45
0.32
-0.02
-0.40
-0.63
-0.57
-0.26
0.18
0.58
0.81
0.82
0.65
0.36
0.07
-0.13
-0.21
-0.13
0.08
0.34
0.57
0.70
0.69
0.56
0.33
0.06
-0.24
-0.50
-0.68
-0.73
-0.64
-0.45
-0.25
-0.15
-0.23
-0.45
-0.75
-1.00
-1.11
-1.01
-0.72
-0.29
0.18
0.61
0.90
1.03
0.97
0.77
0.47
0.14
-0.14
-0.30
-0.29
-0.14
0.08
0.26
0.31
0.23
0.09
-0.02
-0.03
0.01
0.02
-0.11
-0.37
-0.68
-0.90
-0.94
-0.80
-0.57
-0.36
-0.23
-0.13
0.01
0.24
0.54
0.80
0.91
0.83
0.63
0.39
0.21
0.09
0.02
-0.04
-0.08
-0.06
0.02
0.13
0.20
0.11
-0.15
-0.55
-0.93
-1.14
-1.09
-0.80
-0.41
-0.08
0.08
0.05
-0.07
-0.16
-0.14
0.01
0.25
0.52
0.78
0.99
1.10
1.09
0.93
0.64
0.31
0.02
-0.15
-0.22
-0.25
-0.30
-0.39
-0.43
-0.34
-0.08
0.27
0.56
0.67
0.55
0.24
-0.13
-0.47
-0.72
-0.87
-0.91
-0.82
-0.57
-0.18
0.28
0.66
0.82
0.69
0.34
-0.09
-0.44
-0.60
-0.59
-0.48
-0.37
-0.27
-0.16
0.01
0.22
0.41
0.48
0.35
0.08
-0.21
-0.38
-0.34
-0.14
0.09
0.19
0.08
-0.18
-0.47
-0.62
-0.55
-0.29
0.05
0.33
0.47
0.48
0.41
0.36
0.37
0.45
0.57
0.68
0.74
0.72
0.63
0.50
0.35
0.21
0.12
0.07
0.07
0.09
0.11
0.10
0.05
-0.05
-0.18
-0.32
-0.44
-0.52
-0.54
-0.48
-0.39
-0.30
-0.27
-0.33
-0.47
-0.61
-0.64
-0.49
-0.18
0.19
0.44
0.43
0.13
-0.30
-0.65
-0.74
-0.52
-0.13
0.20
0.31
0.15
-0.16
-0.41
-0.47
-0.30
0.02
0.36
0.61
0.76
0.86
0.95
1.03
1.07
0.97
0.68
0.23
-0.29
-0.73
-0.96
-0.93
-0.71
-0.43
-0.26
-0.28
-0.48
-0.75
-0.91
-0.87
-0.62
-0.26
0.10
0.37
0.52
0.59
0.59
0.56
0.46
0.27
0.04
-0.18
-0.30
-0.25
-0.04
0.28
0.60
0.84
0.90
0.79
0.54
0.23
-0.00
-0.10
-0.04
0.10
0.22
0.20
0.02
-0.24
-0.46
-0.54
-0.44
-0.22
0.01
0.17
0.23
0.23
0.21
0.22
0.25
0.24
0.16
-0.00
-0.18
-0.32
-0.35
-0.28
-0.14
0.02
0.16
0.25
0.28
0.24
0.16
0.07
0.03
0.08
0.20
0.33
0.37
0.25
-0.04
-0.44
-0.81
-1.01
-0.97
-0.69
-0.26
0.17
0.47
0.60
0.54
0.37
0.15
-0.05
-0.18
-0.21
-0.12
0.07
0.28
0.44
0.47
0.33
0.07
-0.26
-0.56
-0.77
-0.87
-0.85
-0.72
-0.50
-0.23
0.01
0.16
0.19
0.14
0.09
0.17
0.40
0.75
1.06
1.19
1.05
0.69
0.27
-0.04
-0.15
-0.09
0.03
0.05
-0.09
-0.37
-0.69
-0.89
-0.86
-0.59
-0.16
0.27
0.58
0.65
0.52
0.28
0.04
-0.14
-0.28
-0.43
-0.63
-0.86
-1.01
-1.01
-0.82
-0.52
-0.19
0.08
0.28
0.45
0.62
0.76
0.83
0.78
0.61
0.41
0.26
0.20
0.22
0.24
0.23
0.18
0.11
0.08
0.12
0.20
0.27
0.28
0.22
0.09
-0.07
-0.23
-0.37
-0.51
-0.64
-0.77
-0.88
-0.90
-0.80
-0.54
-0.17
0.22
0.51
0.62
0.55
0.38
0.23
0.18
0.23
0.30
0.29
0.12
-0.16
-0.43
-0.58
-0.53
-0.35
-0.14
-0.00
0.00
-0.08
-0.18
-0.24
-0.23
-0.16
-0.03
0.16
0.39
0.60
0.70
0.64
0.41
0.07
-0.28
-0.55
-0.71
-0.75
-0.70
-0.55
-0.34
-0.11
0.08
0.15
0.09
-0.07
-0.24
-0.33
-0.33
-0.25
-0.15
-0.06
0.02
0.12
0.24
0.37
0.49
0.52
0.44
0.25
-0.02
-0.30
-0.52
-0.61
-0.55
-0.36
-0.10
0.17
0.41
0.61
0.76
0.86
0.86
0.77
0.63
0.51
0.47
0.54
0.67
0.77
0.77
0.68
0.53
0.38
0.27
0.18
0.05
-0.15
-0.41
-0.69
-0.89
-0.96
-0.86
-0.60
-0.28
0.02
0.22
0.29
0.24
0.12
-0.00
-0.10
-0.16
-0.21
-0.28
-0.37
-0.45
-0.47
-0.41
-0.28
-0.10
0.08
0.21
0.28
0.30
0.26
0.19
0.07
-0.11
-0.31
-0.45
-0.44
-0.23
0.12
0.47
0.66
0.59
0.32
0.01
-0.16
-0.10
0.11
0.30
0.29
-0.00
-0.49
-1.01
-1.38
-1.48
-1.35
-1.07
-0.74
-0.46
-0.24
-0.07
0.05
0.15
0.22
0.29
0.38
0.52
0.68
0.82
0.88
0.83
0.69
0.53
0.39
0.30
0.25
0.20
0.13
0.04
-0.01
0.02
0.12
0.24
0.27
0.16
-0.10
-0.44
-0.72
-0.83
-0.74
-0.52
-0.23
0.02
0.20
0.31
0.35
0.29
0.12
-0.17
-0.52
-0.82
-0.99
-0.98
-0.81
-0.55
-0.26
0.01
0.22
0.35
0.37
0.28
0.10
-0.10
-0.23
-0.25
-0.16
-0.01
0.14
0.27
0.37
0.49
0.64
0.79
0.91
0.94
0.88
0.75
0.59
0.43
0.26
0.12
0.01
-0.03
0.02
0.16
0.31
0.39
0.35
0.17
-0.05
-0.22
-0.25
-0.15
-0.01
0.07
-0.01
-0.24
-0.54
-0.79
-0.86
-0.72
-0.41
-0.05
0.21
0.30
0.21
-0.01
-0.25
-0.44
-0.52
-0.50
-0.44
-0.35
-0.25
-0.14
0.02
0.21
0.40
0.54
0.60
0.55
0.44
0.36
0.38
0.53
0.76
0.97
1.07
1.00
0.78
0.50
0.25
0.04
-0.15
-0.35
-0.58
-0.76
-0.80
-0.64
-0.35
-0.05
0.09
0.01
-0.24
-0.53
-0.69
-0.64
-0.42
-0.18
-0.07
-0.18
-0.48
-0.83
-1.10
-1.19
-1.11
-0.93
-0.75
-0.62
-0.50
-0.29
0.03
0.45
0.85
1.11
1.15
1.00
0.76
0.54
0.41
0.37
0.37
0.35
0.32
0.29
0.32
0.41
0.52
0.60
0.58
0.46
0.26
0.04
-0.15
-0.26
-0.30
-0.29
-0.27
-0.25
-0.22
-0.17
-0.08
0.00
0.05
0.03
-0.03
-0.06
0.00
0.15
0.30
0.37
0.32
0.17
-0.01
-0.16
-0.28
-0.43
-0.66
-1.00
-1.37
-1.65
-1.75
-1.63
-1.34
-1.00
-0.67
-0.38
-0.14
0.09
0.30
0.44
0.48
0.41
0.29
0.21
0.24
0.41
0.68
0.98
1.20
1.31
1.29
1.20
1.07
0.93
0.78
0.57
0.29
-0.04
-0.34
-0.50
-0.45
-0.19
0.17
0.48
0.60
0.53
0.35
0.19
0.13
0.17
0.25
0.27
0.20
0.06
-0.09
-0.18
-0.21
-0.22
-0.25
-0.34
-0.46
-0.58
-0.66
-0.72
-0.76
-0.81
-0.81
-0.73
-0.55
-0.32
-0.11
-0.04
-0.11
-0.26
-0.36
-0.30
-0.11
0.13
0.31
0.38
0.36
0.33
0.33
0.34
0.30
0.17
0.04
-0.01
0.12
0.38
0.64
0.72
0.52
0.09
-0.41
-0.78
-0.88
-0.74
-0.46
-0.19
-0.01
0.09
0.16
0.27
0.43
0.62
0.79
0.88
0.90
0.83
0.71
0.55
0.36
0.17
0.00
-0.13
-0.24
-0.33
-0.37
-0.32
-0.18
0.06
0.32
0.49
0.46
0.20
-0.24
-0.75
-1.18
-1.43
-1.47
-1.34
-1.12
-0.86
-0.62
-0.38
-0.12
0.17
0.48
0.72
0.82
0.73
0.47
0.15
-0.11
-0.22
-0.16
0.01
0.20
0.30
0.26
0.10
-0.16
-0.42
-0.62
-0.69
-0.60
-0.36
-0.06
0.19
0.30
0.22
0.01
-0.22
-0.33
-0.25
-0.02
0.24
0.40
0.41
0.29
0.18
0.19
0.36
0.64
0.88
0.96
0.83
0.54
0.23
0.02
-0.03
0.05
0.20
0.33
0.36
0.24
-0.00
-0.32
-0.60
-0.77
-0.76
-0.62
-0.39
-0.18
-0.08
-0.10
-0.20
-0.34
-0.46
-0.55
-0.62
-0.66
-0.63
-0.47
-0.15
0.28
0.74
1.05
1.14
0.99
0.68
0.36
0.12
0.02
0.02
0.08
0.14
0.19
0.21
0.15
-0.02
-0.29
-0.61
-0.86
-0.93
-0.77
-0.42
0.01
0.38
0.58
0.58
0.43
0.21
0.04
-0.05
-0.06
-0.01
0.06
0.14
0.19
0.21
0.15
0.02
-0.15
-0.29
-0.33
-0.24
-0.08
0.07
0.13
0.05
-0.11
-0.29
-0.41
-0.43
-0.36
-0.21
-0.02
0.18
0.35
0.48
0.52
0.48
0.36
0.18
-0.00
-0.13
-0.16
-0.08
0.08
0.25
0.36
0.39
0.37
0.36
0.41
0.48
0.54
0.51
0.37
0.16
-0.06
-0.25
-0.41
-0.53
-0.61
-0.59
-0.42
-0.11
0.28
0.63
0.79
0.70
0.37
-0.06
-0.45
-0.67
-0.66
-0.49
-0.29
-0.17
-0.18
-0.25
-0.28
-0.20
-0.03
0.13
0.16
-0.01
-0.33
-0.68
-0.92
-0.95
-0.80
-0.54
-0.26
0.01
0.27
0.57
0.89
1.17
1.32
1.25
0.96
0.50
-0.02
-0.47
-0.76
-0.85
-0.76
-0.55
-0.29
-0.02
0.22
0.45
0.63
0.75
0.75
0.63
0.42
0.21
0.07
0.04
0.13
0.29
0.45
0.54
0.49
0.29
-0.06
-0.47
-0.81
-0.94
-0.80
-0.41
0.07
0.48
0.68
0.66
0.49
0.26
0.05
-0.12
-0.25
-0.36
-0.42
-0.45
-0.45
-0.46
-0.48
-0.50
-0.50
-0.45
-0.34
-0.22
-0.09
0.03
0.15
0.25
0.29
0.25
0.11
-0.12
-0.34
-0.48
-0.46
-0.29
-0.05
0.19
0.35
0.41
0.38
0.30
0.17
0.00
-0.20
-0.43
-0.63
-0.78
-0.85
-0.82
-0.69
-0.47
-0.20
0.10
0.36
0.54
0.59
0.52
0.38
0.24
0.14
0.10
0.08
0.04
-0.05
-0.18
-0.30
-0.34
-0.26
-0.05
0.21
0.44
0.54
0.48
0.27
-0.05
-0.42
-0.75
-0.98
-1.07
-0.97
-0.73
-0.38
0.00
0.37
0.66
0.83
0.86
0.75
0.52
0.24
0.02
-0.04
0.06
0.28
0.50
0.61
0.57
0.44
0.32
0.28
0.33
0.42
0.47
0.46
0.39
0.32
0.29
0.29
0.29
0.24
0.13
-0.03
-0.16
-0.22
-0.20
-0.17
-0.19
-0.32
-0.55
-0.79
-0.94
-0.91
-0.74
-0.49
-0.28
-0.14
-0.09
-0.07
-0.08
-0.12
-0.21
-0.33
-0.43
-0.44
-0.31
-0.09
0.14
0.28
0.29
0.22
0.13
0.09
0.12
0.18
0.23
0.26
0.26
0.24
0.24
0.24
0.25
0.28
0.33
0.39
0.44
0.42
0.34
0.20
0.05
-0.08
-0.16
-0.19
-0.18
-0.15
-0.09
0.03
0.23
0.49
0.76
0.95
1.02
0.93
0.70
0.37
0.01
-0.32
-0.57
-0.71
-0.70
-0.57
-0.37
-0.19
-0.09
-0.11
-0.21
-0.36
-0.49
-0.60
-0.67
-0.71
-0.69
-0.58
-0.40
-0.17
0.03
0.12
0.07
-0.08
-0.26
-0.40
-0.44
-0.37
-0.20
0.02
0.21
0.30
0.24
0.03
-0.24
-0.49
-0.59
-0.49
-0.25
0.06
0.32
0.48
0.54
0.53
0.50
0.46
0.43
0.41
0.43
0.48
0.54
0.59
0.59
0.51
0.38
0.21
0.04
-0.10
-0.18
-0.19
-0.15
-0.06
-0.01
-0.03
-0.14
-0.31
-0.43
-0.41
-0.24
0.01
0.22
0.28
0.17
-0.04
-0.23
-0.28
-0.17
0.05
0.26
0.39
0.41
0.33
0.17
-0.02
-0.20
-0.34
-0.40
-0.36
-0.24
-0.10
-0.01
-0.04
-0.22
-0.51
-0.80
-0.97
-0.92
-0.63
-0.16
0.32
0.67
0.80
0.71
0.52
0.34
0.28
0.35
0.48
0.58
0.58
0.45
0.22
-0.06
-0.35
-0.60
-0.75
-0.73
-0.52
-0.14
0.31
0.71
0.91
0.83
0.48
-0.04
-0.55
-0.91
-1.01
-0.85
-0.53
-0.15
0.17
0.36
0.43
0.41
0.31
0.16
-0.05
-0.30
-0.55
-0.73
-0.77
-0.60
-0.24
0.25
0.75
1.13
1.28
1.18
0.88
0.49
0.08
-0.27
-0.56
-0.77
-0.90
-0.93
-0.86
-0.69
-0.50
-0.35
-0.27
-0.25
-0.23
-0.14
0.04
0.29
0.55
0.71
0.74
0.61
0.36
0.05
-0.24
-0.42
-0.45
-0.31
-0.06
0.21
0.41
0.48
0.44
0.34
0.25
0.18
0.14
0.09
0.05
0.06
0.18
0.43
0.74
1.03
1.18
1.15
0.93
0.62
0.31
0.06
-0.09
-0.16
-0.15
-0.11
-0.08
-0.10
-0.20
-0.36
-0.55
-0.74
-0.91
-1.03
-1.10
-1.10
-1.02
-0.89
-0.76
-0.68
-0.64
-0.59
-0.46
-0.20
0.12
0.39
0.49
0.41
0.24
0.13
0.20
0.43
0.76
1.07
1.27
1.32
1.20
0.92
0.51
0.07
-0.23
-0.27
0.03
0.54
1.05
1.30
1.16
0.67
0.03
-0.53
-0.88
-1.00
-0.96
-0.89
-0.84
-0.84
-0.84
-0.81
-0.76
-0.73
-0.78
-0.92
-1.08
-1.17
-1.04
-0.68
-0.14
0.41
0.77
0.82
0.56
0.14
-0.23
-0.40
-0.30
0.02
0.44
0.82
1.08
1.17
1.10
0.91
0.62
0.29
-0.04
-0.31
-0.47
-0.52
-0.46
-0.33
-0.16
0.03
0.21
0.35
0.43
0.42
0.33
0.19
0.05
-0.05
-0.11
-0.13
-0.14
-0.16
-0.16
-0.11
0.01
0.16
0.27
0.24
0.04
-0.31
-0.68
-0.92
-0.94
-0.73
-0.42
-0.12
0.07
0.14
0.15
0.15
0.17
0.17
0.13
0.07
0.06
0.17
0.40
0.66
0.79
0.67
0.30
-0.18
-0.60
-0.79
-0.72
-0.46
-0.13
0.17
0.37
0.47
0.47
0.38
0.22
0.02
-0.17
-0.32
-0.42
-0.46
-0.47
-0.46
-0.44
-0.41
-0.40
-0.43
-0.47
-0.53
-0.55
-0.50
-0.38
-0.20
0.03
0.27
0.49
0.66
0.73
0.68
0.48
0.17
-0.15
-0.38
-0.40
-0.19
0.19
0.62
0.93
1.03
0.91
0.67
0.43
0.29
0.30
0.40
0.51
0.54
0.45
0.30
0.13
-0.02
-0.16
-0.32
-0.52
-0.72
-0.86
-0.89
-0.77
-0.54
-0.29
-0.08
0.06
0.10
0.03
-0.12
-0.33
-0.53
-0.64
-0.60
-0.40
-0.11
0.15
0.29
0.29
0.18
0.04
-0.07
-0.14
-0.17
-0.14
-0.06
0.03
0.08
0.03
-0.12
-0.32
-0.45
-0.39
-0.13
0.29
0.72
1.06
1.24
1.25
1.12
0.87
0.49
0.05
-0.36
-0.61
-0.60
-0.33
0.09
0.45
0.57
0.41
0.05
-0.34
-0.58
-0.59
-0.41
-0.18
-0.01
0.06
0.06
0.06
0.11
0.19
0.26
0.25
0.18
0.11
0.05
0.04
0.04
0.06
0.12
0.26
0.53
0.87
1.14
1.19
0.90
0.34
-0.35
-0.91
-1.19
-1.16
-0.93
-0.64
-0.40
-0.23
-0.09
0.10
0.35
0.63
0.85
0.95
0.89
0.67
0.36
0.02
-0.26
-0.45
-0.50
-0.47
-0.41
-0.41
-0.55
-0.80
-1.07
-1.25
-1.25
-1.06
-0.79
-0.53
-0.38
-0.37
-0.46
-0.53
-0.52
-0.39
-0.20
-0.01
0.08
0.07
0.00
-0.05
-0.01
0.11
0.27
0.38
0.42
0.43
0.48
0.65
0.91
1.13
1.17
0.96
0.57
0.16
-0.07
-0.03
0.22
0.54
0.77
0.84
0.74
0.56
0.36
0.17
-0.01
-0.16
-0.25
-0.23
-0.08
0.17
0.39
0.45
0.28
-0.12
-0.58
-0.92
-0.99
-0.76
-0.34
0.07
0.34
0.40
0.31
0.14
-0.02
-0.16
-0.30
-0.42
-0.49
-0.44
-0.26
0.01
0.26
0.40
0.39
0.25
0.03
-0.18
-0.34
-0.42
-0.39
-0.25
-0.06
0.12
0.20
0.12
-0.09
-0.35
-0.54
-0.60
-0.56
-0.50
-0.50
-0.57
-0.66
-0.66
-0.52
-0.25
0.09
0.37
0.52
0.48
0.30
0.04
-0.22
-0.40
-0.49
-0.51
-0.50
-0.45
-0.36
-0.21
0.02
0.25
0.41
0.43
0.30
0.11
-0.02
-0.02
0.11
0.26
0.35
0.32
0.19
0.04
-0.06
-0.07
-0.01
0.07
0.16
0.27
0.42
0.62
0.84
0.98
0.97
0.74
0.34
-0.12
-0.47
-0.58
-0.42
-0.06
0.37
0.72
0.90
0.89
0.74
0.51
0.27
0.08
-0.02
0.01
0.15
0.37
0.58
0.70
0.69
0.57
0.39
0.23
0.12
0.06
0.01
-0.10
-0.28
-0.54
-0.80
-0.99
-1.06
-1.01
-0.86
-0.65
-0.43
-0.21
-0.02
0.13
0.21
0.18
0.07
-0.12
-0.34
-0.54
-0.72
-0.86
-0.95
-0.94
-0.79
-0.48
-0.07
0.32
0.59
0.70
0.67
0.60
0.55
0.52
0.45
0.26
-0.05
-0.40
-0.65
-0.69
-0.47
-0.08
0.35
0.68
0.80
0.74
0.53
0.26
0.02
-0.14
-0.21
-0.15
0.02
0.27
0.53
0.73
0.76
0.58
0.22
-0.23
-0.65
-0.92
-1.00
-0.88
-0.65
-0.37
-0.12
0.03
0.06
-0.04
-0.23
-0.43
-0.57
-0.60
-0.53
-0.43
-0.40
-0.48
-0.63
-0.74
-0.71
-0.46
-0.04
0.40
0.71
0.82
0.73
0.54
0.36
0.26
0.22
0.20
0.12
-0.03
-0.20
-0.28
-0.20
0.07
0.45
0.79
0.97
0.92
0.69
0.39
0.18
0.13
0.23
0.40
0.50
0.46
0.32
0.16
0.07
0.10
0.18
0.19
0.07
-0.19
-0.48
-0.69
-0.76
-0.71
-0.61
-0.52
-0.42
-0.27
-0.04
0.27
0.54
0.68
0.62
0.37
0.01
-0.34
-0.59
-0.67
-0.56
-0.32
-0.05
0.13
0.15
0.01
-0.20
-0.37
-0.40
-0.29
-0.14
-0.06
-0.11
-0.27
-0.44
-0.50
-0.42
-0.23
0.01
0.21
0.32
0.34
0.28
0.17
0.08
0.05
0.14
0.33
0.58
0.77
0.80
0.63
0.29
-0.08
-0.34
-0.40
-0.25
-0.01
0.24
0.42
0.55
0.65
0.75
0.81
0.75
0.54
0.19
-0.19
-0.47
-0.57
-0.52
-0.40
-0.31
-0.26
-0.21
-0.11
0.08
0.28
0.39
0.34
0.12
-0.15
-0.36
-0.38
-0.23
0.03
0.29
0.43
0.43
0.31
0.13
-0.07
-0.25
-0.41
-0.54
-0.63
-0.65
-0.59
-0.47
-0.33
-0.23
-0.17
-0.13
-0.07
0.05
0.24
0.44
0.55
0.52
0.32
0.02
-0.29
-0.50
-0.55
-0.44
-0.21
0.04
0.22
0.27
0.19
0.03
-0.14
-0.24
-0.24
-0.13
0.02
0.16
0.23
0.20
0.08
-0.12
-0.35
-0.56
-0.70
-0.73
-0.66
-0.50
-0.29
-0.10
0.03
0.08
0.05
-0.03
-0.14
-0.25
-0.30
-0.24
-0.03
0.32
0.73
1.10
1.34
1.38
1.22
0.92
0.57
0.24
-0.03
-0.22
-0.33
-0.36
-0.32
-0.23
-0.14
-0.09
-0.12
-0.20
-0.31
-0.42
-0.50
-0.53
-0.52
-0.46
-0.36
-0.22
-0.10
-0.03
-0.05
-0.13
-0.23
-0.26
-0.21
-0.09
0.02
0.04
-0.05
-0.22
-0.36
-0.38
-0.26
-0.03
0.22
0.40
0.48
0.50
0.51
0.53
0.55
0.55
0.51
0.46
0.45
0.53
0.68
0.83
0.85
0.68
0.33
-0.10
-0.47
-0.67
-0.66
-0.50
-0.28
-0.08
0.03
0.04
-0.03
-0.13
-0.18
-0.13
-0.00
0.14
0.22
0.16
-0.05
-0.33
-0.57
-0.68
-0.63
-0.48
-0.31
-0.17
-0.11
-0.09
-0.10
-0.11
-0.15
-0.24
-0.39
-0.57
-0.73
-0.77
-0.63
-0.33
0.06
0.40
0.61
0.67
0.64
0.63
0.72
0.94
1.23
1.45
1.53
1.39
1.08
0.67
0.30
0.04
-0.05
0.01
0.14
0.24
0.21
0.03
-0.25
-0.55
-0.76
-0.82
-0.73
-0.57
-0.42
-0.34
-0.35
-0.39
-0.39
-0.33
-0.23
-0.16
-0.17
-0.28
-0.41
-0.51
-0.53
-0.48
-0.42
-0.38
-0.36
-0.27
-0.05
0.29
0.69
0.97
1.02
0.82
0.46
0.08
-0.20
-0.32
-0.33
-0.28
-0.24
-0.20
-0.17
-0.14
-0.10
-0.04
0.05
0.22
0.48
0.80
1.06
1.15
1.01
0.66
0.21
-0.19
-0.43
-0.47
-0.34
-0.14
0.01
0.05
-0.04
-0.26
-0.51
-0.73
-0.83
-0.77
-0.57
-0.28
0.01
0.26
0.40
0.43
0.34
0.14
-0.10
-0.32
-0.46
-0.46
-0.35
-0.18
-0.01
0.10
0.15
0.16
0.18
0.21
0.24
0.23
0.15
0.00
-0.15
-0.23
-0.15
0.07
0.36
0.58
0.59
0.38
0.05
-0.24
-0.37
-0.32
-0.20
-0.13
-0.18
-0.31
-0.39
-0.33
-0.12
0.14
0.33
0.35
0.20
-0.04
-0.27
-0.41
-0.45
-0.40
-0.30
-0.18
-0.08
-0.01
0.02
0.01
-0.03
-0.05
-0.02
0.09
0.27
0.45
0.53
0.43
0.15
-0.22
-0.51
-0.59
-0.42
-0.06
0.35
0.70
0.94
1.09
1.19
1.25
1.25
1.16
0.97
0.71
0.44
0.16
-0.10
-0.38
-0.67
-0.94
-1.16
-1.27
-1.21
-0.98
-0.56
-0.03
0.46
0.74
0.73
0.44
0.05
-0.24
-0.29
-0.11
0.15
0.32
0.33
0.19
0.02
-0.08
-0.11
-0.14
-0.22
-0.38
-0.57
-0.69
-0.72
-0.65
-0.55
-0.45
-0.38
-0.33
-0.26
-0.17
-0.05
0.06
0.17
0.27
0.36
0.45
0.52
0.53
0.45
0.27
-0.02
-0.35
-0.66
-0.85
-0.88
-0.73
-0.47
-0.18
0.05
0.18
0.21
0.19
0.19
0.23
0.29
0.35
0.37
0.33
0.26
0.19
0.14
0.12
0.10
0.06
-0.04
-0.18
-0.32
-0.40
-0.35
-0.16
0.13
0.44
0.66
0.75
0.68
0.51
0.28
0.09
-0.03
-0.04
0.04
0.18
0.30
0.34
0.28
0.13
-0.03
-0.16
-0.25
-0.31
-0.36
-0.41
-0.41
-0.32
-0.15
0.05
0.17
0.17
0.06
-0.07
-0.12
-0.03
0.15
0.30
0.31
0.15
-0.12
-0.39
-0.55
-0.54
-0.39
-0.13
0.17
0.41
0.53
0.46
0.19
-0.21
-0.58
-0.80
-0.79
-0.58
-0.26
0.07
0.34
0.50
0.55
0.49
0.30
0.02
-0.27
-0.48
-0.51
-0.35
-0.07
0.19
0.33
0.30
0.15
-0.02
-0.09
-0.04
0.12
0.30
0.44
0.48
0.43
0.34
0.25
0.19
0.16
0.17
0.23
0.31
0.39
0.41
0.32
0.10
-0.22
-0.52
-0.69
-0.65
-0.44
-0.13
0.14
0.27
0.22
0.00
-0.30
-0.57
-0.69
-0.61
-0.33
0.06
0.43
0.63
0.58
0.32
-0.05
-0.35
-0.47
-0.37
-0.11
0.18
0.38
0.42
0.30
0.08
-0.19
-0.42
-0.62
-0.74
-0.76
-0.63
-0.35
0.04
0.39
0.54
0.35
-0.17
-0.82
-1.36
-1.53
-1.22
-0.53
0.32
1.05
1.44
1.44
1.11
0.62
0.16
-0.14
-0.24
-0.19
-0.11
-0.10
-0.18
-0.31
-0.36
-0.27
-0.02
0.29
0.55
0.69
0.70
0.64
0.57
0.51
0.47
0.42
0.37
0.33
0.30
0.25
0.14
-0.07
-0.32
-0.56
-0.69
-0.69
-0.56
-0.37
-0.17
-0.01
0.10
0.15
0.14
0.05
-0.08
-0.21
-0.28
-0.27
-0.20
-0.12
-0.11
-0.14
-0.17
-0.14
0.00
0.22
0.43
0.55
0.53
0.40
0.23
0.09
0.04
0.06
0.10
0.10
0.02
-0.15
-0.40
-0.68
-0.91
-1.00
-0.90
-0.61
-0.20
0.20
0.48
0.58
0.50
0.27
-0.04
-0.37
-0.65
-0.81
-0.78
-0.54
-0.15
0.26
0.55
0.62
0.50
0.29
0.10
-0.02
-0.06
-0.09
-0.09
-0.07
0.04
0.24
0.49
0.71
0.84
0.83
0.72
0.54
0.35
0.18
0.06
0.01
0.05
0.14
0.25
0.32
0.31
0.21
0.06
-0.09
-0.22
-0.31
-0.36
-0.37
-0.37
-0.34
-0.31
-0.29
-0.29
-0.28
-0.23
-0.15
-0.05
0.00
-0.02
-0.14
-0.29
-0.38
-0.34
-0.16
0.09
0.30
0.36
0.24
-0.01
-0.28
-0.45
-0.48
-0.35
-0.11
0.14
0.33
0.43
0.47
0.45
0.38
0.25
0.05
-0.18
-0.38
-0.44
-0.33
-0.07
0.21
0.39
0.38
0.18
-0.10
-0.33
-0.36
-0.17
0.17
0.50
0.68
0.61
0.33
-0.02
-0.31
-0.42
-0.34
-0.11
0.16
0.41
0.58
0.67
0.65
0.51
0.25
-0.09
-0.43
-0.67
-0.73
-0.60
-0.32
-0.03
0.17
0.19
0.05
-0.18
-0.39
-0.47
-0.42
-0.28
-0.12
0.00
0.10
0.23
0.42
0.65
0.85
0.90
0.72
0.35
-0.11
-0.49
-0.68
-0.67
-0.54
-0.44
-0.47
-0.66
-0.92
-1.10
-1.08
-0.85
-0.47
-0.09
0.18
0.30
0.29
0.24
0.22
0.28
0.39
0.52
0.63
0.68
0.67
0.62
0.53
0.41
0.31
0.21
0.14
0.09
0.03
-0.03
-0.06
-0.04
0.08
0.28
0.52
0.72
0.81
0.73
0.46
0.07
-0.34
-0.63
-0.69
-0.49
-0.09
0.36
0.66
0.72
0.51
0.15
-0.23
-0.51
-0.66
-0.71
-0.71
-0.67
-0.58
-0.45
-0.29
-0.18
-0.18
-0.29
-0.45
-0.56
-0.56
-0.43
-0.23
-0.05
0.04
0.04
-0.02
-0.11
-0.17
-0.21
-0.21
-0.18
-0.10
0.02
0.15
0.24
0.24
0.13
-0.03
-0.18
-0.24
-0.18
-0.05
0.12
0.23
0.26
0.21
0.10
-0.02
-0.10
-0.14
-0.12
-0.06
0.07
0.25
0.46
0.64
0.72
0.64
0.41
0.09
-0.22
-0.42
-0.46
-0.32
-0.06
0.28
0.62
0.88
1.02
0.98
0.76
0.39
-0.05
-0.47
-0.79
-0.97
-0.98
-0.87
-0.69
-0.51
-0.36
-0.22
-0.03
0.24
0.57
0.86
0.97
0.83
0.46
0.01
-0.34
-0.46
-0.33
-0.06
0.19
0.32
0.31
0.24
0.21
0.27
0.43
0.59
0.68
0.62
0.41
0.09
-0.27
-0.60
-0.84
-0.97
-1.00
-0.94
-0.81
-0.64
-0.44
-0.23
-0.02
0.19
0.36
0.50
0.61
0.69
0.74
0.75
0.70
0.56
0.35
0.13
-0.07
-0.23
-0.34
-0.41
-0.44
-0.42
-0.37
-0.30
-0.25
-0.26
-0.33
-0.38
-0.33
-0.12
0.22
0.55
0.71
0.62
0.31
-0.09
-0.39
-0.49
-0.37
-0.12
0.14
0.30
0.35
0.29
0.20
0.09
-0.01
-0.10
-0.17
-0.22
-0.23
-0.24
-0.28
-0.34
-0.42
-0.47
-0.45
-0.37
-0.28
-0.24
-0.27
-0.34
-0.37
-0.28
-0.10
0.13
0.30
0.34
0.25
0.04
-0.22
-0.47
-0.66
-0.76
-0.73
-0.57
-0.34
-0.12
0.03
0.12
0.21
0.37
0.64
0.94
1.15
1.17
0.98
0.68
0.40
0.27
0.34
0.53
0.74
0.83
0.72
0.43
0.04
-0.31
-0.51
-0.55
-0.46
-0.36
-0.30
-0.31
-0.32
-0.26
-0.09
0.17
0.43
0.59
0.59
0.43
0.15
-0.17
-0.46
-0.64
-0.68
-0.59
-0.41
-0.20
-0.04
0.04
0.04
-0.01
-0.09
-0.19
-0.29
-0.38
-0.42
-0.36
-0.14
0.20
0.58
0.86
0.94
0.81
0.52
0.20
-0.06
-0.20
-0.25
-0.26
-0.29
-0.30
-0.25
-0.09
0.16
0.43
0.59
0.58
0.38
0.08
-0.20
-0.36
-0.39
-0.33
-0.26
-0.22
-0.22
-0.21
-0.16
-0.04
0.12
0.28
0.40
0.43
0.35
0.15
-0.16
-0.52
-0.83
-0.96
-0.85
-0.47
0.06
0.60
0.97
1.07
0.90
0.53
0.10
-0.24
-0.41
-0.37
-0.16
0.15
0.46
0.66
0.69
0.55
0.29
0.00
-0.24
-0.40
-0.51
-0.59
-0.68
-0.77
-0.82
-0.81
-0.74
-0.66
-0.61
-0.63
-0.65
-0.62
-0.46
-0.18
0.15
0.43
0.59
0.60
0.51
0.36
0.23
0.12
0.06
0.05
0.09
0.15
0.22
0.23
0.18
0.06
-0.04
-0.05
0.06
0.28
0.53
0.70
0.73
0.63
0.43
0.22
0.06
-0.01
0.01
0.16
0.41
0.73
1.05
1.25
1.25
1.04
0.67
0.29
-0.00
-0.15
-0.20
-0.25
-0.36
-0.54
-0.72
-0.83
-0.86
-0.86
-0.91
-1.02
-1.16
-1.23
-1.13
-0.87
-0.53
-0.24
-0.10
-0.13
-0.27
-0.43
-0.54
-0.59
-0.58
-0.52
-0.40
-0.20
0.06
0.34
0.60
0.79
0.92
1.00
1.02
0.97
0.83
0.59
0.30
0.03
-0.16
-0.24
-0.26
-0.27
-0.30
-0.37
-0.44
-0.47
-0.44
-0.36
-0.23
-0.08
0.11
0.32
0.53
0.69
0.74
0.63
0.36
0.02
-0.29
-0.46
-0.46
-0.29
-0.05
0.17
0.32
0.36
0.32
0.25
0.17
0.11
0.09
0.11
0.14
0.18
0.20
0.20
0.18
0.17
0.18
0.21
0.26
0.27
0.21
0.05
-0.19
-0.48
-0.76
-0.95
-1.01
-0.91
-0.69
-0.42
-0.20
-0.07
-0.04
-0.08
-0.11
-0.10
-0.04
0.05
0.13
0.20
0.24
0.26
0.25
0.21
0.15
0.10
0.10
0.16
0.24
0.27
0.23
0.14
0.06
0.04
0.12
0.25
0.36
0.41
0.38
0.33
0.31
0.35
0.42
0.46
0.38
0.15
-0.20
-0.54
-0.75
-0.71
-0.38
0.12
0.60
0.88
0.82
0.47
-0.05
-0.56
-0.93
-1.09
-1.06
-0.88
-0.59
-0.22
0.17
0.50
0.72
0.76
0.66
0.48
0.31
0.21
0.18
0.13
-0.00
-0.25
-0.59
-0.90
-1.08
-1.09
-0.93
-0.68
-0.43
-0.25
-0.15
-0.11
-0.07
0.02
0.17
0.38
0.62
0.86
1.05
1.12
1.01
0.72
0.29
-0.16
-0.49
-0.59
-0.43
-0.11
0.22
0.43
0.48
0.43
0.35
0.30
0.28
0.25
0.16
0.06
0.02
0.09
0.25
0.42
0.46
0.33
0.07
-0.18
-0.31
-0.24
-0.05
0.13
0.13
-0.08
-0.41
-0.69
-0.76
-0.62
-0.35
-0.12
-0.08
-0.22
-0.43
-0.56
-0.51
-0.30
-0.07
0.05
-0.02
-0.23
-0.44
-0.53
-0.48
-0.34
-0.21
-0.15
-0.14
-0.09
0.07
0.39
0.79
1.17
1.39
1.38
1.16
0.78
0.33
-0.12
-0.54
-0.90
-1.17
-1.31
-1.28
-1.05
-0.65
-0.16
0.31
0.61
0.64
0.37
-0.12
-0.67
-1.07
-1.19
-0.98
-0.53
0.01
0.49
0.80
0.93
0.92
0.82
0.68
0.52
0.34
0.15
-0.01
-0.11
-0.11
0.00
0.18
0.38
0.51
0.56
0.53
0.49
0.50
0.57
0.67
0.71
0.65
0.49
0.28
0.09
-0.06
-0.16
-0.27
-0.39
-0.51
-0.60
-0.62
-0.52
-0.32
-0.06
0.18
0.31
0.27
0.04
-0.32
-0.66
-0.86
-0.83
-0.60
-0.30
-0.07
-0.01
-0.09
-0.24
-0.36
-0.37
-0.29
-0.19
-0.09
-0.03
0.03
0.13
0.29
0.46
0.55
0.53
0.37
0.15
-0.05
-0.17
-0.21
-0.23
-0.25
-0.30
-0.34
-0.31
-0.19
-0.02
0.13
0.16
0.03
-0.20
-0.44
-0.58
-0.54
-0.34
-0.06
0.20
0.39
0.48
0.48
0.42
0.35
0.29
0.32
0.48
0.75
1.05
1.21
1.09
0.67
0.07
-0.50
-0.86
-0.94
-0.82
-0.65
-0.55
-0.53
-0.53
-0.42
-0.18
0.11
0.33
0.38
0.26
0.04
-0.15
-0.21
-0.14
0.02
0.17
0.23
0.19
0.05
-0.15
-0.35
-0.51
-0.54
-0.39
-0.06
0.40
0.84
1.10
1.10
0.84
0.42
0.01
-0.27
-0.37
-0.35
-0.27
-0.20
-0.15
-0.11
-0.07
-0.02
0.02
0.04
0.05
0.06
0.12
0.22
0.32
0.37
0.32
0.15
-0.10
-0.33
-0.47
-0.47
-0.37
-0.23
-0.14
-0.16
-0.28
-0.46
-0.66
-0.80
-0.84
-0.75
-0.53
-0.21
0.12
0.38
0.50
0.48
0.35
0.23
0.16
0.18
0.24
0.30
0.33
0.33
0.36
0.44
0.55
0.64
0.63
0.49
0.24
-0.04
-0.23
-0.26
-0.13
0.12
0.37
0.54
0.60
0.57
0.50
0.44
0.37
0.25
0.04
-0.28
-0.63
-0.91
-1.01
-0.88
-0.59
-0.24
0.05
0.22
0.28
0.29
0.28
0.24
0.14
-0.07
-0.33
-0.54
-0.57
-0.37
-0.02
0.32
0.44
0.24
-0.24
-0.83
-1.29
-1.48
-1.36
-1.01
-0.57
-0.18
0.06
0.13
0.05
-0.13
-0.34
-0.50
-0.54
-0.41
-0.11
0.30
0.73
1.06
1.24
1.26
1.17
1.03
0.89
0.77
0.60
0.35
0.01
-0.39
-0.74
-0.93
-0.91
-0.70
-0.42
-0.19
-0.10
-0.16
-0.30
-0.41
-0.43
-0.35
-0.22
-0.11
-0.04
-0.00
0.05
0.15
0.28
0.40
0.46
0.42
0.30
0.16
0.05
0.03
0.08
0.17
0.24
0.28
0.26
0.21
0.16
0.11
0.07
0.02
-0.04
-0.12
-0.20
-0.25
-0.24
-0.17
-0.05
0.09
0.19
0.21
0.13
0.00
-0.10
-0.06
0.14
0.46
0.79
0.98
0.99
0.82
0.61
0.46
0.45
0.54
0.62
0.57
0.33
-0.06
-0.44
-0.66
-0.62
-0.36
-0.00
0.28
0.38
0.27
0.00
-0.31
-0.57
-0.73
-0.77
-0.67
-0.46
-0.18
0.08
0.23
0.20
-0.01
-0.32
-0.59
-0.75
-0.79
-0.76
-0.72
-0.69
-0.65
-0.52
-0.29
-0.01
0.25
0.44
0.55
0.60
0.62
0.59
0.48
0.30
0.09
-0.08
-0.13
-0.05
0.10
0.26
0.37
0.41
0.37
0.24
0.02
-0.27
-0.53
-0.66
-0.57
-0.27
0.12
0.43
0.53
0.41
0.17
-0.04
-0.11
-0.02
0.16
0.32
0.37
0.33
0.24
0.15
0.10
0.06
-0.01
-0.15
-0.36
-0.59
-0.74
-0.74
-0.54
-0.19
0.22
0.61
0.89
1.01
0.96
0.75
0.41
0.01
-0.38
-0.65
-0.74
-0.63
-0.38
-0.10
0.09
0.10
-0.08
-0.39
-0.72
-0.98
-1.08
-1.02
-0.81
-0.52
-0.20
0.10
0.34
0.50
0.54
0.48
0.34
0.16
0.01
-0.07
-0.04
0.07
0.23
0.40
0.57
0.71
0.82
0.85
0.78
0.62
0.41
0.21
0.06
-0.03
-0.11
-0.23
-0.42
-0.64
-0.81
-0.87
-0.78
-0.58
-0.33
-0.10
0.09
0.22
0.33
0.41
0.48
0.53
0.57
0.59
0.60
0.59
0.52
0.39
0.20
-0.07
-0.41
-0.77
-1.11
-1.34
-1.38
-1.21
-0.85
-0.42
-0.02
0.24
0.34
0.32
0.23
0.16
0.12
0.12
0.13
0.15
0.15
0.12
0.06
-0.04
-0.16
-0.27
-0.33
-0.28
-0.10
0.16
0.42
0.54
0.45
0.17
-0.20
-0.53
-0.69
-0.67
-0.52
-0.31
-0.11
0.06
0.21
0.31
0.34
0.27
0.14
0.04
0.08
0.31
0.68
1.04
1.22
1.16
0.91
0.61
0.41
0.37
0.47
0.59
0.60
0.43
0.10
-0.28
-0.62
-0.84
-0.96
-1.02
-1.08
-1.12
-1.08
-0.88
-0.49
0.01
0.50
0.84
0.95
0.84
0.58
0.26
-0.06
-0.35
-0.59
-0.74
-0.74
-0.53
-0.10
0.47
1.02
1.38
1.44
1.20
0.79
0.36
0.08
-0.01
0.04
0.13
0.18
0.18
0.16
0.15
0.13
0.02
-0.25
-0.69
-1.17
-1.53
-1.65
-1.49
-1.13
-0.69
-0.28
0.09
0.42
0.70
0.85
0.80
0.49
-0.01
-0.53
-0.88
-0.96
-0.79
-0.49
-0.22
-0.04
0.04
0.11
0.23
0.39
0.52
0.53
0.39
0.10
-0.25
-0.52
-0.62
-0.54
-0.33
-0.10
0.07
0.13
0.13
0.13
0.17
0.21
0.18
0.01
-0.29
-0.63
-0.86
-0.86
-0.59
-0.13
0.37
0.74
0.91
0.85
0.66
0.46
0.32
0.28
0.27
0.23
0.11
-0.07
-0.25
-0.36
-0.37
-0.33
-0.27
-0.24
-0.18
-0.04
0.24
0.61
0.98
1.22
1.25
1.07
0.72
0.30
-0.12
-0.45
-0.65
-0.67
-0.53
-0.30
-0.09
0.01
-0.03
-0.14
-0.21
-0.15
0.06
0.34
0.55
0.58
0.39
0.03
-0.40
-0.77
-0.99
-1.05
-0.98
-0.86
-0.73
-0.63
-0.52
-0.37
-0.17
0.05
0.24
0.36
0.42
0.46
0.55
0.70
0.84
0.92
0.87
0.71
0.53
0.45
0.50
0.65
0.77
0.74
0.55
0.25
-0.05
-0.22
-0.23
-0.13
0.02
0.10
0.08
-0.06
-0.26
-0.46
-0.59
-0.61
-0.57
-0.52
-0.54
-0.63
-0.72
-0.72
-0.56
-0.27
0.04
0.26
0.30
0.20
0.03
-0.11
-0.21
-0.28
-0.35
-0.41
-0.42
-0.35
-0.21
-0.05
0.04
0.05
0.01
0.02
0.15
0.39
0.66
0.83
0.83
0.66
0.40
0.13
-0.08
-0.22
-0.29
-0.29
-0.22
-0.09
0.07
0.20
0.26
0.22
0.11
-0.02
-0.09
-0.09
0.01
0.15
0.28
0.36
0.34
0.21
-0.02
-0.28
-0.50
-0.62
-0.63
-0.53
-0.38
-0.22
-0.08
0.01
0.05
0.04
0.01
-0.05
-0.12
-0.16
-0.21
-0.24
-0.26
-0.23
-0.12
0.07
0.31
0.52
0.62
0.58
0.41
0.21
0.06
0.02
0.05
0.09
0.07
-0.03
-0.16
-0.28
-0.36
-0.41
-0.46
-0.52
-0.59
-0.63
-0.59
-0.46
-0.29
-0.13
-0.03
0.02
0.02
0.05
0.14
0.33
0.60
0.87
1.02
0.99
0.79
0.55
0.42
0.47
0.67
0.87
0.91
0.73
0.40
0.07
-0.12
-0.14
-0.05
0.02
0.03
-0.02
-0.06
-0.06
-0.00
0.06
0.06
-0.02
-0.20
-0.44
-0.71
-0.95
-1.07
-1.04
-0.84
-0.52
-0.20
0.05
0.15
0.12
0.01
-0.11
-0.18
-0.18
-0.14
-0.07
0.00
0.07
0.13
0.18
0.23
0.28
0.33
0.36
0.36
0.31
0.17
-0.02
-0.24
-0.39
-0.42
-0.29
-0.05
0.17
0.27
0.19
-0.02
-0.24
-0.33
-0.24
-0.01
0.25
0.42
0.46
0.36
0.17
-0.07
-0.35
-0.61
-0.80
-0.83
-0.67
-0.33
0.06
0.35
0.44
0.29
-0.01
-0.33
-0.54
-0.56
-0.39
-0.10
0.24
0.55
0.77
0.87
0.83
0.67
0.43
0.17
-0.04
-0.16
-0.18
-0.13
-0.09
-0.11
-0.23
-0.41
-0.56
-0.62
-0.54
-0.35
-0.10
0.16
0.37
0.53
0.61
0.59
0.46
0.25
0.02
-0.12
-0.12
0.02
0.24
0.46
0.60
0.65
0.62
0.53
0.41
0.26
0.09
-0.05
-0.14
-0.15
-0.09
-0.04
-0.06
-0.16
-0.33
-0.49
-0.56
-0.54
-0.47
-0.40
-0.36
-0.34
-0.28
-0.15
0.01
0.16
0.20
0.11
-0.07
-0.24
-0.28
-0.17
0.07
0.33
0.51
0.57
0.54
0.48
0.41
0.32
0.14
-0.12
-0.43
-0.67
-0.72
-0.57
-0.29
-0.02
0.08
0.02
-0.15
-0.29
-0.35
-0.35
-0.39
-0.50
-0.63
-0.67
-0.53
-0.18
0.25
0.59
0.70
0.53
0.18
-0.19
-0.43
-0.48
-0.35
-0.11
0.17
0.44
0.65
0.80
0.86
0.80
0.61
0.32
-0.01
-0.27
-0.41
-0.39
-0.25
-0.09
0.01
0.01
-0.07
-0.16
-0.17
-0.09
0.05
0.16
0.18
0.06
-0.18
-0.46
-0.71
-0.89
-0.96
-0.93
-0.81
-0.63
-0.39
-0.11
0.19
0.48
0.74
0.94
1.05
1.05
0.95
0.76
0.55
0.39
0.31
0.30
0.30
0.25
0.12
-0.06
-0.24
-0.34
-0.34
-0.24
-0.10
0.04
0.14
0.19
0.20
0.18
0.15
0.13
0.13
0.13
0.09
-0.02
-0.21
-0.41
-0.58
-0.66
-0.64
-0.55
-0.41
-0.23
0.00
0.27
0.51
0.62
0.49
0.13
-0.37
-0.79
-0.96
-0.80
-0.43
-0.05
0.14
0.03
-0.31
-0.74
-1.05
-1.14
-0.95
-0.53
0.02
0.60
1.09
1.43
1.55
1.45
1.15
0.76
0.39
0.13
0.03
0.05
0.10
0.10
0.04
-0.04
-0.08
-0.03
0.06
0.12
0.05
-0.13
-0.37
-0.53
-0.49
-0.22
0.20
0.65
0.96
1.04
0.86
0.48
0.02
-0.36
-0.55
-0.48
-0.21
0.16
0.49
0.70
0.77
0.73
0.63
0.48
0.29
0.08
-0.11
-0.21
-0.18
-0.02
0.17
0.27
0.16
-0.15
-0.55
-0.85
-0.89
-0.62
-0.15
0.30
0.54
0.49
0.19
-0.18
-0.47
-0.59
-0.56
-0.45
-0.35
-0.33
-0.36
-0.41
-0.42
-0.37
-0.29
-0.21
-0.10
0.02
0.22
0.48
0.76
0.96
0.99
0.81
0.45
0.02
-0.38
-0.67
-0.84
-0.90
-0.90
-0.83
-0.71
-0.55
-0.39
-0.30
-0.29
-0.35
-0.46
-0.54
-0.56
-0.50
-0.36
-0.15
0.08
0.29
0.44
0.50
0.46
0.34
0.17
-0.02
-0.19
-0.31
-0.36
-0.33
-0.23
-0.08
0.11
0.32
0.51
0.63
0.63
0.46
0.18
-0.10
-0.20
-0.02
0.41
0.92
1.26
1.28
0.96
0.46
0.01
-0.21
-0.21
-0.07
0.04
0.02
-0.14
-0.37
-0.59
-0.76
-0.86
-0.90
-0.87
-0.73
-0.47
-0.10
0.28
0.58
0.71
0.66
0.48
0.26
0.05
-0.11
-0.24
-0.35
-0.43
-0.41
-0.25
0.06
0.47
0.87
1.14
1.19
1.01
0.68
0.31
0.06
0.02
0.16
0.42
0.66
0.76
0.69
0.47
0.21
-0.04
-0.25
-0.46
-0.67
-0.88
-1.00
-0.95
-0.71
-0.32
0.06
0.32
0.36
0.22
-0.01
-0.18
-0.25
-0.22
-0.18
-0.21
-0.34
-0.53
-0.69
-0.70
-0.49
-0.08
0.43
0.88
1.09
0.97
0.57
0.01
-0.53
-0.91
-1.07
-1.03
-0.84
-0.56
-0.21
0.18
0.57
0.86
0.95
0.76
0.32
-0.27
-0.83
-1.18
-1.24
-1.02
-0.66
-0.31
-0.07
0.04
0.05
0.06
0.09
0.09
0.02
-0.11
-0.23
-0.21
0.00
0.36
0.71
0.88
0.79
0.50
0.15
-0.10
-0.17
-0.10
0.04
0.16
0.19
0.13
0.00
-0.17
-0.32
-0.43
-0.45
-0.40
-0.30
-0.20
-0.11
-0.04
0.03
0.11
0.15
0.14
0.07
-0.04
-0.13
-0.12
-0.00
0.22
0.51
0.79
1.03
1.16
1.12
0.90
0.56
0.21
-0.04
-0.13
-0.10
-0.04
-0.04
-0.14
-0.29
-0.38
-0.36
-0.21
-0.03
0.10
0.14
0.10
0.02
-0.05
-0.10
-0.15
-0.21
-0.26
-0.27
-0.20
-0.06
0.08
0.16
0.11
-0.05
-0.27
-0.46
-0.56
-0.53
-0.39
-0.18
0.03
0.19
0.29
0.35
0.38
0.37
0.32
0.21
0.04
-0.13
-0.25
-0.26
-0.15
0.05
0.26
0.38
0.39
0.27
0.07
-0.15
-0.33
-0.42
-0.41
-0.30
-0.14
-0.01
0.03
-0.02
-0.15
-0.30
-0.45
-0.58
-0.68
-0.71
-0.61
-0.35
0.02
0.40
0.67
0.74
0.64
0.47
0.36
0.37
0.49
0.62
0.64
0.53
0.29
0.01
-0.20
-0.27
-0.20
-0.03
0.17
0.33
0.40
0.37
0.29
0.21
0.14
0.09
0.04
-0.01
-0.01
0.06
0.19
0.33
0.40
0.33
0.11
-0.20
-0.50
-0.74
-0.86
-0.88
-0.81
-0.68
-0.49
-0.31
-0.15
-0.07
-0.06
-0.11
-0.16
-0.16
-0.09
0.02
0.13
0.16
0.11
-0.03
-0.21
-0.37
-0.45
-0.43
-0.33
-0.18
-0.02
0.10
0.21
0.30
0.38
0.46
0.54
0.60
0.62
0.61
0.57
0.50
0.45
0.43
0.45
0.50
0.52
0.46
0.29
0.06
-0.17
-0.33
-0.38
-0.34
-0.26
-0.18
-0.14
-0.12
-0.12
-0.18
-0.32
-0.55
-0.87
-1.19
-1.38
-1.38
-1.13
-0.71
-0.24
0.16
0.38
0.42
0.32
0.18
0.10
0.14
0.28
0.48
0.65
0.74
0.71
0.59
0.41
0.24
0.13
0.11
0.19
0.33
0.48
0.55
0.48
0.28
-0.02
-0.27
-0.38
-0.28
-0.03
0.23
0.37
0.32
0.11
-0.15
-0.32
-0.35
-0.27
-0.15
-0.06
-0.03
-0.00
0.06
0.19
0.33
0.39
0.33
0.15
-0.07
-0.24
-0.26
-0.09
0.20
0.51
0.71
0.72
0.53
0.20
-0.17
-0.49
-0.71
-0.83
-0.87
-0.85
-0.80
-0.70
-0.58
-0.43
-0.28
-0.14
-0.02
0.09
0.20
0.29
0.33
0.32
0.27
0.23
0.19
0.17
0.12
0.02
-0.13
-0.26
-0.30
-0.23
-0.08
0.08
0.17
0.17
0.11
0.06
0.08
0.17
0.28
0.34
0.33
0.28
0.22
0.16
0.10
-0.01
-0.20
-0.44
-0.68
-0.86
-0.96
-0.97
-0.95
-0.91
-0.82
-0.63
-0.32
0.08
0.45
0.68
0.70
0.54
0.33
0.22
0.26
0.44
0.68
0.85
0.92
0.90
0.87
0.88
0.93
0.94
0.84
0.56
0.11
-0.42
-0.86
-1.03
-0.88
-0.47
-0.02
0.24
0.12
-0.34
-0.97
-1.50
-1.73
-1.61
-1.28
-0.91
-0.65
-0.51
-0.40
-0.23
0.04
0.34
0.57
0.69
0.74
0.84
1.05
1.33
1.55
1.55
1.25
0.74
0.19
-0.17
-0.23
-0.01
0.33
0.61
0.68
0.51
0.17
-0.23
-0.58
-0.84
-1.00
-1.07
-1.03
-0.89
-0.62
-0.28
0.05
0.26
0.32
0.26
0.18
0.17
0.24
0.33
0.35
0.27
0.14
0.05
0.07
0.14
0.16
-0.01
-0.40
-0.90
-1.33
-1.51
-1.36
-0.93
-0.38
0.14
0.47
0.58
0.51
0.37
0.27
0.28
0.38
0.49
0.54
0.55
0.55
0.62
0.76
0.91
0.93
0.73
0.29
-0.27
-0.80
-1.17
-1.31
-1.26
-1.10
-0.89
-0.67
-0.43
-0.18
0.07
0.25
0.32
0.28
0.18
0.09
0.06
0.11
0.17
0.14
0.01
-0.20
-0.33
-0.27
0.05
0.50
0.92
1.11
1.02
0.75
0.47
0.32
0.32
0.38
0.36
0.20
-0.04
-0.24
-0.28
-0.13
0.15
0.42
0.58
0.57
0.40
0.14
-0.15
-0.41
-0.62
-0.77
-0.88
-0.97
-1.02
-1.01
-0.89
-0.63
-0.28
0.06
0.30
0.38
0.35
0.31
0.33
0.43
0.54
0.58
0.50
0.30
0.07
-0.09
-0.15
-0.10
-0.00
0.07
0.08
0.02
-0.04
-0.10
-0.15
-0.24
-0.43
-0.70
-0.98
-1.13
-1.02
-0.64
-0.10
0.42
0.75
0.83
0.71
0.55
0.47
0.50
0.58
0.62
0.58
0.49
0.43
0.47
0.59
0.73
0.76
0.62
0.35
0.02
-0.26
-0.43
-0.52
-0.57
-0.62
-0.68
-0.76
-0.86
-0.95
-1.03
-1.06
-1.00
-0.85
-0.64
-0.45
-0.33
-0.33
-0.40
-0.47
-0.47
-0.37
-0.19
0.03
0.24
0.39
0.45
0.41
0.27
0.08
-0.14
-0.33
-0.44
-0.44
-0.30
-0.03
0.35
0.73
1.02
1.13
1.04
0.80
0.50
0.28
0.21
0.29
0.45
0.64
0.77
0.82
0.76
0.60
0.36
0.09
-0.14
-0.27
-0.25
-0.09
0.16
0.41
0.58
0.63
0.56
0.42
0.27
0.14
0.03
-0.09
-0.24
-0.41
-0.58
-0.68
-0.65
-0.45
-0.14
0.17
0.36
0.34
0.09
-0.30
-0.72
-1.05
-1.20
-1.14
-0.89
-0.51
-0.10
0.27
0.54
0.68
0.69
0.61
0.48
0.33
0.20
0.10
0.01
-0.06
-0.11
-0.15
-0.17
-0.20
-0.21
-0.22
-0.22
-0.22
-0.21
-0.13
0.02
0.24
0.46
0.58
0.54
0.31
-0.03
-0.35
-0.55
-0.55
-0.36
-0.06
0.26
0.52
0.67
0.70
0.64
0.52
0.39
0.27
0.17
0.09
0.00
-0.10
-0.23
-0.38
-0.53
-0.65
-0.71
-0.67
-0.53
-0.32
-0.13
-0.04
-0.07
-0.21
-0.36
-0.44
-0.43
-0.36
-0.32
-0.34
-0.42
-0.47
-0.43
-0.29
-0.16
-0.14
-0.29
-0.55
-0.74
-0.70
-0.38
0.12
0.58
0.81
0.72
0.40
0.07
-0.09
0.00
0.27
0.56
0.71
0.68
0.52
0.34
0.23
0.23
0.32
0.42
0.49
0.51
0.47
0.40
0.34
0.31
0.33
0.37
0.37
0.28
0.07
-0.21
-0.50
-0.70
-0.80
-0.81
-0.78
-0.74
-0.67
-0.55
-0.37
-0.17
-0.04
-0.02
-0.14
-0.31
-0.43
-0.45
-0.35
-0.21
-0.09
-0.04
-0.05
-0.08
-0.09
-0.09
-0.07
-0.04
0.02
0.14
0.35
0.62
0.87
1.04
1.06
0.94
0.73
0.48
0.23
0.03
-0.12
-0.20
-0.19
-0.12
-0.01
0.09
0.16
0.21
0.27
0.35
0.45
0.52
0.49
0.29
-0.05
-0.48
-0.89
-1.18
-1.28
-1.15
-0.83
-0.36
0.11
0.48
0.66
0.63
0.47
0.27
0.17
0.21
0.34
0.48
0.51
0.39
0.16
-0.10
-0.29
-0.35
-0.28
-0.15
-0.02
0.03
-0.02
-0.15
-0.30
-0.42
-0.47
-0.44
-0.34
-0.17
0.06
0.31
0.54
0.65
0.60
0.37
0.01
-0.36
-0.61
-0.66
-0.54
-0.31
-0.08
0.06
0.11
0.10
0.08
0.09
0.12
0.13
0.11
0.07
0.08
0.18
0.37
0.57
0.66
0.55
0.25
-0.14
-0.45
-0.52
-0.35
-0.03
0.22
0.26
0.03
-0.36
-0.69
-0.79
-0.58
-0.13
0.40
0.83
1.06
1.06
0.90
0.63
0.33
0.03
-0.19
-0.31
-0.29
-0.17
-0.05
-0.00
-0.08
-0.25
-0.40
-0.45
-0.38
-0.23
-0.08
-0.02
-0.06
-0.16
-0.26
-0.29
-0.25
-0.17
-0.11
-0.09
-0.09
-0.07
0.01
0.13
0.20
0.17
0.00
-0.23
-0.42
-0.47
-0.38
-0.22
-0.11
-0.12
-0.22
-0.29
-0.20
0.05
0.38
0.64
0.70
0.52
0.17
-0.22
-0.52
-0.64
-0.58
-0.39
-0.15
0.06
0.20
0.25
0.23
0.17
0.11
0.06
0.04
0.02
-0.03
-0.11
-0.20
-0.25
-0.21
-0.07
0.14
0.31
0.36
0.28
0.10
-0.08
-0.19
-0.20
-0.16
-0.12
-0.11
-0.10
-0.04
0.10
0.29
0.44
0.50
0.43
0.28
0.14
0.05
0.02
0.02
0.01
-0.01
-0.05
-0.05
0.01
0.13
0.31
0.51
0.69
0.81
0.83
0.69
0.41
0.03
-0.32
-0.52
-0.50
-0.29
-0.02
0.18
0.20
0.07
-0.10
-0.19
-0.16
-0.07
-0.02
-0.09
-0.26
-0.41
-0.45
-0.32
-0.06
0.23
0.43
0.49
0.39
0.16
-0.11
-0.37
-0.54
-0.58
-0.53
-0.43
-0.35
-0.32
-0.30
-0.24
-0.11
0.05
0.16
0.16
0.04
-0.17
-0.37
-0.51
-0.57
-0.56
-0.50
-0.38
-0.16
0.16
0.52
0.83
1.00
1.02
0.96
0.90
0.89
0.87
0.77
0.48
0.04
-0.44
-0.76
-0.84
-0.66
-0.35
-0.07
0.08
0.10
0.02
-0.06
-0.12
-0.15
-0.18
-0.19
-0.17
-0.11
-0.03
0.03
0.01
-0.09
-0.24
-0.36
-0.42
-0.43
-0.45
-0.51
-0.59
-0.62
-0.52
-0.26
0.13
0.51
0.74
0.73
0.50
0.16
-0.13
-0.27
-0.21
0.00
0.25
0.45
0.53
0.51
0.45
0.39
0.38
0.41
0.43
0.40
0.30
0.15
-0.01
-0.15
-0.25
-0.29
-0.30
-0.30
-0.31
-0.35
-0.42
-0.47
-0.48
-0.39
-0.21
0.02
0.21
0.27
0.14
-0.16
-0.51
-0.81
-0.91
-0.78
-0.42
0.06
0.50
0.75
0.70
0.36
-0.16
-0.64
-0.91
-0.88
-0.63
-0.30
-0.00
0.21
0.39
0.62
0.91
1.18
1.31
1.20
0.89
0.52
0.26
0.26
0.52
0.94
1.34
1.54
1.44
1.06
0.51
-0.02
-0.39
-0.56
-0.59
-0.61
-0.71
-0.89
-1.03
-1.04
-0.86
-0.58
-0.32
-0.20
-0.23
-0.32
-0.35
-0.23
0.00
0.22
0.29
0.15
-0.13
-0.43
-0.63
-0.65
-0.53
-0.35
-0.17
-0.05
0.04
0.12
0.20
0.26
0.27
0.24
0.17
0.12
0.15
0.24
0.36
0.42
0.37
0.21
0.01
-0.13
-0.16
-0.07
0.08
0.18
0.17
0.07
-0.07
-0.19
-0.21
-0.14
-0.01
0.14
0.28
0.39
0.47
0.48
0.36
0.06
-0.37
-0.82
-1.15
-1.23
-1.05
-0.72
-0.39
-0.20
-0.19
-0.32
-0.47
-0.54
-0.49
-0.31
-0.02
0.34
0.72
1.06
1.26
1.24
0.99
0.56
0.07
-0.34
-0.57
-0.56
-0.36
-0.04
0.28
0.49
0.54
0.46
0.28
0.09
-0.06
-0.12
-0.08
0.08
0.32
0.59
0.83
0.95
0.89
0.64
0.26
-0.16
-0.48
-0.63
-0.56
-0.32
-0.00
0.27
0.39
0.31
0.03
-0.41
-0.89
-1.31
-1.53
-1.49
-1.18
-0.69
-0.19
0.17
0.29
0.23
0.08
-0.02
-0.01
0.04
0.06
-0.03
-0.18
-0.30
-0.28
-0.11
0.15
0.38
0.47
0.41
0.26
0.13
0.09
0.14
0.23
0.27
0.20
0.03
-0.20
-0.40
-0.51
-0.48
-0.30
-0.02
0.29
0.57
0.76
0.84
0.83
0.73
0.58
0.42
0.28
0.16
0.08
0.03
0.01
0.02
0.04
0.03
-0.05
-0.23
-0.47
-0.68
-0.73
-0.56
-0.17
0.33
0.81
1.11
1.19
1.03
0.71
0.28
-0.18
-0.57
-0.80
-0.82
-0.64
-0.31
0.02
0.22
0.26
0.16
0.02
-0.07
-0.08
-0.02
0.05
0.09
0.06
-0.04
-0.19
-0.34
-0.44
-0.45
-0.39
-0.33
-0.35
-0.51
-0.75
-0.98
-1.06
-0.93
-0.62
-0.26
0.03
0.16
0.15
0.07
-0.03
-0.12
-0.21
-0.27
-0.24
-0.09
0.20
0.55
0.87
1.05
1.07
0.96
0.80
0.65
0.53
0.41
0.30
0.18
0.07
-0.04
-0.16
-0.30
-0.46
-0.60
-0.65
-0.61
-0.48
-0.33
-0.23
-0.20
-0.22
-0.23
-0.16
0.01
0.24
0.47
0.65
0.74
0.74
0.68
0.56
0.38
0.14
-0.15
-0.42
-0.61
-0.64
-0.51
-0.26
-0.01
0.17
0.24
0.23
0.19
0.15
0.11
0.05
-0.02
-0.07
-0.04
0.07
0.24
0.39
0.44
0.39
0.28
0.14
0.02
-0.09
-0.22
-0.35
-0.40
-0.32
-0.09
0.22
0.47
0.52
0.35
0.02
-0.31
-0.50
-0.52
-0.42
-0.33
-0.33
-0.42
-0.53
-0.55
-0.42
-0.13
0.26
0.66
0.97
1.14
1.15
1.01
0.74
0.41
0.07
-0.22
-0.41
-0.47
-0.39
-0.22
-0.03
0.08
0.06
-0.10
-0.31
-0.47
-0.52
-0.47
-0.40
-0.40
-0.50
-0.64
-0.73
-0.68
-0.49
-0.22
0.02
0.17
0.23
0.23
0.20
0.17
0.11
0.03
-0.02
0.03
0.19
0.45
0.72
0.87
0.81
0.50
-0.02
-0.59
-1.07
-1.30
-1.22
-0.86
-0.39
0.00
0.16
0.04
-0.28
-0.61
-0.78
-0.73
-0.47
-0.14
0.12
0.25
0.24
0.14
0.05
-0.00
-0.00
0.02
0.03
0.02
0.03
0.09
0.21
0.34
0.43
0.40
0.27
0.08
-0.05
-0.08
0.03
0.20
0.35
0.39
0.29
0.07
-0.18
-0.37
-0.40
-0.26
0.03
0.37
0.66
0.80
0.79
0.66
0.49
0.36
0.32
0.35
0.43
0.51
0.52
0.44
0.27
0.08
-0.08
-0.17
-0.19
-0.21
-0.28
-0.42
-0.57
-0.65
-0.58
-0.36
-0.06
0.25
0.47
0.58
0.58
0.49
0.36
0.20
0.05
-0.05
-0.06
0.03
0.18
0.33
0.39
0.34
0.16
-0.08
-0.33
-0.52
-0.64
-0.69
-0.70
-0.72
-0.77
-0.86
-0.92
-0.90
-0.75
-0.48
-0.17
0.09
0.24
0.31
0.36
0.45
0.57
0.67
0.70
0.60
0.39
0.11
-0.15
-0.32
-0.36
-0.25
-0.03
0.23
0.44
0.51
0.43
0.23
-0.00
-0.19
-0.29
-0.30
-0.25
-0.14
0.01
0.21
0.45
0.68
0.84
0.86
0.72
0.42
0.04
-0.33
-0.59
-0.66
-0.57
-0.38
-0.20
-0.11
-0.09
-0.10
-0.05
0.10
0.30
0.47
0.53
0.42
0.20
-0.06
-0.24
-0.28
-0.16
0.07
0.30
0.44
0.45
0.32
0.11
-0.13
-0.35
-0.56
-0.73
-0.86
-0.90
-0.82
-0.62
-0.32
0.00
0.28
0.49
0.63
0.71
0.70
0.58
0.31
-0.05
-0.35
-0.43
-0.22
0.20
0.61
0.77
0.53
-0.03
-0.71
-1.22
-1.38
-1.18
-0.73
-0.22
0.22
0.54
0.73
0.84
0.87
0.84
0.71
0.51
0.30
0.13
0.05
0.08
0.16
0.23
0.25
0.21
0.18
0.19
0.27
0.38
0.46
0.43
0.28
0.06
-0.17
-0.34
-0.41
-0.38
-0.29
-0.16
-0.00
0.15
0.25
0.27
0.19
0.04
-0.10
-0.16
-0.06
0.17
0.48
0.73
0.79
0.64
0.29
-0.13
-0.51
-0.77
-0.89
-0.93
-0.94
-0.95
-0.95
-0.90
-0.78
-0.58
-0.35
-0.17
-0.07
-0.05
-0.04
0.03
0.20
0.45
0.69
0.81
0.76
0.56
0.30
0.11
0.04
0.10
0.25
0.39
0.47
0.46
0.36
0.18
-0.04
-0.25
-0.42
-0.49
-0.45
-0.32
-0.15
-0.04
-0.06
-0.25
-0.59
-0.98
-1.27
-1.34
-1.13
-0.67
-0.13
0.34
0.60
0.63
0.49
0.27
0.08
-0.05
-0.12
-0.15
-0.15
-0.11
-0.04
0.05
0.10
0.07
-0.06
-0.24
-0.39
-0.46
-0.42
-0.35
-0.31
-0.33
-0.37
-0.33
-0.14
0.19
0.53
0.75
0.73
0.49
0.18
-0.05
-0.08
0.10
0.37
0.62
0.76
0.77
0.66
0.50
0.29
0.07
-0.13
-0.27
-0.30
-0.20
0.01
0.24
0.41
0.44
0.31
0.09
-0.12
-0.22
-0.20
-0.07
0.05
0.10
0.03
-0.13
-0.30
-0.40
-0.40
-0.28
-0.08
0.15
0.37
0.56
0.67
0.69
0.58
0.33
-0.01
-0.36
-0.62
-0.73
-0.65
-0.42
-0.14
0.10
0.22
0.20
0.07
-0.15
-0.40
-0.66
-0.92
-1.16
-1.35
-1.44
-1.38
-1.19
-0.90
-0.60
-0.36
-0.19
-0.06
0.08
0.30
0.60
0.91
1.14
1.22
1.08
0.77
0.40
0.10
0.01
0.15
0.47
0.83
1.07
1.11
0.97
0.75
0.59
0.58
0.69
0.83
0.86
0.69
0.33
-0.12
-0.53
-0.78
-0.83
-0.73
-0.53
-0.32
-0.15
-0.03
0.04
0.05
0.02
-0.05
-0.14
-0.18
-0.13
0.03
0.26
0.49
0.61
0.54
0.25
-0.18
-0.64
-0.96
-1.04
-0.84
-0.44
0.01
0.35
0.45
0.31
0.02
-0.28
-0.46
-0.47
-0.37
-0.26
-0.22
-0.28
-0.38
-0.44
-0.39
-0.27
-0.18
-0.23
-0.48
-0.85
-1.14
-1.14
-0.74
-0.03
0.77
1.37
1.60
1.44
1.07
0.67
0.39
0.23
0.10
-0.08
-0.32
-0.51
-0.52
-0.29
0.12
0.58
0.87
0.88
0.59
0.11
-0.42
-0.86
-1.10
-1.13
-0.96
-0.63
-0.22
0.18
0.48
0.59
0.48
0.19
-0.17
-0.46
-0.57
-0.46
-0.20
0.14
0.47
0.73
0.91
1.00
1.00
0.89
0.64
0.29
-0.12
-0.48
-0.70
-0.75
-0.67
-0.53
-0.39
-0.30
-0.25
-0.20
-0.12
0.02
0.19
0.35
0.46
0.50
0.45
0.36
0.25
0.19
0.20
0.30
0.44
0.60
0.70
0.70
0.57
0.34
0.07
-0.17
-0.34
-0.43
-0.48
-0.55
-0.65
-0.76
-0.79
-0.68
-0.46
-0.22
-0.09
-0.15
-0.36
-0.58
-0.63
-0.40
0.08
0.63
1.06
1.20
1.02
0.61
0.13
-0.27
-0.51
-0.58
-0.57
-0.58
-0.66
-0.77
-0.83
-0.74
-0.47
-0.08
0.32
0.58
0.63
0.49
0.24
-0.00
-0.15
-0.19
-0.16
-0.08
0.02
0.12
0.20
0.23
0.21
0.16
0.14
0.20
0.38
0.62
0.80
0.83
0.66
0.39
0.14
0.03
0.10
0.25
0.33
0.23
-0.01
-0.28
-0.44
-0.40
-0.19
0.08
0.31
0.46
0.55
0.63
0.73
0.82
0.82
0.67
0.38
0.02
-0.31
-0.54
-0.64
-0.61
-0.49
-0.29
-0.07
0.12
0.21
0.15
-0.06
-0.35
-0.61
-0.74
-0.70
-0.55
-0.37
-0.25
-0.24
-0.32
-0.42
-0.48
-0.46
-0.37
-0.28
-0.20
-0.14
-0.10
-0.06
-0.02
-0.02
-0.08
-0.17
-0.27
-0.30
-0.22
-0.04
0.17
0.34
0.45
0.48
0.46
0.41
0.36
0.31
0.25
0.18
0.12
0.07
0.02
-0.05
-0.14
-0.23
-0.30
-0.31
-0.25
-0.16
-0.07
-0.02
-0.00
0.01
0.06
0.18
0.32
0.42
0.39
0.17
-0.19
-0.56
-0.80
-0.79
-0.52
-0.09
0.37
0.72
0.86
0.81
0.60
0.31
-0.01
-0.32
-0.57
-0.74
-0.80
-0.70
-0.47
-0.16
0.16
0.37
0.39
0.18
-0.19
-0.60
-0.90
-0.99
-0.83
-0.50
-0.10
0.24
0.45
0.53
0.52
0.46
0.39
0.32
0.24
0.16
0.12
0.18
0.36
0.63
0.87
0.95
0.75
0.24
-0.46
-1.13
-1.55
-1.58
-1.25
-0.73
-0.21
0.16
0.33
0.38
0.39
0.43
0.46
0.44
0.34
0.19
0.08
0.08
0.22
0.45
0.67
0.80
0.82
0.77
0.71
0.68
0.68
0.66
0.56
0.37
0.11
-0.12
-0.24
-0.19
0.00
0.22
0.32
0.23
-0.01
-0.30
-0.50
-0.53
-0.41
-0.24
-0.13
-0.16
-0.32
-0.51
-0.60
-0.50
-0.20
0.19
0.53
0.68
0.58
0.29
-0.05
-0.28
-0.31
-0.17
0.05
0.19
0.19
0.03
-0.21
-0.42
-0.54
-0.59
-0.60
-0.63
-0.71
-0.81
-0.85
-0.79
-0.60
-0.33
-0.08
0.10
0.17
0.14
0.04
-0.10
-0.25
-0.38
-0.46
-0.43
-0.25
0.11
0.57
1.01
1.25
1.20
0.84
0.29
-0.23
-0.54
-0.57
-0.33
0.02
0.32
0.45
0.39
0.21
0.04
-0.03
0.04
0.22
0.43
0.59
0.66
0.65
0.59
0.50
0.38
0.20
-0.04
-0.36
-0.71
-0.99
-1.13
-1.09
-0.88
-0.59
-0.33
-0.19
-0.19
-0.30
-0.44
-0.54
-0.56
-0.50
-0.36
-0.15
0.11
0.37
0.57
0.62
0.51
0.31
0.15
0.14
0.34
0.63
0.88
0.92
0.72
0.38
0.04
-0.20
-0.31
-0.39
-0.53
-0.77
-1.03
-1.19
-1.11
-0.79
-0.30
0.19
0.53
0.67
0.61
0.42
0.18
-0.06
-0.24
-0.34
-0.32
-0.15
0.15
0.51
0.85
1.06
1.10
0.98
0.75
0.49
0.28
0.14
0.09
0.10
0.12
0.11
0.05
-0.05
-0.13
-0.15
-0.07
0.07
0.18
0.18
0.05
-0.16
-0.36
-0.45
-0.40
-0.23
-0.04
0.10
0.13
0.02
-0.19
-0.44
-0.64
-0.74
-0.70
-0.56
-0.39
-0.23
-0.16
-0.16
-0.22
-0.29
-0.36
-0.43
-0.47
-0.48
-0.44
-0.33
-0.18
-0.01
0.11
0.18
0.18
0.18
0.22
0.31
0.42
0.49
0.44
0.27
0.04
-0.14
-0.14
0.07
0.42
0.75
0.95
0.95
0.81
0.63
0.48
0.35
0.20
-0.01
-0.27
-0.48
-0.55
-0.44
-0.24
-0.08
-0.07
-0.25
-0.52
-0.72
-0.73
-0.54
-0.22
0.13
0.40
0.59
0.68
0.70
0.66
0.58
0.49
0.43
0.44
0.52
0.65
0.73
0.72
0.58
0.35
0.08
-0.16
-0.33
-0.41
-0.40
-0.31
-0.15
0.02
0.11
0.07
-0.10
-0.32
-0.49
-0.54
-0.49
-0.40
-0.35
-0.36
-0.38
-0.30
-0.12
0.14
0.35
0.40
0.28
0.04
-0.19
-0.33
-0.37
-0.35
-0.34
-0.36
-0.40
-0.44
-0.43
-0.36
-0.25
-0.11
0.04
0.21
0.37
0.49
0.52
0.41
0.19
-0.09
-0.36
-0.57
-0.70
-0.77
-0.81
-0.80
-0.70
-0.48
-0.16
0.18
0.43
0.52
0.45
0.25
0.01
-0.20
-0.34
-0.36
-0.27
-0.08
0.19
0.47
0.69
0.80
0.80
0.72
0.61
0.53
0.49
0.49
0.51
0.52
0.50
0.45
0.37
0.27
0.17
0.11
0.10
0.15
0.23
0.30
0.27
0.12
-0.14
-0.45
-0.68
-0.78
-0.70
-0.50
-0.25
-0.03
0.13
0.24
0.33
0.41
0.45
0.39
0.17
-0.21
-0.67
-1.08
-1.29
-1.23
-0.90
-0.44
0.01
0.30
0.40
0.35
0.26
0.20
0.19
0.20
0.16
0.05
-0.12
-0.25
-0.24
-0.06
0.27
0.64
0.93
1.07
1.05
0.92
0.76
0.58
0.38
0.12
-0.17
-0.46
-0.66
-0.72
-0.65
-0.52
-0.42
-0.42
-0.51
-0.62
-0.66
-0.58
