1544027336.00
64.000000
-0.00
-0.00
-0.00
-0.00
-0.00
-0.00
-0.00
-0.00
-0.00
-0.00
0.00
0.01
0.01
-0.00
-0.03
-0.05
-0.05
0.00
0.13
0.36
0.66
1.01
1.37
1.72
2.06
2.40
2.79
3.24
3.80
4.43
5.09
5.72
6.30
6.85
7.44
8.12
8.97
10.07
11.35
12.70
14.00
15.20
16.35
17.60
19.17
21.20
23.93
27.14
30.58
33.98
37.17
40.24
43.50
47.37
52.13
58.15
65.06
72.39
79.62
86.47
93.08
99.97
107.81
117.07
128.25
140.82
154.05
167.17
179.74
191.89
204.26
218.10
232.00
248.10
267.00
288.91
312.88
336.22
354.73
363.70
359.53
340.97
310.14
270.80
227.56
184.13
142.57
103.38
66.23
30.77
-3.17
-35.06
-64.81
-92.23
-117.04
-138.90
-157.54
-173.06
-186.07
-197.76
-209.23
-221.48
-234.64
-247.92
-260.17
-270.63
-279.39
-287.26
-295.83
-306.50
-320.41
-337.89
-358.10
-379.26
-398.21
-410.88
-413.04
-401.66
-376.42
-340.30
-299.22
-260.03
-227.99
-204.91
-188.50
-174.18
-157.60
-136.94
-113.72
-91.47
-73.61
-61.14
-52.03
-42.65
-30.10
-14.48
1.33
12.94
17.38
15.39
10.82
8.85
12.76
22.00
32.61
39.38
39.40
33.63
26.66
23.97
28.56
39.44
51.60
59.06
57.95
48.49
35.21
24.10
19.80
22.95
30.19
36.38
37.35
32.64
25.47
20.94
22.92
31.52
43.11
52.19
54.12
47.96
36.71
25.46
18.51
16.95
18.50
18.78
14.59
5.97
-3.61
-9.10
-7.21
1.87
13.88
23.15
25.63
21.22
13.85
8.92
10.23
17.54
26.83
32.75
31.63
23.88
13.60
6.22
5.32
10.41
17.21
20.45
16.61
6.63
-4.70
-11.32
-9.29
0.41
12.93
21.54
21.78
13.77
1.91
-7.55
-10.45
-6.55
0.21
4.50
2.64
-5.11
-14.74
-21.03
-20.54
-13.75
-4.79
0.87
-0.49
-8.65
-19.53
-27.40
-28.15
-21.69
-12.03
-5.00
-4.87
-11.80
-21.65
-28.40
-27.67
-19.36
-7.64
1.41
3.38
-1.88
-10.23
-15.86
-14.74
-6.96
3.29
10.29
10.07
2.88
-7.23
-14.60
-15.27
-9.22
-0.13
6.65
7.39
2.09
-5.52
-10.07
-7.84
1.15
12.91
21.88
24.04
19.24
11.40
5.91
6.61
13.44
22.50
28.49
27.71
20.47
10.85
4.34
4.77
11.94
22.13
29.87
31.39
26.70
19.31
14.26
14.75
20.51
27.63
31.07
27.86
18.74
8.21
1.70
2.57
10.10
19.69
25.90
25.22
18.41
10.12
5.86
9.04
18.46
29.29
35.54
33.60
24.64
13.51
6.39
6.82
13.94
23.15
28.58
26.78
18.42
7.72
0.04
-1.41
3.07
9.58
13.30
11.20
3.56
-5.90
-12.42
-12.66
-6.63
2.19
9.22
11.01
7.54
2.08
-1.05
1.06
7.65
14.92
17.99
13.99
4.19
-6.82
-13.31
-11.97
-3.91
6.18
12.31
10.96
2.99
-7.10
-13.60
-13.28
-6.76
1.57
6.42
4.82
-2.53
-11.32
-16.45
-14.80
-6.94
2.92
9.75
10.11
4.44
-3.16
-7.47
-4.89
4.01
15.18
22.92
23.28
16.50
6.38
-1.62
-3.74
0.06
6.33
10.14
8.35
1.37
-6.97
-11.60
-9.40
-0.77
9.98
17.23
17.06
9.42
-1.59
-10.25
-12.33
-7.57
0.21
5.60
4.63
-2.47
-11.37
-16.28
-13.28
-3.04
9.89
19.09
20.16
13.34
2.84
-5.33
-7.16
-2.73
3.96
7.53
4.80
-3.58
-13.07
-18.17
-15.77
-6.78
3.99
11.06
11.03
4.83
-2.92
-6.91
-4.12
4.02
12.71
16.45
12.25
1.79
-9.70
-16.14
-14.10
-4.97
6.20
13.11
12.08
4.07
-6.24
-12.92
-12.50
-5.62
3.23
8.55
7.11
-0.48
-9.78
-15.36
-13.80
-5.65
4.70
11.83
11.97
5.46
-3.42
-9.07
-7.60
0.57
11.34
18.93
19.37
12.96
3.58
-3.28
-4.13
0.65
7.04
9.80
5.89
-3.81
-14.85
-21.66
-20.75
-12.69
-1.89
6.19
7.91
3.60
-2.70
-5.91
-2.92
5.34
14.63
19.84
17.99
10.25
1.10
-4.26
-2.98
3.59
10.87
13.45
8.66
-1.87
-13.05
-19.07
-16.90
-7.70
3.44
10.71
10.69
4.10
-4.54
-9.97
-8.91
-2.21
5.79
10.04
7.42
-1.04
-10.74
-16.11
-13.63
-4.20
7.85
16.64
18.25
12.96
4.57
-1.58
-2.18
2.37
8.07
9.72
4.50
-6.54
-18.50
-25.40
-23.69
-13.96
-1.22
8.32
10.38
4.91
-3.80
-10.04
-9.75
-3.17
5.52
10.77
8.76
0.10
-10.62
-17.20
-15.43
-5.64
7.77
18.35
21.42
16.50
7.19
-0.92
-3.75
-0.61
5.38
9.59
8.82
3.13
-3.98
-7.95
-5.88
1.49
9.98
14.31
11.11
1.17
-10.84
-18.80
-18.62
-10.65
0.59
8.96
10.24
4.55
-3.91
-9.35
-8.03
-0.27
9.72
16.51
16.52
10.22
1.79
-3.60
-2.70
3.82
11.71
15.71
12.56
3.09
-8.22
-15.68
-15.53
-8.26
1.88
9.01
9.07
2.11
-7.87
-15.02
-15.29
-8.52
1.35
8.78
9.76
4.27
-3.63
-8.56
-6.97
0.61
9.85
15.18
13.14
4.56
-6.02
-13.05
-13.16
-7.22
0.44
4.49
1.95
-6.08
-15.07
-19.53
-16.45
-6.79
4.78
12.62
13.24
7.17
-1.21
-6.46
-5.06
2.39
11.49
16.64
14.05
4.36
-7.82
-16.27
-16.61
-8.93
2.57
11.59
13.51
7.88
-1.53
-8.86
-9.89
-4.18
4.55
10.88
10.97
4.77
-3.71
-9.06
-7.63
0.14
9.85
15.73
13.84
4.67
-7.14
-15.29
-15.47
-7.93
2.90
10.76
11.38
4.91
-4.34
-10.43
-9.64
-2.37
6.94
12.66
11.31
3.55
-6.11
-12.12
-11.09
-3.77
5.32
10.59
8.39
-0.64
-11.98
-19.62
-19.37
-11.31
0.33
9.42
11.35
5.68
-3.80
-11.27
-12.36
-6.64
2.21
8.81
9.38
4.08
-3.00
-6.50
-3.06
6.51
17.70
24.86
24.41
16.88
6.40
-1.59
-3.51
0.54
6.93
10.78
8.60
0.36
-10.40
-18.50
-19.94
-14.19
-4.40
3.91
6.12
1.16
-7.94
-15.49
-16.84
-10.82
-1.07
6.66
7.65
1.17
-8.71
-15.99
-15.81
-7.96
3.69
12.97
15.27
10.38
2.03
-3.90
-3.43
3.82
13.75
20.86
21.05
14.00
3.69
-4.46
-6.02
-0.86
7.69
14.05
14.03
7.46
-2.22
-9.31
-9.82
-3.09
7.00
14.89
16.05
9.64
-0.70
-9.48
-11.82
-7.09
1.53
8.04
7.72
-0.03
-11.58
-20.52
-22.14
-15.38
-4.31
5.13
7.96
3.26
-5.20
-11.91
-12.26
-6.03
3.47
10.53
11.05
4.82
-4.63
-11.68
-12.52
-6.60
2.18
8.63
8.59
1.80
-7.89
-15.16
-15.58
-8.94
1.58
10.37
13.18
9.32
1.64
-4.75
-6.14
-1.59
5.64
10.92
10.24
3.08
-7.14
-15.29
-16.83
-11.21
-1.38
6.91
9.08
4.15
-4.80
-12.00
-12.96
-6.36
4.25
13.41
16.14
11.31
2.21
-5.77
-7.72
-2.85
5.97
13.03
13.95
7.90
-1.85
-9.64
-11.30
-5.86
3.15
10.72
12.46
7.69
-0.35
-6.76
-7.40
-1.98
6.57
12.86
12.86
5.88
-4.92
-14.08
-17.35
-13.34
-5.10
2.63
5.31
1.86
-4.96
-10.40
-10.20
-3.78
6.09
13.98
15.71
10.27
0.68
-7.74
-10.84
-7.40
-0.58
4.91
4.83
-1.42
-10.57
-17.65
-18.49
-12.77
-3.46
4.15
6.15
1.89
-5.72
-11.71
-12.41
-6.92
1.61
8.64
10.09
5.05
-3.52
-10.79
-12.22
-6.89
2.65
10.87
13.00
7.57
-2.71
-12.06
-15.42
-10.69
-0.72
9.10
13.40
10.12
1.85
-6.21
-8.77
-4.24
5.04
13.55
16.26
11.65
2.18
-6.51
-9.58
-5.20
3.68
11.64
13.71
8.19
-1.84
-10.87
-13.48
-8.18
2.40
12.44
16.45
12.60
3.15
-6.33
-10.81
-8.06
-0.57
6.58
8.62
3.87
-4.79
-12.16
-13.26
-7.01
3.57
12.79
15.65
11.11
2.12
-5.55
-7.32
-1.82
7.93
16.57
19.56
15.34
6.56
-2.07
-5.95
-3.56
3.12
9.88
12.54
9.85
3.75
-1.44
-2.04
2.95
10.94
17.05
17.15
10.06
-1.27
-11.67
-16.41
-14.13
-7.57
-1.79
-1.36
-7.46
-17.24
-25.33
-27.02
-20.83
-9.34
2.22
8.86
8.45
2.91
-3.40
-5.99
-3.05
3.76
10.36
12.66
9.06
1.32
-6.25
-9.41
-6.51
0.61
7.37
9.37
4.74
-4.37
-12.86
-15.63
-10.34
0.80
12.51
19.01
17.48
9.69
0.57
-4.36
-2.61
4.15
11.15
13.37
8.78
-0.72
-10.26
-14.96
-12.84
-5.73
1.58
4.60
1.54
-5.54
-11.92
-13.23
-7.85
1.63
10.17
13.00
8.44
-0.84
-9.58
-12.75
-8.60
0.23
8.54
11.20
6.50
-2.84
-11.42
-14.05
-9.11
0.90
10.33
13.84
9.44
-0.68
-11.09
-16.59
-14.83
-7.62
0.19
3.96
1.53
-5.13
-11.21
-12.01
-5.39
6.36
18.29
24.93
23.55
15.62
5.59
-1.36
-2.50
1.25
6.10
7.62
3.75
-4.07
-11.60
-14.27
-10.16
-0.88
8.71
13.49
10.84
2.03
-8.23
-14.67
-14.22
-7.78
0.26
5.02
3.63
-2.65
-9.32
-11.39
-6.14
4.65
15.96
21.86
19.04
8.91
-3.34
-11.37
-11.31
-3.85
6.41
13.43
13.40
6.74
-2.47
-8.91
-9.46
-4.54
1.92
5.31
3.17
-3.57
-10.84
-14.19
-11.20
-3.14
5.67
10.58
8.90
1.89
-6.03
-9.93
-6.97
1.44
10.86
15.96
13.78
5.72
-3.52
-8.40
-6.05
2.11
11.34
16.00
13.13
4.14
-6.31
-12.73
-12.37
-6.22
1.21
4.93
2.38
-5.30
-13.67
-17.89
-15.29
-7.01
2.48
8.33
7.57
1.22
-6.38
-10.23
-7.34
0.99
10.33
15.18
12.35
3.05
-7.92
-14.65
-13.64
-5.76
4.58
11.60
11.74
5.60
-2.78
-8.16
-7.52
-1.45
5.81
9.19
5.91
-3.12
-13.32
-19.34
-17.93
-9.74
0.72
8.17
9.05
3.84
-3.37
-7.60
-5.62
1.70
10.17
14.62
11.86
2.92
-7.72
-14.35
-13.30
-5.08
6.38
15.42
18.03
13.90
6.00
-0.91
-3.45
-1.07
3.36
5.57
2.64
-5.47
-15.32
-22.12
-22.25
-15.29
-4.76
4.18
7.14
3.22
-4.57
-11.25
-12.60
-8.00
-0.66
4.24
2.50
-6.20
-18.12
-27.39
-29.33
-23.47
-13.43
-5.40
-4.42
-11.55
-23.96
-36.30
-44.28
-46.68
-45.95
-46.33
-50.81
-59.46
-69.21
-75.91
-77.12
-73.52
-69.25
-69.17
-76.31
-90.02
-106.01
-119.00
-125.63
-126.57
-126.07
-129.38
-139.50
-154.77
-169.37
-175.98
-169.49
-149.73
-121.42
-92.05
-68.14
-52.25
-42.41
-33.53
-20.24
0.76
29.68
64.28
101.55
139.05
175.57
210.56
243.09
271.49
293.17
305.75
307.99
300.32
284.94
264.87
243.00
221.23
200.17
179.43
158.30
136.39
114.01
92.13
71.98
54.51
40.07
28.31
18.49
9.77
1.60
-6.16
-13.31
-19.50
-24.46
-28.14
-30.75
-32.57
-33.91
-34.95
-35.78
-36.36
-36.66
-36.64
-36.29
-35.64
-34.70
-33.49
-32.02
-30.36
-28.60
-26.87
-25.27
-23.81
-22.41
-20.88
-19.03
-16.75
-14.14
-11.43
-9.02
-7.15
-5.79
-4.74
-3.54
-1.73
0.93
4.30
7.83
10.73
12.45
12.94
12.68
12.63
13.74
16.52
20.73
25.38
29.09
30.82
30.28
28.02
25.20
22.76
21.16
19.80
17.40
12.37
3.48
-9.99
-28.34
-51.07
-76.32
-100.42
-118.19
-123.72
-114.37
-91.55
-60.75
-29.70
-5.20
9.39
14.90
14.83
13.03
11.59
10.67
9.43
7.34
4.99
3.66
4.45
7.35
11.29
14.59
15.84
14.72
11.98
9.04
7.28
7.44
9.34
12.04
14.26
15.08
14.30
12.41
10.34
8.95
8.75
9.62
11.03
12.27
12.80
12.49
11.58
10.53
9.76
9.51
9.74
10.22
10.65
10.81
10.64
10.18
9.57
8.87
8.15
7.37
6.52
5.56
4.46
3.20
1.73
-0.04
-2.23
-4.88
-8.01
-11.55
-15.39
-19.46
-23.75
-28.39
-33.57
-39.54
-46.42
-54.20
-62.70
-71.64
-80.80
-90.19
-100.03
-110.71
-122.53
-135.43
-148.82
-161.63
-172.47
-180.06
-183.48
-182.44
-177.11
-167.97
-155.13
-138.21
-116.46
-89.25
-56.54
-19.39
20.01
58.94
94.85
126.16
152.65
175.26
195.49
214.81
234.20
254.04
273.93
292.57
307.67
315.99
314.09
299.70
273.22
238.35
201.22
168.07
142.79
125.36
112.32
98.94
81.75
60.06
35.69
11.47
-10.54
-29.79
-46.93
-62.80
-77.75
-91.50
-103.86
-115.41
-127.70
-142.93
-162.91
-187.94
-215.87
-241.90
-259.53
-262.73
-248.37
-217.85
-177.08
-134.37
-97.27
-69.75
-51.32
-38.34
-26.78
-14.63
-2.77
6.15
10.01
9.07
6.08
4.81
7.82
14.99
23.58
30.03
32.09
30.16
26.80
25.06
26.54
30.43
34.26
35.43
32.86
27.46
21.47
17.12
15.59
16.70
19.44
22.71
25.73
28.11
29.59
29.86
28.66
25.97
22.16
17.92
14.00
10.99
9.12
8.30
8.23
8.56
8.94
9.10
9.00
8.87
9.12
10.12
11.93
14.05
15.68
16.07
15.06
13.33
12.10
12.69
15.79
21.09
27.33
32.95
36.38
36.32
31.69
21.81
6.86
-11.61
-30.45
-45.44
-52.47
-49.16
-36.15
-17.33
1.15
12.90
13.49
2.24
-17.74
-40.72
-60.72
-73.77
-79.02
-78.46
-75.43
-73.24
-74.33
-80.46
-93.04
-112.98
-139.81
-170.85
-201.45
-226.30
-241.53
-246.10
-241.84
-232.11
-219.91
-206.81
-192.82
-177.29
-159.63
-139.53
-116.66
-90.33
-59.44
-23.12
18.62
64.46
111.41
155.25
191.34
215.73
226.33
223.75
211.13
193.23
174.81
159.21
147.67
139.58
133.39
127.72
121.88
115.88
110.05
104.56
99.23
93.71
87.73
81.17
74.23
67.29
60.82
55.33
51.14
48.19
46.04
43.99
41.37
37.86
33.73
29.76
26.80
25.38
25.34
25.86
25.83
24.47
21.65
18.05
14.79
12.86
12.57
13.43
14.40
14.44
13.10
10.72
8.22
6.66
6.54
7.56
8.78
9.06
7.75
5.00
1.70
-1.01
-2.38
-2.34
-1.43
-0.43
0.21
0.54
0.92
1.63
2.51
2.96
2.25
0.03
-3.38
-7.05
-9.86
-11.01
-10.31
-8.15
-5.15
-1.82
1.66
5.30
9.01
12.44
15.02
16.50
17.33
18.64
21.38
25.43
29.04
29.58
25.05
15.43
2.92
-9.24
-18.51
-24.14
-26.83
-27.28
-24.93
-18.10
-5.42
12.50
32.27
48.95
58.25
58.84
52.80
44.34
37.10
31.61
24.82
12.01
-9.71
-38.34
-66.70
-85.74
-89.56
-79.49
-63.93
-53.49
-54.40
-64.51
-74.81
-75.75
-64.00
-44.80
-28.34
-22.82
-29.03
-40.24
-47.17
-44.39
-33.50
-21.35
-15.04
-17.17
-24.59
-30.80
-30.20
-21.15
-6.23
9.54
21.50
27.34
27.52
24.66
21.89
21.37
23.45
26.69
28.86
28.40
25.43
21.77
19.90
21.40
25.87
31.16
34.61
34.68
31.79
28.00
25.66
25.90
27.96
29.67
28.83
24.57
17.84
10.83
5.67
3.25
2.87
2.88
1.88
-0.36
-2.78
-3.80
-2.48
0.78
4.42
6.71
6.77
5.06
2.98
1.90
2.24
3.26
3.67
2.48
-0.33
-3.85
-6.84
-8.39
-8.42
-7.53
-6.62
-6.37
-6.97
-8.13
-9.25
-9.81
-9.56
-8.69
-7.74
-7.33
-7.85
-9.12
-10.50
-11.20
-10.72
-9.25
-7.60
-6.70
-7.09
-8.49
-9.92
-10.27
-8.98
-6.47
-3.93
-2.65
-3.31
-5.42
-7.65
-8.51
-7.26
-4.33
-1.16
0.59
-0.04
-2.83
-6.51
-9.45
-10.40
-8.98
-5.64
-1.31
2.95
6.17
7.61
6.91
4.37
1.05
-1.50
-2.00
-0.17
2.90
5.24
5.13
2.10
-2.64
-6.92
-8.78
-7.51
-3.79
0.75
4.44
6.13
5.44
2.63
-1.31
-4.62
-5.11
-1.11
7.32
17.74
25.98
28.07
22.48
11.16
-1.39
-10.30
-12.79
-9.09
-1.66
6.64
13.79
18.65
20.21
17.64
11.32
4.09
1.20
7.97
25.96
50.44
71.32
77.87
64.64
34.97
-0.31
-28.53
-41.64
-39.61
-29.14
-18.66
-13.30
-12.84
-13.36
-11.07
-5.26
1.29
4.34
1.23
-7.30
-17.39
-24.30
-24.99
-19.57
-10.94
-3.20
0.47
-0.78
-5.41
-10.59
-13.65
-13.29
-9.92
-5.15
-0.88
1.52
1.64
-0.04
-2.53
-4.83
-6.16
-6.18
-4.95
-2.92
-0.75
0.85
1.40
0.84
-0.45
-1.77
-2.42
-2.03
-0.74
0.88
2.14
2.53
2.02
1.05
0.30
0.39
1.50
3.30
5.08
6.12
5.97
4.76
3.05
1.55
0.72
0.58
0.68
0.43
-0.52
-2.09
-3.76
-4.88
-5.04
-4.26
-3.03
-1.99
-1.60
-1.92
-2.55
-2.97
-2.78
-2.00
-1.06
-0.52
-0.79
-1.81
-3.12
-4.00
-3.93
-2.86
-1.23
0.17
0.62
-0.13
-1.76
-3.56
-4.77
-5.01
-4.41
-3.53
-2.97
-3.04
-3.60
-4.20
-4.39
-4.01
-3.29
-2.65
-2.44
-2.73
-3.29
-3.77
-3.95
-3.85
-3.72
-3.87
-4.42
-5.23
-5.95
-6.13
-5.53
-4.24
-2.72
-1.53
-1.16
-1.69
-2.73
-3.65
-3.87
-3.13
-1.65
-0.00
1.27
1.87
1.96
2.03
2.62
3.98
6.02
8.26
10.14
11.26
11.55
11.26
10.76
10.39
10.26
10.31
10.35
10.26
10.00
9.63
9.21
8.71
7.97
6.86
5.32
3.55
1.94
0.87
0.57
0.89
1.39
1.50
0.90
-0.36
-1.82
-2.88
-3.19
-2.84
-2.29
-2.11
-2.61
-3.63
-4.72
-5.37
-5.34
-4.76
-4.00
-3.36
-2.95
-2.63
-2.24
-1.76
-1.33
-1.23
-1.63
-2.51
-3.70
-4.97
-6.15
-7.18
-8.01
-8.61
-8.94
-9.05
-9.12
-9.41
-10.17
-11.53
-13.47
-16.03
-19.20
-23.02
-27.34
-31.66
-35.12
-36.87
-36.61
-34.94
-33.21
-32.50
-32.58
-31.49
-26.34
-15.06
1.95
21.42
38.46
48.85
51.21
47.42
41.44
36.96
35.59
36.40
37.00
35.42
31.15
25.44
20.21
16.92
15.98
16.72
18.21
19.85
21.59
23.61
25.69
26.80
25.42
20.26
11.19
-0.28
-11.33
-18.92
-21.07
-17.69
-10.60
-2.66
3.51
6.55
6.67
5.22
3.80
3.35
3.91
4.74
5.02
4.54
3.68
3.24
3.75
4.95
5.95
5.64
3.45
-0.21
-4.17
-7.07
-8.04
-7.21
-5.52
-4.19
-4.04
-5.10
-6.70
-7.89
-8.00
-6.96
-5.32
-3.85
-3.13
-3.35
-4.18
-5.09
-5.60
-5.47
-4.81
-3.97
-3.32
-3.08
-3.26
-3.64
-3.91
-3.87
-3.50
-2.96
-2.51
-2.36
-2.55
-2.98
-3.39
-3.54
-3.35
-2.86
-2.24
-1.72
-1.42
-1.38
-1.47
-1.52
-1.42
-1.24
-1.20
-1.61
-2.59
-3.98
-5.30
-5.89
-5.25
-3.30
-0.49
2.40
4.50
5.26
4.63
3.05
1.17
-0.44
-1.48
-2.07
-2.51
-3.06
-3.79
-4.55
-5.15
-5.57
-5.95
-6.45
-7.08
-7.58
-7.74
-7.74
-8.27
-10.33
-14.57
-20.62
-26.88
-30.87
-30.24
-23.75
-11.91
3.13
18.31
30.73
38.49
41.14
39.61
35.61
31.01
27.20
24.80
23.71
23.41
23.32
23.16
23.00
23.23
24.42
27.21
32.00
38.54
45.68
51.40
53.34
49.89
41.10
28.97
16.70
7.26
2.12
0.78
1.40
2.17
2.35
2.57
4.26
8.55
15.48
23.88
31.91
37.93
41.05
41.35
39.69
37.21
35.02
34.07
35.26
39.55
47.31
57.43
66.55
69.56
61.68
41.17
11.07
-21.52
-48.59
-65.07
-70.97
-70.59
-69.28
-70.09
-72.35
-73.05
-69.67
-62.44
-54.21
-48.56
-47.30
-49.46
-52.14
-52.31
-48.70
-42.18
-34.98
-29.49
-26.91
-26.93
-28.11
-28.67
-27.32
-23.78
-18.75
-13.55
-9.44
-7.11
-6.48
-6.88
-7.42
-7.47
-6.84
-5.76
-4.66
-3.82
-3.25
-2.77
-2.24
-1.68
-1.34
-1.52
-2.28
-3.34
-4.15
-4.14
-3.12
-1.49
-0.02
0.46
-0.42
-2.30
-4.26
-5.18
-4.40
-2.08
0.78
2.87
3.18
1.47
-1.48
-4.42
-6.09
-5.75
-3.19
1.30
7.05
13.10
18.21
21.01
20.34
15.87
8.50
0.38
-5.77
-7.76
-4.88
1.80
9.90
16.87
21.07
22.19
21.24
19.69
18.74
18.66
18.76
17.82
14.82
9.97
4.85
1.55
1.53
4.45
8.18
10.05
8.56
4.59
1.08
1.32
6.84
16.24
25.71
30.91
29.07
20.35
7.43
-5.75
-15.68
-20.36
-19.63
-14.91
-8.68
-3.85
-2.72
-6.31
-13.95
-23.57
-32.41
-37.99
-38.94
-35.42
-28.80
-21.05
-14.03
-8.87
-5.87
-4.68
-4.70
-5.44
-6.62
-8.08
-9.56
-10.67
-10.93
-10.03
-8.08
-5.67
-3.66
-2.77
-3.20
-4.52
-5.92
-6.56
-6.06
-4.54
-2.61
-0.98
-0.17
-0.31
-1.12
-2.13
-2.85
-3.03
-2.62
-1.80
-0.83
0.05
0.66
0.93
0.87
0.55
0.13
-0.21
-0.30
-0.06
0.45
0.99
1.27
1.07
0.39
-0.53
-1.27
-1.49
-1.08
-0.23
0.63
1.01
0.63
-0.42
-1.73
-2.69
-2.83
-2.01
-0.55
0.89
1.61
1.20
-0.19
-1.92
-3.11
-3.10
-1.83
0.24
2.19
3.19
2.87
1.35
-0.92
-3.38
-5.50
-6.70
-6.19
-3.15
2.65
10.47
18.61
25.19
29.08
30.63
31.57
34.05
39.43
47.32
55.66
61.48
62.03
55.60
41.82
21.59
-3.14
-29.61
-54.56
-74.81
-87.98
-93.11
-90.99
-83.78
-74.29
-65.25
-58.83
-56.32
-58.27
-64.38
-73.05
-81.17
-84.55
-79.31
-63.70
-39.20
-10.42
16.57
36.64
47.49
50.12
47.74
43.87
40.78
38.99
37.82
36.44
34.55
32.58
31.21
30.78
31.04
31.17
30.17
27.39
22.97
17.85
13.36
10.58
9.85
10.59
11.69
12.10
11.30
9.53
7.53
6.00
5.31
5.31
5.49
5.35
4.64
3.48
2.26
1.36
0.97
0.99
1.11
1.01
0.51
-0.30
-1.18
-1.80
-2.01
-1.87
-1.61
-1.47
-1.57
-1.80
-1.91
-1.70
-1.14
-0.41
0.18
0.41
0.24
-0.14
-0.41
-0.30
0.26
1.11
1.94
2.50
2.69
2.60
2.48
2.55
2.90
3.46
4.07
4.57
4.92
5.17
5.43
5.77
6.15
6.48
6.68
6.72
6.66
6.66
6.85
7.33
8.11
9.14
10.32
11.53
12.68
13.61
14.17
14.18
13.49
12.04
9.94
7.51
5.24
3.65
3.14
3.82
5.38
7.19
8.57
9.02
8.51
7.48
6.71
7.09
9.36
13.77
19.93
26.70
32.40
35.28
34.13
28.77
20.25
10.57
1.94
-4.02
-6.89
-7.46
-7.24
-7.70
-9.59
-12.90
-16.79
-20.17
-21.99
-21.43
-18.01
-11.79
-3.49
5.44
12.99
17.13
16.40
10.51
0.47
-11.59
-22.93
-30.97
-34.11
-32.32
-27.18
-21.35
-17.49
-17.16
-20.14
-24.65
-28.26
-29.04
-26.41
-21.20
-15.08
-9.67
-5.78
-3.47
-2.22
-1.41
-0.83
-0.57
-0.94
-2.10
-3.84
-5.55
-6.57
-6.53
-5.64
-4.57
-4.03
-4.31
-5.12
-5.70
-5.33
-3.80
-1.47
0.80
2.22
2.38
1.46
0.16
-0.60
-0.08
1.96
5.27
9.13
12.64
14.98
15.69
14.82
12.90
10.72
8.94
7.83
7.08
6.06
4.20
1.46
-1.51
-3.58
-3.74
-1.77
1.54
4.57
5.73
4.31
1.06
-2.08
-2.90
-0.11
5.93
13.42
19.88
23.42
23.49
20.98
17.52
14.82
13.91
14.87
17.02
19.27
20.42
19.28
15.04
7.76
-0.85
-7.44
-7.79
1.42
20.38
44.90
66.85
76.87
68.24
40.44
0.03
-41.54
-72.63
-86.04
-81.18
-62.98
-38.44
-12.89
11.35
33.84
54.04
69.72
77.43
74.91
62.94
45.47
27.57
12.69
1.35
-7.86
-15.86
-21.12
-19.77
-8.19
14.20
43.69
73.61
97.41
111.66
116.76
115.64
111.54
106.21
99.77
91.60
81.27
69.04
55.62
41.79
27.97
14.21
0.12
-14.68
-30.00
-44.32
-54.29
-55.40
-43.75
-18.27
18.00
58.29
94.57
120.24
131.92
129.58
115.29
92.00
63.15
32.69
4.73
-17.42
-32.81
-43.45
-53.19
-65.48
-81.21
-98.01
-111.71
-118.79
-118.06
-110.91
-99.83
-86.65
-71.78
-54.73
-35.11
-13.60
8.28
28.70
46.21
59.88
68.93
72.56
70.21
62.31
50.62
38.08
27.89
22.26
21.80
25.61
31.95
38.96
45.13
49.20
50.19
47.23
39.85
28.08
12.46
-6.33
-27.82
-52.38
-81.34
-116.57
-159.43
-209.25
-262.29
-311.70
-348.92
-366.41
-360.17
-331.11
-284.32
-227.04
-166.20
-106.76
-51.06
0.73
49.59
96.49
141.14
181.37
213.30
232.77
237.31
227.66
208.06
184.32
161.13
139.88
118.59
94.00
64.32
30.89
-2.27
-30.56
-50.97
-62.79
-66.72
-63.61
-53.77
-37.35
-15.44
9.18
32.44
50.49
61.44
66.02
67.01
67.75
70.70
76.92
86.44
98.92
113.86
130.62
148.14
164.88
179.25
190.02
196.71
199.45
198.72
195.03
188.74
180.16
169.59
157.43
144.09
129.94
115.42
101.02
87.25
74.34
61.98
49.30
35.05
17.95
-3.03
-28.43
-58.02
-90.56
-123.75
-154.44
-179.40
-196.37
-204.86
-206.34
-203.53
-199.27
-195.50
-192.82
-190.88
-189.17
-187.64
-186.72
-186.88
-187.96
-189.04
-188.79
-186.22
-181.31
-175.04
-168.95
-164.19
-160.69
-156.98
-150.65
-139.48
-122.48
-100.32
-75.15
-49.69
-26.32
-6.63
8.54
18.84
24.27
25.36
23.36
20.07
16.83
13.49
7.96
-2.51
-19.22
-39.90
-58.19
-65.57
-54.58
-21.59
32.35
102.68
183.19
267.31
348.12
417.91
468.56
493.20
488.73
457.31
405.95
344.03
280.19
220.07
165.91
117.60
73.92
33.61
-4.40
-41.01
-76.78
-111.55
-144.46
-174.14
-199.67
-221.06
-239.79
-258.68
-281.54
-312.55
-355.24
-411.04
-477.80
-549.26
-616.01
-668.18
-698.74
-705.84
-693.07
-667.22
-635.11
-600.88
-565.40
-527.60
-486.56
-442.79
-398.06
-353.90
-310.19
-265.20
-216.40
-162.29
-103.58
-42.72
17.08
73.40
125.16
171.82
212.61
246.42
272.55
291.46
304.41
311.97
312.63
303.02
280.11
244.51
202.14
163.10
137.72
132.19
146.17
173.71
206.51
237.33
261.91
278.66
287.22
287.50
279.69
264.40
243.09
217.72
190.22
162.42
135.98
112.31
92.57
77.32
66.31
58.69
53.39
49.61
46.95
45.31
44.58
44.49
44.34
43.23
40.38
35.56
29.29
22.83
17.69
15.04
15.20
17.30
19.72
20.83
19.62
16.38
12.44
9.47
8.85
11.14
16.02
22.60
29.79
36.48
41.16
41.92
37.07
26.44
12.44
-0.22
-6.67
-4.62
3.81
12.93
16.45
11.14
-1.36
-15.63
-25.74
-28.77
-26.10
-22.11
-21.05
-24.52
-30.91
-36.83
-39.54
-38.29
-34.28
-29.54
-25.59
-22.68
-19.95
-16.39
-11.66
-6.53
-2.56
-1.20
-3.05
-7.52
-13.02
-17.60
-19.40
-17.06
-10.18
0.33
11.91
20.45
21.30
10.87
-11.68
-44.01
-81.47
-119.12
-153.54
-183.33
-208.28
-228.02
-241.15
-245.69
-240.52
-226.54
-206.91
-185.90
-167.16
-152.44
-141.43
-132.65
-124.69
-117.00
-109.92
-104.17
-100.22
-98.08
-97.38
-97.73
-98.97
-101.15
-104.25
-107.85
-110.88
-111.78
-108.96
-101.28
-88.58
-71.79
-52.48
-32.37
-12.64
6.41
25.42
45.48
67.90
93.77
123.14
154.62
185.24
211.20
229.41
239.03
242.15
243.07
246.23
253.95
265.30
276.69
283.97
284.58
278.29
266.55
250.89
231.83
209.18
183.34
156.25
131.06
110.45
95.15
83.96
75.25
68.83
66.71
71.96
85.94
106.48
128.44
145.86
155.17
156.54
152.72
146.30
137.42
123.63
102.34
73.87
42.97
17.34
3.93
5.04
16.82
30.86
37.85
31.82
12.31
-16.18
-46.43
-71.57
-87.19
-91.87
-87.15
-77.05
-67.42
-64.95
-74.74
-97.35
-126.97
-152.41
-161.87
-148.95
-116.63
-76.32
-42.25
-24.22
-23.04
-31.67
-40.78
-45.30
-47.11
-52.38
-65.86
-86.39
-107.31
-120.94
-123.94
-119.45
-114.45
-115.23
-123.04
-133.44
-139.07
-133.60
-115.40
-87.98
-57.62
-29.95
-7.14
12.22
30.84
49.47
64.79
70.41
60.64
35.16
1.24
-28.25
-40.71
-30.38
-1.68
32.72
58.19
65.06
52.54
27.87
1.94
-16.21
-23.06
-21.09
-16.04
-12.93
-13.01
-13.38
-9.39
1.90
19.23
37.96
53.21
63.17
70.40
79.71
94.43
113.33
130.71
139.65
136.32
122.64
105.26
91.56
85.33
84.76
83.91
76.72
60.62
37.63
12.83
-9.05
-25.98
-39.14
-51.17
-63.57
-75.41
-83.80
-85.93
-80.79
-69.69
-55.31
-40.20
-25.77
-12.21
0.90
13.88
26.59
38.39
48.40
55.75
59.87
60.61
58.34
53.60
46.80
38.19
28.39
18.78
11.46
8.57
10.92
17.18
23.96
27.33
24.80
16.66
5.83
-4.03
-10.70
-14.78
-19.01
-26.20
-36.95
-48.84
-57.56
-59.16
-52.28
-38.75
-22.62
-8.26
1.35
5.29
4.33
-0.07
-6.25
-12.75
-18.16
-21.42
-21.95
-20.03
-16.68
-13.30
-11.15
-10.83
-12.16
-14.22
-15.78
-15.64
-13.16
-8.47
-2.49
3.54
8.56
12.18
14.87
17.37
20.32
23.77
27.09
29.46
30.25
29.28
26.81
23.29
19.05
14.02
7.72
-0.32
-9.90
-19.62
-26.90
-28.96
-24.30
-14.02
-1.61
8.08
11.43
7.61
-1.02
-10.14
-15.82
-16.48
-13.57
-10.57
-10.94
-16.28
-25.81
-37.46
-49.22
-60.47
-72.15
-86.11
-103.87
-126.19
-153.14
-184.51
-219.71
-257.31
-294.15
-324.98
-343.32
-343.23
-321.81
-281.18
-229.09
-177.29
-137.95
-119.85
-124.65
-146.44
-173.68
-193.58
-196.68
-179.17
-142.52
-90.94
-28.80
40.45
112.99
183.09
242.85
283.72
299.87
290.70
261.73
222.84
184.26
152.54
128.51
107.90
85.02
57.28
28.14
6.81
3.99
25.81
69.27
121.78
165.62
185.90
178.25
151.80
125.89
121.43
151.19
214.53
298.23
383.06
452.48
498.62
522.52
529.69
524.22
505.80
471.56
420.75
358.47
295.50
243.85
209.77
191.57
180.45
165.36
139.18
101.90
59.52
20.59
-10.10
-33.27
-53.63
-76.47
-104.49
-136.58
-169.27
-198.39
-221.19
-236.73
-244.77
-244.96
-236.86
-221.10
-199.97
-177.43
-157.72
-143.42
-134.50
-128.53
-122.06
-112.47
-98.88
-81.70
-62.17
-41.80
-22.93
-9.74
-8.19
-24.72
-62.99
-120.93
-189.09
-252.45
-295.35
-306.84
-284.43
-234.11
-167.17
-95.99
-31.34
18.64
47.90
52.93
34.61
-0.01
-37.68
-62.97
-65.05
-43.70
-10.20
17.83
25.80
10.29
-18.97
-44.86
-53.37
-41.75
-19.88
-3.47
-3.46
-18.91
-37.72
-45.33
-34.74
-11.56
9.98
17.03
7.40
-8.84
-16.35
-5.13
22.75
55.02
77.75
84.15
77.81
68.26
63.41
64.60
66.94
64.48
55.34
42.54
31.06
23.40
18.18
12.17
3.51
-5.84
-12.04
-12.58
-8.50
-4.09
-3.58
-8.38
-16.45
-24.03
-28.15
-28.12
-24.83
-19.39
-12.63
-5.95
-2.24
-5.76
-19.59
-42.50
-67.86
-85.76
-88.19
-73.56
-47.94
-21.72
-3.62
3.86
5.02
7.05
14.69
26.91
37.55
39.81
31.03
14.78
-1.00
-8.72
-5.42
6.05
18.91
26.72
26.96
21.77
16.32
15.39
20.85
30.91
41.62
49.23
51.97
50.73
47.98
46.48
48.07
53.03
60.35
68.25
74.68
77.91
77.11
72.52
65.72
59.17
55.27
55.29
58.53
62.74
65.03
63.52
57.98
49.70
40.60
32.33
25.88
21.81
20.71
23.23
29.92
40.61
54.11
68.55
81.98
93.06
101.26
106.82
110.30
112.49
114.50
117.95
124.29
134.32
147.83
163.62
180.54
198.05
216.22
234.52
250.49
259.64
256.85
239.15
208.08
169.67
131.84
100.82
78.06
60.21
41.94
19.40
-8.14
-39.92
-76.86
-123.31
-185.59
-267.76
-367.16
-473.33
-571.31
-647.85
-696.95
-721.03
-728.60
-728.69
-726.49
-721.89
-711.20
-690.20
-656.30
-609.31
-550.93
-484.39
-414.40
-347.05
-288.46
-242.90
-211.18
-189.86
-172.45
-151.73
-122.03
-80.39
-26.43
38.68
112.87
193.34
276.25
356.77
429.77
490.85
537.70
569.96
588.72
595.46
590.96
574.79
545.55
502.22
445.52
378.64
307.00
236.88
173.87
121.93
83.17
58.03
45.16
41.16
40.81
38.43
30.13
15.51
-2.01
-17.30
-26.57
-29.37
-28.49
-27.61
-28.53
-30.18
-29.60
-24.82
-16.39
-7.49
-1.76
-1.00
-4.42
-9.16
-12.03
-11.09
-6.05
1.65
9.72
16.06
19.19
19.34
17.88
16.48
15.77
14.38
10.13
1.36
-11.29
-24.53
-34.28
-37.67
-34.94
-29.59
-26.15
-28.06
-35.37
-44.76
-50.96
-49.21
-37.94
-19.63
-0.43
12.51
14.36
5.02
-10.38
-24.26
-30.06
-25.49
-13.72
-1.15
5.32
1.68
-11.68
-30.38
-48.16
-59.87
-63.45
-60.30
-54.36
-49.37
-47.34
-47.82
-48.16
-45.55
-37.90
-24.69
-6.48
15.41
38.86
60.64
76.12
80.77
72.40
53.51
31.75
17.53
19.55
40.77
76.36
115.58
145.69
156.47
143.25
106.82
52.16
-13.70
-82.76
-145.95
-193.87
-217.87
-213.43
-182.58
-134.08
-81.14
-36.25
-7.06
5.41
6.06
2.22
-0.19
0.50
1.31
-2.90
-16.06
-37.20
-59.62
-73.23
-68.84
-43.39
-1.65
45.46
85.83
111.64
121.74
120.32
112.77
102.45
89.63
73.31
53.86
33.78
16.84
6.13
2.30
3.91
8.44
13.35
16.77
16.94
12.58
3.38
-8.76
-19.93
-25.83
-24.13
-16.39
-7.13
-1.23
-1.23
-5.87
-11.49
-14.60
-14.09
-11.55
-9.60
-9.83
-11.60
-12.57
-10.43
-4.44
4.03
12.37
18.16
20.32
19.42
16.92
14.21
11.82
9.31
5.83
0.82
-5.35
-11.54
-16.35
-18.80
-18.82
-17.13
-14.81
-12.82
-11.73
-11.61
-12.21
-13.09
-13.84
-14.32
-14.69
-15.35
-16.62
-18.35
-19.82
-20.14
-18.85
-16.45
-14.27
-13.69
-15.24
-18.00
-20.09
-19.64
-16.05
-10.38
-4.61
-0.54
1.36
2.02
2.90
4.96
7.97
10.77
12.08
11.31
8.74
5.25
1.88
-0.62
-1.80
-1.56
-0.10
2.08
4.31
6.01
7.05
7.70
8.41
9.29
9.85
9.33
7.25
4.01
0.71
-1.39
-1.67
-0.55
0.87
1.29
0.08
-2.55
-5.80
-8.61
-10.24
-10.41
-9.27
-7.23
-4.71
-2.01
0.76
3.54
6.24
8.56
9.98
9.97
8.26
5.10
1.47
-1.40
-2.51
-1.74
0.03
1.34
1.01
-1.09
-3.90
-5.81
-5.76
-4.02
-2.05
-1.75
-4.06
-8.33
-12.60
-14.62
-13.11
-8.34
-1.80
4.66
9.70
12.95
14.69
15.42
15.45
14.75
13.11
10.42
6.76
2.48
-1.73
-4.96
-6.24
-4.87
-0.81
5.07
11.17
15.65
17.24
15.82
12.34
8.30
4.92
2.52
0.60
-1.51
-3.95
-5.99
-6.47
-4.65
-0.86
3.42
6.28
6.54
4.43
1.35
-1.01
-1.77
-1.34
-1.01
-2.01
-4.66
-8.11
-10.88
-11.62
-9.81
-5.82
-0.63
4.54
8.67
11.17
11.73
10.51
8.03
4.93
1.98
-0.15
-1.17
-0.81
0.97
3.89
7.50
11.00
13.41
14.21
13.46
11.74
9.91
8.24
6.13
2.62
-2.91
-9.98
-16.58
-20.24
-19.21
-13.40
-4.75
3.35
7.29
3.96
-7.93
-26.72
-47.80
-64.62
-71.30
-65.95
-52.10
-37.30
-29.26
-30.86
-38.03
-42.04
-34.40
-12.36
18.82
48.99
68.89
75.35
72.90
69.93
72.55
80.28
86.09
80.86
59.86
26.43
-9.15
-34.92
-43.73
-36.90
-22.54
-10.55
-6.88
-10.73
-16.48
-18.19
-13.77
-6.13
-0.60
-1.04
-7.33
-15.49
-20.20
-18.14
-9.64
1.78
11.31
15.52
13.87
8.40
2.51
-0.95
-1.07
1.17
3.94
5.62
6.01
6.27
7.85
11.50
16.40
20.26
20.64
16.44
8.65
0.30
-5.18
-5.84
-2.14
3.09
6.19
4.74
-1.19
-9.03
-14.92
-15.97
-11.77
-4.56
1.95
4.45
2.10
-3.42
-9.03
-11.96
-11.50
-9.29
-7.79
-8.68
-11.63
-14.18
-13.50
-8.27
0.41
9.27
14.57
14.23
8.83
1.22
-4.94
-7.26
-5.77
-2.57
-0.59
-1.72
-5.65
-10.10
-12.07
-9.68
-3.49
3.75
8.58
8.63
4.12
-2.34
-7.37
-8.68
-6.25
-2.33
0.19
-0.44
-3.89
-8.02
-10.21
-9.10
-5.33
-1.10
1.13
0.06
-3.58
-7.50
-9.21
-7.32
-2.38
3.46
7.71
8.84
7.12
4.32
2.63
3.37
6.37
10.15
12.82
13.16
11.19
8.06
5.33
4.14
4.72
6.24
7.45
7.20
5.23
2.23
-0.51
-1.86
-1.66
-0.84
-1.01
-3.30
-7.47
-11.84
-14.02
-12.36
-6.92
0.44
6.97
10.42
10.14
7.27
3.91
1.94
1.99
3.30
4.34
3.87
1.74
-1.01
-2.80
-2.60
-0.55
2.07
3.63
3.28
1.65
0.51
1.65
5.58
10.84
14.61
14.23
8.70
-0.53
-10.12
-16.53
-17.63
-13.63
-6.77
-0.06
4.24
5.55
4.90
3.98
3.96
4.68
4.89
3.05
-1.49
-7.78
-13.55
-16.37
-14.99
-10.16
-4.32
-0.25
0.53
-1.44
-3.96
-4.60
-2.29
2.03
5.99
7.28
5.11
0.65
-3.66
-5.57
-4.32
-0.96
2.33
3.55
2.00
-1.30
-4.36
-5.27
-3.36
0.39
3.95
5.36
3.83
0.25
-3.35
-5.02
-3.92
-0.89
2.09
3.08
1.30
-2.36
-5.85
-7.18
-5.56
-1.85
2.02
4.10
3.58
1.20
-1.22
-1.92
-0.21
3.08
6.07
6.92
4.89
0.87
-3.21
-5.37
-4.75
-2.05
0.95
2.36
1.36
-1.39
-4.10
-4.92
-2.99
1.03
5.31
7.92
7.81
5.40
2.23
0.05
-0.26
0.89
2.13
2.02
0.11
-2.80
-5.02
-4.98
-2.24
2.16
6.20
7.90
6.44
2.67
-1.34
-3.49
-2.77
0.12
3.24
4.56
3.20
-0.08
-3.28
-4.50
-3.01
0.26
3.31
4.26
2.56
-0.77
-3.74
-4.56
-2.72
0.75
3.89
4.97
3.39
0.14
-2.88
-3.92
-2.40
0.70
3.44
4.00
1.76
-2.26
-5.90
-7.14
-5.20
-0.98
3.35
5.57
4.62
1.11
-3.03
-5.73
-5.97
-4.31
-2.49
-2.34
-4.56
-8.22
-11.29
-11.78
-9.02
-4.07
0.78
3.36
2.78
0.00
-2.76
-3.39
-1.03
3.40
7.79
10.09
9.42
6.57
3.41
1.84
2.58
4.91
7.11
7.51
5.55
2.18
-0.70
-1.40
0.59
4.08
7.01
7.52
5.12
1.07
-2.44
-3.51
-1.73
1.61
4.23
4.28
1.40
-3.10
-6.87
-8.07
-6.26
-2.72
0.35
1.10
-0.87
-4.35
-7.24
-7.73
-5.54
-1.99
0.77
0.94
-1.74
-5.88
-9.24
-10.07
-8.04
-4.60
-1.92
-1.73
-4.30
-8.18
-11.16
-11.47
-8.80
-4.48
-0.78
0.44
-1.24
-4.65
-7.55
-8.08
-5.69
-1.42
2.67
4.66
3.91
1.26
-1.58
-2.92
-2.13
-0.00
2.00
2.43
0.78
-2.16
-4.90
-6.10
-5.14
-2.61
0.06
1.60
1.46
0.14
-0.90
-0.31
2.32
6.37
10.22
12.09
11.43
9.14
7.07
7.27
10.38
15.04
18.77
19.13
15.15
8.45
2.14
-0.91
0.51
4.91
8.88
9.51
6.00
0.19
-4.12
-3.79
1.65
9.74
16.05
16.55
10.38
0.29
-8.71
-11.62
-6.56
4.09
15.21
21.27
19.25
10.69
0.54
-5.56
-4.17
3.74
13.38
19.13
17.41
8.89
-2.00
-9.68
-10.45
-4.08
6.35
16.75
24.61
29.72
33.28
35.80
35.25
27.52
9.18
-19.50
-52.90
-81.27
-95.00
-89.18
-66.10
-34.45
-5.25
13.24
18.58
14.04
6.00
-0.13
-2.53
-2.83
-4.35
-9.30
-16.97
-24.05
-26.79
-23.04
-13.81
-2.91
5.06
7.23
3.76
-2.11
-6.06
-5.35
-0.14
6.55
10.51
9.06
2.73
-5.05
-9.67
-7.90
0.02
10.61
18.98
21.30
16.99
8.88
1.50
-1.32
1.80
9.15
17.28
22.93
24.45
22.28
18.25
14.08
10.48
7.04
2.76
-2.81
-8.89
-13.68
-15.20
-12.44
-6.35
0.48
4.98
5.04
0.74
-5.77
-11.47
-14.02
-12.88
-9.40
-5.71
-3.38
-2.61
-2.25
-0.83
2.24
6.14
8.98
8.88
5.34
-0.13
-4.67
-5.44
-1.42
5.59
11.67
12.82
7.16
-3.59
-14.74
-21.13
-19.76
-11.25
0.53
10.69
15.89
15.44
11.01
5.21
0.14
-3.43
-5.63
-6.91
-7.69
-7.79
-6.70
-3.91
0.70
6.48
11.90
15.07
14.79
11.22
6.16
2.39
2.07
5.57
11.21
16.20
18.35
17.19
14.19
11.46
10.47
11.18
12.13
11.57
8.52
3.35
-2.44
-7.17
-9.77
-10.40
-10.03
-9.75
-10.17
-10.90
-11.19
-10.45
-8.73
-6.84
-5.54
-5.21
-5.16
-4.03
-0.43
6.54
16.26
26.73
34.65
36.45
29.96
15.31
-4.14
-23.14
-36.63
-41.87
-40.08
-35.06
-31.14
-30.44
-31.77
-31.95
-28.15
-20.41
-12.05
-7.99
-12.40
-25.84
-44.78
-62.53
-71.64
-67.07
-47.84
-17.79
16.19
46.86
69.43
82.95
89.24
90.69
87.82
78.78
61.29
35.26
4.73
-23.08
-41.08
-45.62
-38.72
-26.37
-15.39
-10.08
-10.53
-13.93
-16.79
-17.25
-15.76
-13.95
-13.25
-13.66
-13.87
-12.27
-8.00
-1.70
4.82
9.51
11.13
10.00
7.75
6.54
7.80
11.41
15.67
18.31
17.87
14.63
10.51
7.90
8.13
10.61
13.12
13.12
9.32
2.35
-5.62
-12.12
-15.65
-16.15
-14.68
-12.58
-10.68
-9.04
-7.25
-4.95
-2.17
0.62
2.73
3.73
3.70
3.38
3.78
5.71
9.14
13.08
15.88
16.14
13.47
8.90
4.41
1.87
2.02
4.06
6.17
6.51
4.25
-0.07
-5.09
-9.47
-12.63
-14.83
-16.66
-18.41
-19.71
-19.67
-17.40
-12.65
-6.12
0.71
6.13
8.89
8.78
6.76
4.49
3.64
5.00
8.16
11.66
13.80
13.65
11.55
8.94
7.42
7.71
9.16
10.02
8.57
4.22
-2.00
-7.93
-11.47
-11.77
-9.65
-7.17
-6.28
-7.74
-10.64
-13.01
-13.04
-10.14
-5.33
-0.63
2.13
2.35
0.94
-0.34
0.01
2.29
5.46
7.79
7.99
6.05
3.27
1.48
1.95
4.62
8.07
10.38
10.13
7.21
2.70
-1.76
-4.86
-6.28
-6.60
-6.77
-7.41
-8.34
-8.73
-7.72
-5.10
-1.53
1.74
3.69
4.17
4.11
4.83
7.08
10.31
12.94
13.32
11.03
7.27
4.24
3.70
5.66
8.36
9.30
6.89
1.46
-4.89
-9.54
-10.88
-9.07
-5.73
-2.84
-1.58
-1.86
-2.62
-2.68
-1.52
0.53
2.58
3.76
3.68
2.62
1.25
0.29
0.11
0.63
1.58
2.73
4.07
5.62
7.22
8.44
8.73
7.66
5.26
1.95
-1.67
-5.07
-8.03
-10.47
-12.30
-13.29
-13.06
-11.45
-8.72
-5.59
-2.92
-1.27
-0.55
-0.21
0.48
1.87
3.74
5.38
6.06
5.44
3.76
1.70
-0.11
-1.40
-2.24
-2.82
-3.02
-2.38
-0.45
2.68
6.00
8.00
7.41
4.15
-0.42
-4.09
-5.00
-2.79
1.15
4.52
5.45
3.50
-0.20
-3.79
-5.69
-5.08
-1.73
4.25
12.25
20.65
26.70
27.42
21.20
9.12
-5.10
-16.91
-23.13
-23.56
-20.51
-16.97
-14.66
-13.24
-11.30
-7.87
-3.56
-0.18
0.57
-1.60
-5.33
-8.38
-8.98
-6.62
-2.31
2.08
4.73
4.67
2.18
-1.45
-4.58
-6.08
-5.78
-4.41
-3.02
-2.25
-1.91
-1.23
0.53
3.50
7.05
10.21
12.29
13.20
13.35
13.21
12.87
11.99
10.16
7.39
4.37
2.26
2.00
3.78
6.78
9.55
10.79
10.02
7.77
5.24
3.57
3.27
4.06
5.15
5.73
5.35
4.14
2.64
1.51
1.21
1.73
2.58
2.98
2.19
-0.00
-3.18
-6.49
-9.15
-10.91
-12.16
-13.58
-15.65
-18.27
-20.84
-22.81
-24.07
-25.06
-26.37
-28.13
-29.80
-30.36
-29.02
-25.81
-21.72
-18.30
-16.98
-18.36
-21.89
-25.95
-28.43
-27.60
-22.77
-14.66
-4.99
4.27
11.73
16.94
20.18
21.78
21.76
19.72
15.38
9.12
2.25
-3.34
-5.84
-4.35
0.65
7.48
13.60
16.51
14.54
7.45
-3.27
-14.93
-24.33
-28.68
-26.46
-18.21
-6.97
2.29
4.26
-4.12
-21.28
-40.73
-53.47
-52.12
-34.57
-4.80
29.58
61.04
84.79
98.73
101.28
90.24
63.86
23.93
-21.83
-61.09
-81.82
-78.03
-52.76
-16.18
19.47
44.93
56.23
53.84
40.39
19.28
-5.65
-29.93
-49.14
-60.11
-62.11
-56.98
-47.98
-38.23
-30.10
-25.29
-25.01
-29.45
-36.80
-42.91
-42.60
-32.10
-11.69
13.97
37.82
53.69
59.37
56.90
50.78
45.28
42.17
40.48
37.82
32.55
25.22
18.19
14.22
15.38
22.51
35.41
53.09
73.82
94.46
110.31
116.31
109.26
89.85
63.08
36.60
17.90
11.45
17.44
32.27
49.86
63.39
66.98
57.48
35.96
8.24
-17.30
-33.94
-40.34
-41.48
-45.34
-57.47
-77.09
-97.34
-110.10
-111.99
-106.82
-102.85
-106.80
-118.75
-131.70
-136.01
-125.76
-102.39
-73.39
-47.33
-28.85
-16.74
-6.00
7.90
25.69
44.03
57.77
63.16
59.94
51.10
41.11
33.78
30.82
31.77
34.75
37.49
38.36
36.93
33.96
30.95
29.20
29.15
30.09
30.59
29.26
25.50
19.89
13.69
8.17
4.01
1.05
-1.28
-3.52
-5.69
-7.25
-7.29
-5.02
-0.18
6.69
14.24
20.66
24.26
23.92
19.46
11.44
0.88
-11.03
-23.05
-33.79
-41.66
-45.41
-44.78
-41.10
-36.95
-34.94
-36.14
-39.23
-41.12
-38.64
-30.39
-17.59
-3.29
9.10
17.45
21.40
22.01
20.80
19.03
17.37
16.07
15.17
14.81
15.45
17.93
23.00
30.48
38.41
42.91
39.43
24.99
0.22
-30.16
-58.97
-79.78
-89.78
-90.58
-86.51
-81.48
-76.49
-69.25
-56.19
-35.43
-8.70
18.92
41.22
53.72
55.34
48.32
36.67
24.02
12.40
2.20
-7.02
-15.62
-23.34
-29.50
-33.39
-34.79
-34.14
-32.41
-30.44
-28.31
-24.93
-18.40
-6.99
9.53
29.23
48.30
62.52
68.96
67.24
59.77
50.88
45.06
45.01
50.40
57.84
62.35
59.72
48.59
31.29
12.71
-2.05
-10.15
-11.92
-10.13
-7.81
-6.43
-5.34
-3.19
0.01
1.65
-2.61
-16.23
-38.58
-63.47
-80.71
-80.51
-58.68
-19.55
25.41
62.87
83.76
87.00
78.54
66.81
57.54
51.36
45.03
35.26
21.74
7.77
-2.15
-5.37
-2.84
1.36
2.59
-1.79
-11.15
-22.18
-30.83
-34.58
-33.79
-31.63
-32.08
-37.18
-45.09
-50.32
-46.39
-29.43
-0.76
33.16
63.56
83.35
89.96
85.54
74.69
61.36
47.09
31.23
12.90
-7.04
-25.44
-38.01
-41.66
-36.42
-25.67
-14.79
-8.80
-10.15
-17.88
-28.28
-36.84
-40.48
-38.69
-33.26
-26.90
-21.33
-16.27
-9.65
0.83
15.94
33.78
50.07
59.80
59.47
48.87
31.32
12.31
-2.82
-10.98
-12.30
-9.50
-6.22
-5.34
-7.86
-13.12
-19.87
-27.22
-34.92
-42.71
-49.22
-51.61
-46.51
-31.84
-8.51
19.29
45.68
65.69
77.31
81.74
81.71
79.23
74.34
65.68
52.25
34.92
16.46
0.31
-11.30
-18.23
-21.97
-24.39
-26.70
-29.18
-31.54
-33.50
-35.01
-36.12
-36.99
-37.96
-39.63
-42.51
-46.31
-49.45
-49.42
-43.93
-32.16
-15.38
3.43
20.72
33.69
41.10
43.14
40.89
35.69
28.75
20.87
12.40
3.36
-6.31
-16.63
-27.39
-37.99
-47.41
-54.44
-58.05
-57.83
-54.32
-48.98
-43.54
-38.89
-34.24
-27.19
-14.94
3.78
27.55
52.40
73.35
86.54
90.42
85.71
74.46
59.15
42.30
26.38
13.51
4.70
-0.76
-5.35
-12.01
-22.39
-35.44
-47.70
-55.02
-54.98
-48.25
-38.36
-29.83
-26.10
-28.20
-34.85
-43.43
-51.01
-54.94
-52.98
-43.24
-24.61
2.54
35.61
69.71
98.47
115.81
117.88
104.68
80.10
50.67
22.99
1.25
-14.09
-25.69
-37.38
-51.56
-67.47
-81.43
-88.69
-86.01
-73.69
-55.67
-37.78
-24.95
-18.67
-16.40
-13.08
-4.08
12.00
32.39
51.56
64.27
68.58
66.64
62.92
61.20
61.99
62.39
58.18
46.84
29.53
10.71
-4.25
-11.83
-12.13
-8.49
-5.69
-7.55
-15.32
-27.49
-40.85
-52.24
-59.75
-63.14
-63.11
-60.35
-54.72
-45.35
-31.43
-13.15
7.75
28.24
45.28
56.76
62.36
63.45
62.13
60.08
57.80
54.47
48.72
39.65
27.54
14.00
1.16
-9.47
-17.68
-24.70
-32.19
-41.15
-51.12
-60.23
-66.20
-67.61
-64.55
-58.37
-50.44
-41.00
-28.97
-12.83
7.65
30.22
50.45
63.45
66.54
60.70
50.14
40.28
34.98
34.65
36.52
36.17
29.93
16.56
-2.40
-23.29
-41.70
-54.12
-58.77
-56.14
-48.55
-39.13
-30.79
-25.45
-23.97
-26.37
-31.99
-39.17
-45.17
-46.32
-39.23
-22.19
3.67
34.34
63.93
86.22
96.33
91.80
73.19
44.11
10.67
-19.90
-41.28
-50.09
-47.08
-36.68
-24.89
-16.67
-14.15
-16.64
-22.11
-28.89
-36.31
-44.05
-50.88
-54.28
-51.22
-39.90
-21.00
2.54
27.02
49.79
69.95
87.53
101.99
111.20
112.07
102.32
82.42
55.96
28.29
4.41
-12.85
-23.23
-28.02
-28.89
-27.44
-25.35
-24.63
-27.00
-32.80
-40.35
-46.45
-48.29
-45.18
-38.97
-32.51
-27.41
-22.65
-15.16
-2.02
17.14
39.42
59.78
73.26
76.95
70.57
55.66
34.48
9.65
-15.60
-37.38
-51.95
-57.25
-53.94
-45.43
-36.17
-29.60
-26.75
-26.50
-26.99
-27.21
-27.57
-28.86
-30.62
-30.11
-22.97
-5.45
22.95
58.21
92.67
117.87
127.86
121.21
101.06
73.21
43.52
16.25
-6.18
-22.30
-30.87
-30.92
-22.61
-8.11
8.30
21.02
24.67
15.78
-6.09
-37.90
-73.45
-104.51
-122.71
-121.85
-100.09
-60.92
-12.26
36.25
76.29
102.88
114.49
112.03
97.58
73.93
44.72
14.57
-11.60
-29.85
-38.35
-37.95
-31.77
-24.20
-19.49
-20.50
-27.97
-40.45
-54.87
-67.54
-75.06
-74.93
-65.62
-46.44
-17.62
19.37
61.10
102.04
135.13
153.31
151.53
128.83
89.57
43.06
1.00
-26.02
-32.05
-17.77
10.14
41.88
67.79
80.74
76.88
55.50
18.70
-28.54
-78.54
-121.77
-149.07
-154.27
-136.21
-99.00
-50.46
0.32
44.92
76.67
91.44
88.50
71.23
46.68
23.38
8.22
3.37
5.39
7.17
1.68
-14.42
-39.13
-66.35
-89.35
-104.12
-110.74
-112.07
-110.70
-106.26
-95.25
-73.32
-38.51
6.43
54.36
96.19
124.29
135.02
129.32
111.51
87.04
60.40
34.01
8.54
-15.54
-36.40
-50.59
-54.56
-47.06
-31.31
-14.86
-6.84
-13.70
-35.59
-65.76
-93.67
-109.93
-110.19
-95.97
-72.13
-43.43
-12.31
20.75
55.01
87.35
111.96
122.32
114.42
89.12
52.46
13.47
-19.00
-39.32
-46.50
-43.66
-36.10
-29.02
-25.42
-25.41
-26.81
-27.06
-25.36
-23.48
-24.80
-31.71
-42.81
-52.07
-50.92
-32.68
3.21
49.60
94.21
124.71
133.79
121.34
93.24
57.87
22.62
-7.72
-30.60
-44.55
-48.84
-44.09
-33.00
-20.40
-11.94
-11.92
-21.27
-37.01
-53.56
-65.34
-69.03
-64.36
-53.20
-37.76
-19.21
2.35
26.81
52.63
76.49
94.26
102.57
100.11
87.74
67.48
41.51
12.04
-17.98
-44.44
-62.94
-70.72
-68.42
-59.91
-50.28
-43.04
-38.50
-34.48
-28.90
-22.15
-17.32
-17.91
-24.46
-32.94
-35.86
-26.09
-0.78
36.87
78.69
114.69
136.44
139.19
122.68
90.69
49.82
7.84
-28.05
-52.72
-63.94
-62.57
-51.93
-36.82
-22.52
-13.81
-13.88
-23.01
-38.07
-53.40
-62.94
-63.01
-53.76
-38.68
-22.25
-7.22
6.64
21.51
39.28
59.27
77.71
89.24
89.43
76.99
54.41
27.00
0.77
-19.55
-32.01
-37.59
-39.26
-40.23
-42.13
-44.18
-43.85
-38.69
-28.50
-16.36
-7.67
-7.27
-16.24
-30.10
-39.96
-36.38
-14.07
24.98
71.87
114.40
141.93
148.84
135.42
106.25
67.69
26.20
-12.17
-41.66
-57.56
-57.50
-43.17
-20.55
1.39
13.42
9.25
-12.23
-46.33
-84.24
-115.90
-133.40
-133.08
-115.95
-86.30
-49.42
-9.64
30.19
67.80
100.22
123.13
131.99
124.41
102.03
70.67
38.23
11.74
-5.17
-13.17
-16.49
-20.69
-30.01
-45.14
-62.57
-76.14
-80.41
-73.90
-60.40
-47.13
-40.44
-41.55
-45.11
-41.52
-22.41
14.41
62.86
110.92
145.77
158.92
148.77
119.93
80.36
38.31
0.64
-27.66
-43.26
-44.75
-33.55
-14.78
3.08
10.37
-0.20
-29.79
-71.99
-114.58
-144.38
-152.40
-137.13
-103.99
-62.05
-19.94
16.79
46.08
68.05
83.61
93.33
97.25
94.98
86.03
70.07
47.51
20.30
-7.50
-30.58
-44.62
-48.48
-44.89
-38.99
-35.43
-36.07
-39.67
-43.42
-45.19
-44.91
-44.03
-43.84
-43.51
-39.83
-28.46
-6.51
25.59
63.38
99.50
125.88
136.16
127.44
101.33
63.40
21.39
-17.15
-46.74
-64.65
-70.45
-65.13
-50.49
-29.36
-6.28
12.37
19.93
12.15
-10.19
-40.96
-70.77
-90.99
-96.90
-88.70
-69.85
-44.47
-15.31
16.06
47.99
77.20
98.91
108.39
103.30
84.99
58.40
30.17
6.38
-9.44
-16.93
-18.44
-17.73
-18.22
-21.45
-26.66
-31.50
-33.89
-33.54
-32.48
-33.55
-38.17
-44.45
-47.42
-41.15
-22.12
8.60
45.06
78.71
101.42
108.73
100.89
82.17
58.24
33.80
11.21
-8.73
-25.28
-36.66
-40.43
-35.19
-22.56
-7.64
2.34
1.16
-13.11
-36.59
-61.25
-78.45
-83.04
-74.90
-57.91
-36.77
-14.43
8.82
33.91
60.66
86.15
105.28
112.90
106.54
87.50
60.04
29.16
-1.07
-27.90
-49.17
-62.92
-67.83
-64.30
-54.99
-44.08
-35.53
-31.44
-31.40
-33.44
-35.56
-36.89
-37.40
-36.91
-34.08
-26.67
-12.72
8.13
33.98
61.07
84.96
101.54
107.75
102.06
84.76
58.12
26.08
-6.25
-33.57
-51.59
-58.27
-54.46
-43.53
-30.00
-17.91
-9.76
-6.42
-7.79
-13.41
-22.62
-34.04
-45.19
-52.51
-52.21
-41.72
-21.00
6.85
36.35
61.59
78.43
85.45
83.56
74.57
59.93
40.46
17.11
-7.76
-29.76
-43.55
-45.49
-36.19
-21.16
-8.60
-5.45
-13.98
-31.06
-50.34
-65.72
-73.93
-74.78
-69.65
-59.44
-43.61
-20.89
9.10
44.35
79.94
109.24
126.04
126.78
111.71
84.66
51.45
17.86
-11.76
-34.70
-49.54
-55.84
-54.43
-47.70
-39.37
-33.23
-31.39
-33.19
-35.75
-35.82
-31.92
-25.08
-17.77
-11.74
-6.55
-0.13
9.22
21.08
32.84
41.57
46.25
48.49
51.16
55.86
60.95
61.92
53.89
35.06
8.76
-17.55
-36.07
-42.98
-40.47
-35.01
-33.02
-36.93
-44.01
-48.95
-47.98
-41.63
-34.25
-30.60
-32.08
-35.01
-32.44
-18.23
9.12
45.22
81.70
110.06
124.94
125.48
114.39
95.80
73.25
48.85
23.73
-0.75
-22.27
-37.58
-43.65
-38.92
-24.33
-3.68
16.72
29.31
27.15
6.36
-31.58
-79.15
-124.42
-154.75
-161.20
-141.58
-100.88
-48.72
4.46
50.66
85.49
107.40
116.29
112.71
97.85
73.98
44.65
14.46
-11.56
-29.11
-36.04
-33.40
-25.47
-18.07
-16.04
-21.00
-30.83
-41.41
-49.43
-54.27
-57.83
-62.25
-67.39
-69.76
-64.10
-46.56
-17.52
17.96
52.14
77.97
91.65
93.47
86.67
75.33
62.67
50.26
38.37
27.05
16.80
8.97
5.12
5.92
9.93
13.29
10.72
-1.84
-24.64
-52.99
-78.80
-94.21
-95.25
-83.45
-64.35
-43.92
-25.33
-7.98
10.46
30.93
51.03
66.03
71.97
68.65
60.10
52.22
49.16
50.67
52.42
48.69
35.61
13.24
-14.38
-40.73
-59.39
-66.38
-61.69
-49.39
-36.45
-30.21
-35.47
-52.18
-74.95
-94.84
-102.77
-93.09
-65.74
-25.82
18.82
60.54
94.14
117.28
129.37
130.31
119.91
98.44
67.52
30.72
-6.60
-38.39
-59.47
-67.29
-63.05
-51.42
-38.75
-30.31
-28.38
-31.89
-37.78
-43.01
-46.03
-46.66
-44.90
-39.77
-29.29
-11.77
12.33
39.54
64.36
81.85
89.92
89.71
84.00
74.75
61.96
44.26
21.16
-4.95
-28.69
-44.02
-47.56
-40.74
-29.39
-20.82
-20.44
-29.35
-44.44
-60.38
-72.26
-77.30
-75.00
-66.14
-51.64
-32.14
-8.04
19.96
50.27
79.88
104.52
119.47
121.22
109.50
87.91
62.58
38.92
18.51
-1.22
-24.28
-51.95
-80.05
-100.00
-103.40
-87.46
-57.60
-25.31
-2.45
4.58
-2.67
-16.56
-28.14
-31.90
-27.75
-19.69
-12.56
-9.07
-8.70
-8.53
-5.13
3.68
17.84
35.24
52.72
67.14
76.27
79.05
75.62
67.14
55.51
42.84
30.94
20.62
11.72
3.73
-3.46
-9.34
-13.70
-17.76
-24.45
-37.01
-56.53
-79.84
-99.42
-106.05
-93.00
-59.63
-12.18
38.69
82.22
111.23
123.57
121.13
107.18
84.19
53.62
17.31
-20.79
-54.26
-75.87
-80.78
-69.33
-47.78
-25.94
-12.81
-12.56
-23.16
-38.48
-52.12
-60.81
-65.10
-67.44
-68.99
-67.81
-59.58
-40.25
-9.07
30.15
70.17
102.99
122.79
127.79
120.02
103.47
81.80
57.12
30.40
2.82
-23.21
-44.36
-58.04
-64.02
-64.65
-63.22
-61.36
-57.76
-49.36
-34.40
-14.90
3.30
13.71
13.43
5.79
-0.76
2.86
21.09
50.71
82.22
104.23
108.52
93.10
62.13
23.60
-13.96
-43.75
-61.84
-66.85
-59.51
-42.16
-18.89
4.26
20.05
22.20
8.26
-18.72
-51.00
-79.06
-95.27
-96.23
-82.96
-59.17
-28.94
4.69
39.46
72.63
100.07
116.89
119.13
105.70
79.18
45.03
9.75
-21.06
-44.06
-58.43
-65.49
-67.62
-67.18
-65.53
-62.95
-58.94
-53.03
-45.55
-37.82
-31.54
-27.68
-25.41
-21.93
-13.36
3.43
28.95
60.19
90.95
113.74
122.42
114.55
92.30
61.41
28.78
0.05
-21.78
-36.04
-43.10
-43.39
-37.37
-26.35
-13.29
-2.48
1.86
-2.64
-15.52
-33.80
-53.03
-68.64
-76.79
-74.85
-61.75
-38.30
-7.62
25.16
54.22
75.01
85.68
87.27
82.44
73.51
61.22
44.94
24.32
0.76
-22.14
-39.87
-49.30
-50.54
-46.95
-43.33
-43.09
-46.48
-50.82
-52.71
-50.29
-44.20
-36.47
-28.49
-19.55
-7.14
11.27
36.03
64.28
90.58
108.81
114.29
105.32
83.65
53.77
21.47
-7.78
-29.83
-42.51
-45.51
-40.03
-28.43
-14.22
-2.11
2.70
-3.68
-21.68
-47.33
-73.17
-91.23
-96.14
-86.99
-66.98
-41.09
-13.50
13.69
39.93
64.65
86.14
101.54
108.04
104.16
90.38
68.88
42.83
15.92
-8.13
-26.29
-37.27
-41.99
-43.21
-43.95
-45.80
-47.98
-48.17
-44.50
-37.52
-30.35
-26.95
-29.13
-34.59
-37.40
-30.82
-10.99
20.56
57.05
89.06
108.25
110.46
96.70
72.16
43.63
16.96
-4.39
-19.62
-29.54
-35.27
-37.37
-35.92
-31.30
-25.11
-20.28
-20.10
-26.50
-38.83
-53.74
-66.50
-73.01
-71.17
-61.31
-45.40
-25.68
-3.75
19.65
43.94
67.90
89.22
104.84
111.91
108.84
95.81
74.85
49.43
23.78
1.87
-13.66
-22.57
-27.20
-31.50
-38.90
-50.32
-63.46
-74.05
-78.42
-75.67
-67.99
-58.82
-50.12
-40.70
-26.89
-5.36
23.67
55.24
81.49
95.50
94.66
81.59
62.24
42.62
26.07
12.69
1.08
-9.46
-17.79
-21.60
-19.46
-12.61
-5.28
-2.83
-8.83
-22.92
-40.80
-56.38
-64.68
-63.92
-55.67
-43.28
-29.67
-15.77
-0.51
17.71
39.23
62.06
82.18
94.91
96.91
87.64
69.53
46.75
23.60
3.33
-12.26
-22.69
-28.43
-30.79
-31.79
-33.73
-38.23
-45.31
-53.15
-58.85
-59.79
-54.87
-44.79
-31.24
-15.69
1.38
20.21
40.60
60.89
77.85
87.81
88.21
78.76
61.65
40.70
19.80
1.68
-12.39
-21.99
-26.95
-27.30
-23.97
-19.59
-18.33
-24.37
-39.37
-60.71
-81.64
-93.97
-91.97
-75.37
-49.58
-22.90
-2.24
10.12
17.09
24.37
36.52
53.95
72.41
85.07
86.09
73.58
50.41
22.86
-2.12
-19.46
-27.25
-26.85
-21.94
-17.03
-15.88
-20.32
-29.69
-41.19
-51.16
-56.55
-56.01
-50.15
-40.63
-28.93
-15.49
0.11
18.31
38.43
58.27
74.49
83.77
84.16
76.03
61.99
45.91
31.56
21.41
16.75
18.33
26.67
41.91
62.56
83.99
98.57
98.19
78.12
40.40
-5.90
-48.48
-77.33
-89.08
-87.24
-78.78
-69.68
-62.11
-54.63
-44.86
-32.24
-18.60
-6.91
0.84
4.67
6.13
6.75
6.85
5.29
0.48
-8.44
-21.02
-35.47
-49.02
-58.84
-62.79
-59.79
-50.36
-36.34
-19.95
-3.01
13.52
29.32
43.80
55.63
62.90
64.05
59.20
50.54
41.22
33.42
27.11
20.00
9.33
-5.70
-22.62
-36.78
-44.22
-44.51
-41.28
-39.85
-43.66
-51.76
-59.46
-61.35
-54.59
-40.40
-22.88
-6.18
7.71
19.19
29.75
40.16
49.59
56.03
57.38
52.51
41.88
27.52
12.35
-0.46
-8.54
-11.23
-9.98
-7.78
-7.73
-11.65
-19.16
-28.12
-35.85
-40.44
-41.29
-38.78
-33.66
-26.52
-17.78
-7.96
2.09
11.36
19.05
24.97
29.50
33.22
36.62
39.67
41.62
41.29
37.50
29.61
17.85
3.38
-12.02
-26.43
-38.31
-46.68
-51.30
-52.63
-51.68
-49.63
-47.26
-44.51
-40.38
-33.23
-21.82
-6.34
11.04
27.05
38.73
44.96
47.01
47.58
48.69
50.32
50.51
47.07
39.61
30.49
23.76
22.54
26.52
31.46
31.28
21.61
2.71
-20.33
-40.07
-50.61
-50.53
-43.23
-34.58
-29.32
-28.49
-29.55
-28.53
-22.78
-12.55
-0.63
9.45
15.62
18.19
18.85
19.02
18.70
16.41
10.53
0.99
-10.08
-19.18
-23.26
-21.50
-15.81
-10.04
-8.29
-13.00
-23.88
-37.88
-50.34
-56.87
-54.81
-44.29
-27.93
-9.72
6.66
19.18
27.82
33.95
39.28
44.73
50.11
54.53
56.94
56.74
53.64
47.30
37.24
22.86
4.12
-17.55
-39.11
-56.47
-65.96
-65.93
-57.29
-43.23
-27.66
-13.30
-0.86
10.78
23.06
36.22
48.91
58.59
62.89
60.75
52.77
40.63
26.22
10.66
-5.91
-23.97
-43.60
-63.17
-78.90
-85.55
-78.53
-56.81
-24.51
9.58
35.15
44.92
38.10
20.82
3.23
-5.64
-1.74
12.64
30.84
45.79
53.38
53.64
49.47
43.90
38.14
31.17
21.21
7.87
-6.72
-18.74
-24.79
-24.31
-20.15
-17.16
-19.50
-28.07
-40.16
-51.30
-57.95
-59.69
-58.97
-58.99
-61.35
-64.38
-63.98
-55.63
-36.78
-8.40
25.37
58.85
86.76
105.94
115.78
117.10
110.87
96.97
74.56
43.79
7.32
-29.32
-59.37
-77.87
-83.56
-78.92
-68.06
-53.89
-37.10
-17.40
4.02
22.76
32.61
28.84
11.78
-11.90
-31.72
-38.03
-26.27
1.21
36.61
70.10
93.31
101.65
94.48
74.28
45.67
14.09
-14.71
-35.61
-45.35
-43.46
-32.70
-18.62
-7.66
-4.87
-12.01
-26.62
-43.64
-57.78
-65.84
-67.80
-65.57
-61.24
-55.32
-46.67
-33.79
-16.45
3.50
22.75
38.25
49.01
56.18
62.03
67.94
73.10
74.72
69.75
56.71
36.97
14.38
-6.44
-22.25
-32.32
-38.32
-42.83
-47.70
-52.97
-57.61
-60.46
-61.24
-60.66
-59.42
-57.30
-52.60
-42.67
-25.44
-1.13
27.23
54.50
75.16
85.44
84.43
74.29
59.09
42.91
28.73
17.67
9.38
3.16
-1.28
-3.67
-3.62
-1.75
0.09
-0.51
-5.29
-14.36
-25.99
-37.46
-46.13
-50.57
-50.77
-47.42
-41.10
-31.80
-19.22
-3.54
14.17
31.62
45.82
54.10
54.98
48.55
36.56
21.65
6.75
-5.79
-14.86
-20.79
-25.03
-29.62
-36.05
-44.68
-54.51
-63.38
-68.96
-69.73
-65.33
-56.71
-45.38
-32.72
-19.53
-5.94
8.09
22.32
36.08
48.38
58.35
65.36
69.06
69.47
66.82
61.62
54.71
47.21
40.43
35.41
32.38
30.69
28.86
25.25
18.90
10.16
0.78
-6.80
-10.72
-10.66
-8.26
-6.48
-8.20
-14.90
-25.92
-38.68
-50.18
-58.25
-62.43
-63.61
-63.01
-61.11
-57.33
-50.55
-40.19
-26.88
-12.32
1.72
14.04
24.30
32.64
38.86
42.18
41.57
36.56
28.20
19.16
13.12
13.40
21.49
36.28
54.32
70.88
81.81
84.85
80.38
70.99
60.10
50.78
45.05
43.32
44.61
46.93
47.75
44.96
37.59
26.14
12.38
-1.77
-15.09
-27.30
-38.63
-48.95
-57.25
-62.19
-62.82
-59.42
-53.59
-47.22
-41.54
-36.61
-31.69
-26.46
-21.25
-16.97
-14.39
-13.49
-13.62
-13.83
-13.46
-12.66
-11.80
-10.89
-9.29
-5.68
0.73
9.09
16.66
19.30
13.76
-0.43
-20.56
-41.22
-56.99
-64.71
-64.46
-59.41
-53.87
-51.14
-52.63
-57.20
-62.37
-65.15
-62.98
-54.91
-41.69
-25.88
-11.21
-0.94
3.15
1.72
-2.51
-6.32
-7.08
-3.95
2.15
9.41
15.99
20.85
24.13
26.88
30.75
37.06
45.96
56.03
64.45
68.50
67.22
62.18
57.41
57.52
65.12
79.82
98.15
115.69
129.41
138.20
142.41
142.06
135.26
119.05
91.33
53.19
9.79
-31.57
-64.20
-84.63
-93.15
-92.28
-84.64
-72.16
-56.81
-41.89
-32.29
-32.52
-43.92
-62.68
-80.79
-89.46
-83.18
-62.17
-31.51
2.34
34.25
61.35
82.09
94.43
95.84
84.93
63.31
36.51
12.14
-3.35
-7.70
-3.59
2.96
5.84
1.07
-12.30
-33.00
-58.79
-86.62
-112.69
-132.06
-139.35
-130.63
-105.09
-65.83
-19.33
26.90
66.72
96.82
116.85
127.60
129.48
121.92
103.72
74.90
38.30
-0.57
-34.66
-57.99
-68.37
-68.01
-61.99
-55.69
-52.17
-51.36
-51.12
-49.49
-46.27
-43.25
-42.82
-45.73
-50.04
-51.37
-44.69
-26.90
1.33
35.68
69.39
95.81
111.30
116.12
113.94
109.96
107.90
108.55
110.17
109.49
103.79
91.89
73.78
50.27
22.27
-9.38
-43.26
-76.82
-107.03
-130.78
-145.63
-150.53
-145.34
-130.69
-108.15
-80.07
-49.55
-19.91
6.71
29.60
48.98
64.93
75.95
78.49
68.73
44.94
9.36
-31.36
-68.94
-96.97
-112.58
-116.48
-111.20
-98.99
-81.49
-60.48
-38.71
-20.08
-8.32
-4.16
-4.59
-3.94
3.87
21.79
48.08
77.45
103.44
121.05
128.17
125.16
113.64
95.65
73.09
47.95
22.95
0.95
-15.98
-27.47
-35.55
-43.54
-54.48
-70.01
-90.00
-112.50
-134.58
-152.94
-164.11
-165.09
-153.88
-130.22
-96.31
-55.95
-13.05
29.19
69.38
107.12
141.37
169.53
188.00
193.30
184.17
163.03
135.40
107.84
85.18
68.22
53.84
37.23
14.75
-13.46
-43.65
-70.74
-90.78
-102.56
-107.57
-107.57
-102.42
-90.01
-67.47
-33.90
7.73
51.31
89.50
116.41
129.57
129.24
117.21
95.83
67.71
36.55
7.89
-12.32
-20.51
-17.65
-9.94
-6.62
-15.37
-38.53
-71.69
-105.38
-129.63
-137.91
-129.14
-107.26
-78.56
-48.55
-20.70
3.74
24.84
42.49
56.07
64.42
66.66
62.92
54.22
42.26
28.78
14.56
-0.47
-16.71
-34.85
-54.93
-75.97
-96.40
-114.17
-127.48
-135.38
-137.69
-134.73
-126.85
-113.91
-95.02
-69.38
-36.76
1.91
44.06
85.89
122.97
150.20
162.79
157.16
132.72
93.30
46.54
2.39
-30.37
-47.60
-50.40
-43.77
-34.02
-25.85
-21.30
-20.63
-23.11
-27.65
-32.83
-35.92
-33.36
-22.06
-1.00
27.21
56.83
80.98
94.38
95.42
86.90
75.00
66.49
66.06
74.56
88.26
100.91
106.17
100.41
84.13
60.92
36.05
14.40
-0.98
-9.33
-12.16
-13.17
-17.48
-30.10
-53.96
-87.95
-125.71
-157.41
-172.54
-164.28
-132.52
-84.22
-30.86
15.81
47.70
62.55
63.53
56.44
46.75
37.54
29.70
23.53
20.01
20.56
24.98
29.91
29.43
17.69
-6.68
-38.52
-67.15
-81.00
-72.96
-43.70
-1.41
42.35
77.45
98.69
106.29
103.65
94.67
81.51
63.84
39.70
7.43
-32.43
-76.58
-119.73
-156.07
-181.27
-192.85
-189.89
-172.58
-142.06
-101.16
-54.72
-9.20
28.99
55.87
71.17
78.28
81.89
85.41
89.39
91.67
89.39
80.41
64.14
41.39
14.04
-15.03
-42.02
-62.42
-72.36
-70.03
-56.65
-36.18
-13.62
7.10
24.45
39.37
53.65
68.20
81.86
91.30
92.39
81.88
58.68
24.82
-15.11
-55.13
-89.74
-115.04
-129.26
-132.30
-124.50
-106.57
-79.53
-45.92
-9.97
22.96
47.97
62.93
69.21
70.72
71.49
73.49
75.80
75.90
71.68
62.44
48.61
30.41
7.28
-21.37
-53.97
-85.30
-107.20
-111.63
-94.98
-60.47
-17.54
22.22
49.84
62.24
62.18
55.53
47.96
42.53
39.55
37.44
34.68
30.67
25.46
19.07
10.64
-1.65
-19.36
-42.14
-66.77
-87.48
-98.06
-94.49
-76.97
-50.02
-20.55
4.85
22.42
32.09
36.31
38.15
39.44
40.28
39.27
34.49
24.26
7.66
-14.98
-41.66
-68.33
-89.41
-99.21
-94.13
-74.34
-44.12
-10.36
20.12
42.88
57.00
64.30
67.69
69.42
70.47
70.63
69.32
66.08
60.68
53.16
43.63
32.28
19.45
5.54
-9.12
-24.37
-39.84
-54.76
-67.57
-76.46
-80.12
-78.47
-72.94
-65.69
-58.39
-51.21
-42.78
-31.15
-15.45
3.14
21.58
36.25
44.86
47.49
46.53
45.13
45.50
47.68
49.65
48.81
43.66
34.90
25.12
17.32
13.10
11.98
11.84
10.59
7.47
3.22
-0.87
-4.31
-7.89
-12.82
-19.24
-25.32
-27.97
-24.78
-15.98
-4.96
3.35
5.21
0.09
-9.07
-17.87
-22.95
-23.64
-21.68
-19.63
-19.17
-20.55
-23.12
-26.11
-29.24
-32.05
-33.73
-32.85
-28.17
-19.79
-9.37
0.39
7.30
10.89
12.92
16.28
23.49
35.03
48.85
61.18
67.96
66.56
56.58
39.93
20.07
0.78
-15.00
-25.72
-31.31
-32.62
-30.76
-26.72
-21.23
-14.90
-8.36
-2.25
2.80
6.59
9.16
10.93
12.35
13.63
14.49
14.26
12.23
8.08
2.25
-4.21
-9.84
-13.41
-14.21
-12.25
-8.04
-2.36
3.96
10.05
14.90
17.49
17.04
13.56
8.19
2.98
0.15
1.08
5.62
12.09
18.23
22.28
23.83
23.76
23.53
24.12
25.19
25.17
22.04
14.60
3.14
-10.43
-23.40
-33.28
-38.78
-40.28
-39.50
-38.79
-39.89
-43.18
-47.44
-50.34
-49.60
-44.03
-34.08
-21.57
-8.78
2.65
12.26
20.65
28.76
37.02
45.02
51.72
55.99
57.11
54.82
49.13
40.05
27.52
11.55
-7.16
-26.87
-44.77
-57.79
-63.66
-62.03
-54.70
-44.91
-36.10
-30.48
-28.45
-28.87
-29.90
-29.84
-27.63
-22.67
-14.58
-3.07
11.89
29.57
48.12
64.58
75.38
77.31
68.71
50.58
26.65
2.50
-16.49
-27.40
-31.03
-31.21
-32.24
-36.28
-41.76
-44.57
-40.82
-29.65
-14.30
-0.44
7.06
6.99
2.66
0.17
5.25
20.37
43.66
69.75
91.87
104.20
103.38
89.06
63.65
31.42
-2.14
-31.31
-51.17
-58.51
-53.22
-38.78
-21.81
-10.28
-10.46
-24.16
-47.46
-72.23
-89.34
-92.53
-80.72
-57.71
-29.67
-2.17
21.88
42.35
60.19
75.81
87.88
93.62
90.37
77.17
55.68
30.09
5.61
-13.33
-24.82
-30.48
-34.41
-40.84
-51.70
-64.92
-75.45
-77.81
-69.13
-50.97
-28.55
-8.08
6.46
15.08
21.57
31.27
47.94
71.53
98.01
120.37
131.39
126.36
104.57
69.90
29.34
-9.09
-38.62
-55.61
-60.17
-55.88
-48.46
-43.67
-45.05
-52.62
-62.94
-70.70
-71.51
-63.80
-49.23
-31.38
-13.24
4.12
21.58
40.28
60.12
78.77
92.43
97.67
92.53
77.18
53.93
26.40
-1.09
-24.72
-42.21
-53.38
-59.93
-64.12
-67.22
-68.75
-67.21
-61.27
-51.30
-39.46
-28.41
-19.62
-12.07
-2.78
11.55
32.14
57.19
81.50
98.48
102.25
90.04
63.39
28.07
-7.79
-36.66
-53.85
-58.63
-53.44
-42.24
-29.21
-17.97
-11.59
-12.25
-20.52
-34.44
-49.75
-61.06
-64.07
-57.51
-43.02
-24.09
-3.83
16.37
36.45
56.45
75.28
90.28
97.91
95.57
82.66
61.29
35.80
11.38
-7.74
-19.99
-26.97
-32.59
-40.70
-52.88
-67.12
-78.87
-83.25
-77.85
-63.76
-44.70
-24.81
-6.12
12.16
32.62
57.01
84.02
108.69
123.83
123.52
106.30
76.13
40.68
7.90
-17.19
-33.53
-42.84
-47.38
-48.64
-47.68
-46.42
-48.06
-55.67
-69.64
-85.87
-96.76
-94.74
-76.48
-45.18
-8.89
23.69
47.27
61.79
70.79
78.23
85.61
91.06
90.58
80.40
59.45
30.48
-0.48
-26.17
-41.14
-44.30
-39.43
-33.34
-32.19
-38.25
-48.79
-58.04
-60.82
-55.54
-44.82
-33.37
-24.60
-18.38
-11.08
2.09
23.94
53.01
83.55
107.61
118.04
111.46
89.35
57.45
23.26
-6.84
-29.28
-43.53
-50.73
-52.03
-48.32
-40.87
-32.56
-27.78
-30.55
-41.87
-58.08
-72.02
-76.14
-66.38
-44.11
-15.19
13.09
35.57
51.00
61.43
69.91
78.28
85.74
89.44
85.87
72.82
50.78
23.33
-3.88
-25.37
-38.13
-42.92
-43.48
-44.06
-47.01
-51.60
-55.16
-55.39
-52.14
-47.40
-43.69
-41.81
-39.85
-34.11
-20.98
0.91
30.10
62.68
93.26
116.05
125.81
119.34
96.90
63.08
25.73
-6.61
-27.97
-37.07
-36.99
-33.05
-30.11
-30.94
-36.17
-45.15
-56.61
-68.63
-78.39
-82.32
-77.28
-62.21
-39.05
-12.15
13.37
33.75
47.68
56.14
61.44
65.84
70.47
74.93
77.31
74.72
64.43
45.54
19.82
-8.27
-33.41
-51.73
-62.33
-67.17
-69.14
-70.13
-69.73
-66.07
-57.72
-45.10
-30.64
-17.43
-7.20
0.96
10.20
24.28
45.18
71.61
98.58
119.05
126.42
117.26
92.91
59.07
23.37
-7.54
-30.10
-44.19
-51.47
-53.50
-51.17
-45.20
-37.45
-31.21
-30.09
-35.96
-47.56
-60.78
-70.24
-71.68
-63.44
-46.61
-23.97
1.01
25.19
46.23
62.76
74.54
81.95
85.52
84.94
78.75
65.20
43.79
16.70
-11.47
-35.43
-51.68
-59.99
-62.91
-63.77
-64.57
-64.98
-63.23
-57.88
-49.02
-38.36
-27.81
-18.17
-8.67
2.69
17.62
36.46
57.60
77.98
93.73
101.13
97.71
83.21
60.07
32.90
7.00
-13.26
-25.71
-30.48
-29.30
-24.73
-19.72
-17.39
-20.51
-30.56
-46.49
-64.28
-78.22
-82.87
-75.59
-57.55
-32.97
-7.23
15.47
33.24
45.96
54.76
61.05
66.06
70.50
74.18
75.45
71.45
59.37
38.38
10.98
-17.32
-40.37
-54.19
-58.64
-56.81
-52.93
-49.72
-47.85
-46.37
-44.62
-42.92
-42.10
-41.95
-40.37
-33.78
-18.82
5.51
37.04
70.69
99.91
118.20
120.70
105.90
76.67
40.06
4.95
-21.07
-34.92
-38.50
-36.76
-34.33
-33.11
-32.26
-30.39
-27.80
-26.90
-30.35
-38.60
-48.37
-54.39
-52.05
-40.17
-21.52
-0.85
17.77
32.70
44.61
55.02
64.61
72.38
75.96
72.96
62.12
43.93
20.73
-4.03
-26.68
-44.64
-56.84
-63.90
-67.16
-67.56
-64.93
-58.30
-47.24
-32.90
-18.42
-7.62
-2.92
-3.79
-6.75
-7.13
-1.53
10.72
27.53
45.69
62.48
76.32
86.52
92.08
91.55
83.36
66.85
43.18
15.41
-11.98
-34.17
-47.15
-49.02
-41.07
-28.08
-17.26
-15.74
-27.35
-50.13
-76.57
-96.68
-102.25
-90.58
-65.24
-33.77
-3.78
20.27
38.00
51.52
63.10
73.31
80.92
84.22
82.34
75.59
65.18
52.15
37.13
20.39
2.27
-16.47
-34.80
-51.48
-65.22
-74.71
-78.76
-76.79
-69.30
-58.05
-45.59
-34.07
-24.16
-14.67
-3.35
11.76
30.92
52.24
72.35
87.72
96.00
96.52
90.24
79.05
64.85
49.08
32.71
16.39
1.11
-11.95
-21.68
-27.94
-32.03
-36.38
-43.44
-54.06
-66.74
-78.05
-84.27
-83.26
-75.36
-62.86
-48.47
-33.72
-18.52
-1.96
16.29
35.01
51.80
64.24
71.22
73.49
72.82
70.60
66.79
60.01
48.68
32.24
11.71
-11.08
-34.34
-56.79
-77.12
-93.23
-102.25
-101.53
-90.50
-71.75
-50.31
-31.48
-18.25
-10.04
-3.59
4.80
17.06
32.70
49.50
65.01
77.54
85.82
88.39
83.33
69.22
46.68
19.33
-6.94
-26.21
-34.93
-33.36
-25.10
-15.16
-7.95
-5.90
-9.37
-17.25
-27.77
-39.09
-49.35
-56.72
-59.70
-57.19
-48.79
-34.85
-16.42
4.68
26.00
44.84
59.13
68.03
72.14
72.63
70.29
64.80
55.16
40.82
22.72
3.31
-14.63
-29.44
-41.19
-50.96
-59.45
-65.95
-68.71
-66.32
-59.04
-49.12
-39.58
-32.44
-27.43
-22.21
-13.90
-0.71
16.94
36.94
56.47
73.07
85.03
91.17
90.67
83.19
69.34
50.79
30.20
10.52
-5.85
-17.83
-25.75
-30.96
-35.04
-39.05
-43.17
-46.90
-49.72
-51.41
-52.23
-52.37
-51.30
-47.60
-39.58
-26.27
-8.35
11.65
30.25
44.49
53.05
56.71
57.60
58.03
59.37
61.39
62.33
59.64
51.06
35.68
14.44
-10.00
-34.14
-54.82
-69.93
-78.91
-82.39
-81.52
-77.43
-70.87
-62.00
-50.68
-36.73
-20.14
-1.25
19.41
41.01
62.17
80.91
94.28
99.04
92.75
75.33
49.97
22.38
-1.15
-16.48
-23.04
-23.40
-21.17
-18.76
-16.73
-14.72
-13.16
-14.02
-19.78
-31.18
-45.70
-58.11
-62.75
-56.60
-40.91
-20.25
-0.06
16.02
27.42
35.79
43.30
51.01
58.26
63.35
64.43
60.38
50.92
36.69
19.06
-0.24
-19.31
-36.70
-51.44
-62.94
-70.65
-73.76
-71.57
-64.10
-52.74
-40.02
-28.91
-21.12
-16.34
-12.22
-5.52
6.07
22.88
42.89
62.48
77.61
85.00
82.99
71.97
54.41
34.01
14.59
-1.02
-11.60
-17.33
-19.06
-17.81
-14.98
-12.59
-13.40
-19.75
-32.01
-47.39
-60.49
-65.64
-59.74
-44.08
-23.52
-4.03
10.66
20.42
27.99
36.70
47.96
60.30
70.27
74.24
70.18
58.44
41.30
22.00
3.52
-12.53
-26.14
-38.38
-50.22
-61.41
-69.98
-73.39
-70.06
-60.65
-48.30
-37.04
-29.35
-24.80
-19.90
-10.26
6.96
31.30
58.83
83.90
101.33
108.09
103.68
89.69
68.83
44.33
19.69
-1.55
-16.27
-22.66
-21.25
-15.23
-9.82
-10.47
-20.55
-39.73
-63.75
-85.99
-99.98
-101.83
-91.54
-72.10
-47.95
-23.10
0.11
20.70
38.55
53.53
65.17
73.19
77.55
78.63
76.63
71.23
61.53
47.03
28.22
6.93
-14.54
-34.30
-51.30
-64.82
-73.93
-77.20
-73.83
-64.68
-52.72
-41.86
-34.74
-30.85
-26.70
-17.74
-1.41
21.22
45.91
67.54
82.37
89.07
87.91
79.70
65.31
46.30
25.53
6.78
-6.75
-14.05
-17.12
-19.49
-24.13
-31.40
-39.19
-44.71
-46.78
-46.56
-46.73
-48.95
-52.36
-53.78
-49.52
-37.91
-20.36
-0.61
17.33
31.30
41.63
50.27
59.05
68.15
75.56
77.97
72.30
57.40
34.89
8.81
-15.83
-35.10
-47.58
-54.25
-57.25
-57.89
-55.92
-50.30
-40.98
-30.19
-22.03
-20.14
-24.91
-32.53
-36.26
-30.15
-12.24
14.16
42.00
64.07
76.15
78.41
74.31
68.16
62.85
58.80
54.61
48.42
39.46
28.06
15.10
0.79
-15.59
-34.75
-55.84
-75.64
-89.29
-92.69
-84.90
-69.05
-51.02
-36.35
-27.42
-22.64
-17.78
-9.07
4.54
20.88
36.04
46.75
52.04
53.45
53.63
54.54
56.03
55.94
51.11
39.52
21.69
0.69
-19.15
-34.54
-44.28
-49.22
-50.57
-48.62
-42.55
-31.96
-18.64
-6.92
-2.01
-6.82
-19.66
-34.25
-42.52
-38.67
-22.01
2.76
28.09
47.17
56.68
57.47
52.95
46.89
41.45
36.87
32.12
26.33
19.51
12.35
5.37
-2.01
-11.30
-23.61
-38.14
-51.47
-58.70
-55.92
-42.66
-22.74
-2.94
10.15
13.10
7.06
-3.19
-11.66
-13.97
-8.81
2.06
15.21
27.29
36.21
41.50
43.75
43.71
41.52
36.58
28.13
16.24
2.44
-10.43
-19.17
-21.89
-19.19
-14.27
-11.41
-13.64
-20.77
-29.14
-33.79
-31.51
-23.21
-13.68
-8.79
-11.68
-20.40
-28.70
-29.40
-18.57
2.17
26.44
46.48
57.03
57.33
50.59
41.45
33.45
27.63
22.99
17.88
11.37
3.75
-3.92
-10.61
-15.93
-20.15
-23.71
-26.67
-28.56
-28.80
-27.25
-24.60
-22.11
-20.95
-21.49
-23.01
-24.05
-22.99
-18.78
-11.16
-0.52
12.44
26.88
41.68
55.18
65.19
69.25
65.33
52.71
32.52
7.80
-16.90
-36.67
-47.73
-48.92
-42.24
-31.93
-22.61
-17.04
-15.28
-15.53
-15.99
-16.42
-18.26
-22.93
-29.91
-35.90
-36.05
-26.62
-7.38
17.86
43.06
62.71
74.07
77.46
74.80
67.62
56.17
40.02
19.62
-2.51
-21.99
-34.48
-37.87
-33.72
-26.36
-20.61
-19.18
-21.57
-25.12
-27.25
-27.41
-27.31
-29.37
-34.60
-41.42
-46.22
-45.30
-36.84
-21.72
-2.98
15.68
31.45
43.16
51.28
57.14
61.85
65.31
65.83
60.59
47.22
25.47
-1.66
-28.66
-49.75
-61.42
-63.71
-59.42
-51.82
-42.65
-31.91
-19.49
-7.08
1.51
2.35
-5.67
-18.89
-30.03
-31.66
-20.32
1.60
27.24
48.98
62.22
66.82
65.85
62.72
58.98
53.85
45.64
33.72
19.60
6.43
-2.92
-7.46
-8.83
-10.25
-14.61
-22.73
-32.95
-42.30
-48.24
-50.18
-49.43
-48.18
-47.83
-47.93
-46.30
-40.25
-28.08
-10.15
11.10
32.32
50.56
64.50
74.43
81.36
85.59
85.67
78.65
61.55
33.74
-1.50
-37.39
-66.20
-82.57
-85.49
-77.97
-64.54
-48.57
-31.36
-13.44
3.33
14.90
16.58
6.33
-12.68
-32.47
-43.60
-39.85
-21.34
5.95
33.63
54.97
67.38
72.02
71.53
67.71
60.61
49.32
33.55
14.79
-3.92
-19.28
-29.29
-34.11
-35.68
-36.42
-37.66
-39.09
-39.40
-37.75
-34.88
-32.92
-33.99
-38.48
-44.11
-46.78
-42.66
-30.32
-11.52
9.69
28.97
43.76
53.98
61.41
67.97
74.17
78.53
78.13
70.15
53.37
29.18
1.40
-25.14
-46.42
-60.58
-67.81
-69.15
-65.19
-55.77
-41.08
-23.29
-6.99
2.30
1.12
-9.32
-23.06
-31.93
-29.68
-15.09
7.82
32.36
52.86
66.94
75.41
80.20
81.99
79.45
70.16
52.80
28.80
2.56
-20.19
-34.79
-39.75
-37.28
-32.09
-28.97
-30.43
-35.85
-42.27
-46.54
-47.21
-45.23
-42.88
-41.90
-41.96
-40.55
-34.50
-21.88
-3.35
17.92
37.77
53.09
62.97
68.76
72.59
75.66
76.88
73.12
60.78
38.21
7.56
-25.42
-53.57
-71.47
-77.66
-74.52
-66.08
-55.32
-43.06
-28.96
-13.71
-0.36
6.73
4.53
-5.93
-19.16
-27.63
-25.61
-12.12
8.86
30.95
48.73
59.94
65.50
67.63
67.76
65.60
59.54
48.14
31.68
12.50
-5.80
-20.02
-28.90
-33.53
-36.35
-39.49
-43.35
-46.60
-47.44
-45.24
-41.28
-38.08
-37.55
-39.41
-41.01
-38.65
-29.72
-14.28
5.01
24.29
40.58
52.88
62.02
69.37
75.31
78.53
76.39
66.34
47.51
21.70
-6.94
-33.48
-54.07
-67.07
-72.75
-72.01
-65.19
-52.23
-33.90
-13.28
4.20
12.77
9.39
-4.00
-20.66
-32.09
-32.14
-19.85
0.50
22.17
39.58
50.61
56.57
60.12
62.87
64.19
61.62
52.81
37.41
17.88
-1.49
-16.54
-25.46
-29.54
-32.13
-36.22
-42.34
-48.18
-50.17
-46.14
-37.16
-27.19
-20.93
-20.92
-25.91
-31.61
-33.03
-27.19
-14.40
2.43
19.68
34.92
47.51
57.91
66.32
71.78
72.11
64.95
49.22
26.22
-0.22
-24.71
-42.40
-50.80
-50.77
-45.62
-39.10
-33.13
-27.16
-19.44
-9.34
0.94
6.88
4.25
-7.79
-25.10
-39.95
-44.60
-35.12
-13.28
14.54
40.50
58.73
67.08
66.84
60.84
51.63
40.58
28.12
14.79
1.94
-8.38
-14.40
-15.89
-14.64
-13.91
-16.65
-23.63
-32.85
-40.48
-43.05
-39.51
-31.79
-23.68
-18.58
-17.70
-19.61
-21.24
-19.70
-13.63
-3.46
9.17
22.40
34.80
45.51
53.93
59.51
61.55
59.24
51.96
39.62
23.20
4.86
-12.39
-25.86
-34.42
-38.92
-41.62
-44.32
-46.77
-46.34
-39.82
-26.24
-8.73
6.27
12.30
6.83
-6.59
-19.91
-24.71
-16.78
1.83
24.20
42.50
51.91
52.22
46.66
39.06
31.46
23.54
14.07
2.89
-8.03
-15.30
-16.26
-11.02
-3.31
0.96
-3.14
-16.49
-34.78
-50.31
-56.07
-49.64
-34.69
-18.84
-9.39
-9.10
-14.95
-20.22
-18.66
-7.99
9.22
27.58
42.24
51.18
55.42
57.06
57.14
54.62
47.20
33.38
14.00
-7.13
-24.66
-33.74
-32.50
-22.78
-9.71
0.78
4.53
1.27
-5.37
-9.87
-7.82
1.30
13.71
22.96
23.48
13.66
-2.98
-19.24
-27.84
-24.74
-11.04
7.92
25.50
36.82
40.82
39.69
36.93
34.71
32.50
27.71
17.70
2.25
-15.73
-31.11
-39.52
-39.65
-34.25
-28.40
-26.67
-30.41
-37.25
-42.94
-44.19
-40.94
-36.10
-33.46
-34.81
-38.42
-39.82
-34.32
-20.15
0.12
20.45
34.20
37.42
30.83
19.34
9.56
6.55
11.47
21.51
31.48
36.79
35.60
29.26
21.31
15.15
12.25
11.53
10.35
6.54
0.09
-6.47
-9.53
-6.82
0.67
8.71
12.00
7.24
-4.51
-18.16
-26.94
-26.04
-14.94
2.48
20.43
34.37
43.22
49.04
54.81
61.81
68.67
71.64
66.42
50.10
23.21
-10.01
-42.38
-66.22
-76.26
-71.74
-56.80
-38.46
-23.43
-15.27
-13.61
-15.62
-18.54
-21.49
-25.34
-30.96
-37.14
-40.38
-36.61
-23.93
-4.04
18.34
37.72
50.20
54.47
51.65
43.82
32.67
19.57
5.31
-8.94
-21.95
-32.16
-38.00
-38.40
-33.31
-24.35
-14.68
-8.07
-7.06
-11.51
-18.48
-23.79
-24.48
-20.47
-14.60
-10.61
-10.74
-14.27
-18.09
-18.68
-14.06
-4.89
6.48
17.43
26.81
34.68
41.80
48.17
52.41
52.41
46.20
33.50
16.16
-2.07
-16.92
-25.09
-25.52
-19.76
-11.31
-4.28
-1.56
-3.64
-8.23
-11.39
-9.72
-2.25
8.47
17.50
20.04
14.38
3.12
-7.99
-12.78
-8.13
4.66
20.47
33.31
38.87
36.71
29.49
21.40
16.12
15.07
17.45
20.35
20.11
13.40
-1.26
-22.33
-44.89
-61.46
-64.30
-48.77
-15.84
27.17
68.39
95.06
98.10
75.41
32.42
-19.69
-67.72
-100.26
-110.73
-98.88
-70.52
-35.40
-3.87
16.50
23.00
18.28
8.21
-1.07
-5.59
-4.80
-0.54
4.64
8.76
10.80
10.17
6.38
-0.24
-7.60
-11.97
-9.46
1.57
19.12
38.08
52.52
58.53
55.82
47.04
35.87
24.65
13.54
1.25
-13.25
-29.20
-43.83
-53.39
-54.95
-47.88
-34.33
-18.41
-4.59
4.18
7.65
7.72
7.01
6.86
6.69
4.66
-0.88
-10.09
-21.09
-31.17
-37.95
-40.66
-39.96
-37.43
-34.54
-31.77
-28.64
-24.01
-17.01
-7.53
3.56
14.82
25.01
33.27
39.24
42.57
42.54
38.85
32.00
23.72
16.05
9.93
4.59
-2.53
-13.98
-30.07
-47.71
-61.02
-63.84
-53.00
-30.25
-1.93
23.70
39.77
43.66
37.24
25.34
13.26
4.52
-0.15
-2.20
-3.66
-5.83
-8.45
-10.19
-9.94
-7.41
-3.34
0.79
3.73
4.62
3.23
-0.10
-4.76
-9.72
-13.77
-15.97
-16.04
-14.77
-13.96
-15.76
-21.57
-31.17
-42.44
-51.91
-56.18
-53.03
-42.20
-25.39
-5.34
15.20
33.83
48.78
58.83
63.04
61.18
54.02
43.43
32.05
22.48
16.38
14.09
14.79
16.97
19.18
20.46
20.42
19.21
17.24
14.94
12.86
11.57
11.29
11.87
12.59
12.35
10.37
6.38
0.94
-4.90
-10.09
-14.01
-16.52
-17.73
-17.70
-16.29
-13.35
-9.08
-4.21
0.13
2.94
3.84
3.31
2.38
2.03
2.73
4.41
6.64
9.01
11.23
12.99
13.91
13.64
12.19
10.14
8.52
8.23
9.41
11.30
12.56
12.23
10.44
8.45
7.90
9.78
13.72
18.19
21.35
22.10
20.57
18.00
15.78
14.79
15.03
15.94
16.81
17.32
17.53
17.68
17.83
17.75
17.07
15.54
13.16
10.08
6.33
1.88
-3.37
-9.15
-14.83
-19.44
-22.20
-22.97
-22.33
-21.30
-20.67
-20.59
-20.53
-19.79
-17.94
-15.38
-13.12
-12.27
-13.51
-16.43
-19.94
-22.39
-22.71
-20.83
-17.56
-14.23
-11.63
-9.77
-7.74
-4.53
0.18
5.56
9.88
11.75
10.99
9.12
8.38
10.26
14.09
17.19
16.32
9.74
-1.35
-13.36
-22.14
-25.39
-23.73
-20.18
-18.04
-18.83
-21.65
-23.77
-22.90
-18.29
-11.32
-4.55
-0.16
0.94
-0.43
-2.65
-3.97
-3.56
-1.59
0.86
2.38
2.04
-0.31
-3.77
-6.98
-8.53
-7.91
-5.76
-3.74
-3.69
-6.64
-12.20
-18.56
-23.39
-24.82
-22.39
-17.15
-11.04
-5.92
-2.74
-1.30
-0.71
-0.15
0.67
1.30
1.03
-0.62
-3.48
-6.85
-9.73
-11.34
-11.43
-10.30
-8.62
-7.05
-5.90
-5.08
-4.19
-2.88
-1.08
0.78
2.04
2.12
0.91
-1.04
-2.82
-3.58
-3.10
-1.98
-1.39
-2.38
-5.23
-9.18
-12.56
-13.58
-11.20
-5.75
1.10
7.08
10.40
10.61
8.72
6.57
5.71
6.71
8.93
11.31
13.02
14.11
15.18
16.67
18.18
18.39
15.96
10.44
2.95
-4.18
-8.50
-8.75
-5.56
-1.03
2.30
2.85
0.74
-2.37
-4.30
-3.50
0.07
5.02
9.24
11.01
9.97
7.28
5.04
5.22
8.45
13.65
18.51
20.81
19.62
15.90
11.85
9.63
9.94
11.63
12.47
10.66
6.13
0.75
-2.71
-2.27
1.94
7.63
11.55
11.40
7.05
0.71
-4.30
-5.42
-2.22
3.38
8.24
9.77
7.38
2.80
-0.96
-1.32
2.40
8.58
14.29
16.82
15.10
9.96
3.36
-2.81
-7.70
-11.45
-14.51
-16.81
-17.46
-15.25
-9.70
-1.74
6.27
11.42
11.59
6.57
-1.76
-10.18
-15.47
-15.85
-11.63
-4.93
1.46
5.35
5.97
4.08
1.20
-1.30
-2.86
-3.95
-5.48
-8.15
-11.83
-15.49
-17.55
-16.76
-12.98
-7.42
-2.26
0.32
-0.88
-5.43
-11.52
-16.72
-19.20
-18.35
-14.90
-10.23
-5.47
-1.04
3.35
8.02
12.60
15.91
16.41
13.21
6.79
-0.81
-6.85
-9.10
-6.98
-1.86
3.69
7.28
7.74
5.62
2.61
0.49
0.11
0.97
1.69
0.94
-1.64
-5.07
-7.54
-7.41
-4.31
0.53
4.82
6.45
4.73
0.87
-2.76
-3.81
-1.50
2.91
6.72
7.23
3.28
-4.13
-12.33
-18.28
-20.08
-17.74
-12.83
-7.41
-2.87
0.63
3.84
7.45
11.21
13.85
13.68
9.91
3.51
-2.89
-6.13
-4.22
2.52
11.46
18.85
21.65
18.99
12.52
5.19
-0.15
-2.27
-1.87
-0.80
-0.83
-2.46
-4.77
-6.08
-5.04
-1.67
2.55
5.40
5.17
1.65
-3.63
-8.14
-9.68
-7.68
-3.42
0.63
2.20
0.56
-3.08
-6.24
-6.49
-2.85
3.72
10.75
15.53
16.41
13.53
8.62
3.99
1.32
0.94
1.90
2.78
2.73
2.01
1.80
3.38
7.03
11.67
15.32
16.19
13.79
9.36
5.15
3.19
4.02
6.44
8.30
7.80
4.72
0.59
-2.22
-1.93
1.35
5.58
7.76
5.64
-0.95
-9.88
-17.72
-21.45
-19.94
-14.46
-7.87
-3.19
-2.13
-4.43
-8.33
-11.66
-13.05
-12.46
-10.92
-9.61
-9.08
-8.82
-7.64
-4.61
0.18
5.29
8.46
7.82
2.93
-4.77
-12.56
-17.70
-18.89
-16.69
-13.04
-9.98
-8.36
-7.71
-6.91
-5.42
-3.93
-4.05
-7.08
-12.84
-19.34
-23.52
-22.84
-16.47
-5.79
6.29
16.52
22.52
23.35
19.63
13.14
6.08
0.46
-2.52
-2.70
-0.72
2.48
6.23
10.27
14.54
18.64
21.63
22.25
19.62
14.06
7.19
1.45
-1.13
0.09
3.91
8.03
10.20
9.47
6.58
3.42
1.86
2.60
4.81
6.59
6.24
3.20
-1.51
-5.96
-8.43
-8.51
-7.31
-6.84
-8.64
-12.71
-17.31
-19.73
-17.86
-11.52
-2.71
5.21
9.27
8.36
3.79
-1.55
-4.76
-4.49
-1.46
2.19
4.33
4.14
2.53
1.41
2.45
5.90
10.34
13.48
13.46
9.94
4.35
-0.85
-3.60
-3.24
-0.86
1.51
2.17
0.79
-1.50
-2.94
-2.49
-0.61
0.85
-0.19
-4.62
-11.30
-17.37
-19.62
-16.18
-7.65
3.04
11.95
16.01
14.40
8.88
2.70
-1.09
-1.19
1.46
4.48
5.55
3.85
0.52
-2.15
-2.10
1.09
5.98
9.98
10.85
8.01
2.82
-2.08
-4.27
-2.77
1.42
6.04
8.83
8.75
6.47
3.62
1.62
0.60
-0.58
-3.41
-8.29
-13.78
-17.10
-15.66
-8.76
1.59
11.33
16.27
14.14
5.80
-5.11
-14.00
-17.32
-14.20
-6.54
2.13
8.42
10.70
9.51
6.91
5.05
4.82
5.35
4.72
1.37
-4.72
-11.72
-16.79
-17.61
-13.68
-6.68
0.31
4.30
3.90
-0.16
-5.54
-9.65
-11.03
-9.98
-8.16
-7.35
-8.22
-9.82
-10.23
-7.79
-2.31
4.56
10.06
11.79
8.91
2.66
-4.38
-9.48
-11.07
-9.20
-5.26
-0.97
2.62
5.46
8.22
11.34
14.41
15.94
14.27
8.68
0.29
-8.02
-12.81
-11.80
-5.18
4.38
12.94
17.25
16.40
12.08
7.55
5.81
7.87
12.20
15.61
15.05
9.31
-0.13
-9.86
-16.23
-17.28
-13.62
-7.97
-3.44
-1.84
-2.84
-4.48
-4.58
-2.26
1.59
4.92
6.01
4.53
1.89
0.28
1.33
4.96
9.34
11.90
10.74
5.82
-1.04
-7.23
-10.86
-11.79
-11.63
-12.43
-15.26
-19.27
-22.05
-21.13
-15.55
-6.66
2.44
8.44
9.51
6.18
0.86
-3.54
-5.07
-3.62
-0.56
2.25
3.63
3.64
3.37
4.04
6.18
9.19
11.63
12.10
9.99
6.00
1.88
-0.32
0.76
5.10
11.06
16.09
17.91
15.70
10.61
5.27
2.32
2.83
5.72
8.36
8.28
4.72
-0.86
-5.77
-7.88
-7.00
-4.95
-4.25
-6.39
-10.78
-15.09
-16.77
-14.57
-9.28
-3.28
0.88
1.78
-0.25
-3.43
-5.66
-5.60
-3.35
-0.22
1.98
2.04
-0.11
-3.26
-5.66
-6.00
-4.19
-1.44
0.40
-0.03
-2.72
-6.21
-8.44
-7.93
-4.77
-0.62
2.25
2.25
-0.51
-4.32
-6.79
-6.25
-2.68
2.34
6.66
8.68
8.20
6.45
5.21
5.82
8.40
11.91
14.72
15.65
14.49
12.14
9.97
9.01
9.45
10.64
11.69
12.03
11.83
11.68
12.12
13.08
13.74
12.99
10.20
5.74
1.02
-2.24
-2.87
-0.93
2.25
4.75
5.07
2.87
-0.80
-4.04
-5.01
-3.03
0.97
4.85
6.26
4.03
-1.23
-7.27
-11.33
-11.63
-8.30
-3.32
0.68
1.85
0.26
-2.34
-3.67
-2.49
0.62
3.47
3.78
0.64
-4.70
-9.42
-10.77
-7.78
-2.06
3.26
5.15
2.91
-1.58
-5.01
-4.73
-0.74
4.26
6.48
3.50
-3.89
-12.03
-16.44
-14.56
-7.27
1.49
7.05
6.57
0.41
-8.35
-15.79
-19.19
-18.24
-14.66
-11.02
-9.12
-9.23
-10.14
-9.98
-7.34
-2.17
3.99
8.80
10.09
7.21
1.40
-4.73
-8.48
-8.52
-5.50
-1.52
1.17
1.51
0.18
-1.11
-0.90
1.01
3.36
4.33
2.83
-0.63
-4.18
-5.55
-3.53
1.23
6.50
9.58
8.70
3.94
-2.77
-8.74
-11.72
-11.10
-7.96
-4.50
-2.68
-3.26
-5.31
-6.88
-6.21
-2.75
2.37
7.06
9.37
8.62
5.65
2.23
-0.05
-0.60
0.01
0.56
0.14
-1.27
-2.83
-3.39
-2.26
0.30
3.18
5.04
4.98
3.15
0.72
-0.79
-0.22
2.42
6.01
8.79
9.47
7.88
5.06
2.73
2.24
3.94
6.89
9.53
10.57
9.79
8.11
7.07
7.77
10.14
12.94
14.41
13.42
10.10
5.87
2.63
1.66
2.94
5.19
6.68
6.23
3.82
0.54
-2.14
-3.19
-2.57
-1.17
-0.18
-0.40
-1.73
-3.32
-4.13
-3.64
-2.16
-0.75
-0.59
-2.29
-5.46
-8.94
-11.32
-11.64
-9.88
-6.90
-4.00
-2.29
-2.18
-3.32
-4.83
-5.81
-5.77
-4.80
-3.44
-2.22
-1.33
-0.51
0.72
2.57
4.72
6.27
6.30
4.41
1.17
-2.04
-3.67
-2.84
0.12
3.87
6.73
7.68
6.98
5.88
5.90
7.80
11.09
14.40
16.22
15.88
13.90
11.74
10.96
12.27
15.36
19.10
22.36
24.65
26.12
27.05
27.67
27.59
26.52
24.45
22.14
20.79
21.21
23.28
25.62
26.37
24.24
19.33
13.23
8.09
5.61
6.26
9.22
13.07
16.37
18.13
18.06
16.29
13.15
9.07
4.39
-0.52
-5.27
-9.60
-13.36
-16.42
-18.50
-19.42
-18.70
-16.40
-12.75
-8.69
-5.36
-3.74
-4.40
-7.05
-10.94
-15.00
-18.52
-21.22
-23.32
-25.15
-26.72
-27.65
-27.48
-25.98
-23.45
-20.72
-18.51
-17.19
-16.44
-15.41
-13.39
-10.21
-6.57
-3.78
-3.05
-4.94
-8.94
-13.81
-18.07
-20.77
-21.71
-21.52
-21.19
-21.53
-22.80
-24.46
-25.40
-24.45
-21.01
-15.41
-8.97
-3.37
0.11
1.22
0.84
0.33
0.73
2.20
4.07
5.39
5.61
4.89
3.76
2.64
1.37
-0.59
-3.69
-7.73
-11.67
-14.02
-13.66
-10.38
-5.16
0.31
4.38
6.16
5.83
4.42
3.23
3.17
4.45
6.66
8.95
10.59
11.10
10.32
8.38
5.47
1.86
-2.07
-5.85
-8.93
-10.85
-11.32
-10.40
-8.39
-5.88
-3.55
-2.08
-1.86
-2.86
-4.58
-6.24
-7.07
-6.75
-5.53
-4.16
-3.44
-3.71
-4.62
-5.27
-4.74
-2.63
0.62
3.96
6.36
7.29
7.02
6.38
6.14
6.54
7.23
7.54
7.00
5.69
4.23
3.35
3.49
4.42
5.42
5.64
4.60
2.53
0.28
-1.10
-0.94
0.69
2.96
4.63
4.70
2.86
-0.32
-3.63
-5.87
-6.31
-5.10
-3.13
-1.50
-0.96
-1.55
-2.64
-3.35
-3.16
-2.20
-1.18
-0.91
-1.72
-3.22
-4.44
-4.53
-3.25
-1.22
0.46
0.95
0.10
-1.35
-2.30
-1.99
-0.50
1.27
2.09
1.23
-1.06
-3.68
-5.19
-4.69
-2.29
0.91
3.44
4.21
3.10
0.89
-1.15
-2.09
-1.74
-0.71
0.05
-0.12
-1.17
-2.40
-2.87
-2.05
-0.12
2.06
3.43
3.35
1.96
0.12
-1.08
-0.94
0.49
2.42
3.77
3.76
2.31
0.08
-1.90
-2.73
-2.10
-0.43
1.42
2.64
2.81
2.11
1.16
0.55
0.53
0.87
1.03
0.56
-0.60
-1.99
-2.94
-2.92
-1.94
-0.55
0.47
0.56
-0.28
-1.46
-2.18
-1.93
-0.74
0.72
1.60
1.33
0.01
-1.69
-2.83
-2.81
-1.65
-0.02
1.17
1.31
0.48
-0.65
-1.20
-0.61
0.96
2.76
3.88
3.77
2.58
1.10
0.25
0.57
1.88
3.39
4.12
3.47
1.61
-0.65
-2.26
-2.54
-1.54
0.01
1.11
1.11
0.03
-1.40
-2.23
-1.92
-0.62
0.89
1.66
1.15
-0.40
-2.15
-3.14
-2.80
-1.36
0.39
1.49
1.37
0.18
-1.35
-2.33
-2.21
-1.08
0.40
1.38
1.36
0.44
-0.67
-1.11
-0.41
1.26
3.09
4.11
3.72
2.06
-0.08
-1.66
-2.03
-1.20
0.10
0.97
0.77
-0.40
-1.83
-2.61
-2.14
-0.54
1.43
2.76
2.78
1.57
-0.10
-1.17
-0.94
0.53
2.41
3.57
3.29
1.64
-0.50
-1.94
-1.89
-0.42
1.57
2.88
2.70
1.12
-0.96
-2.36
-2.28
-0.80
1.23
2.66
2.70
1.40
-0.47
-1.84
-2.03
-1.06
0.33
1.15
0.77
-0.70
-2.50
-3.61
-3.37
-1.83
0.25
1.84
2.24
1.43
0.06
-0.91
-0.85
0.19
1.55
2.33
2.00
0.66
-0.94
-1.86
-1.56
-0.14
1.66
2.90
2.96
1.89
0.31
-0.93
-1.25
-0.67
0.25
0.74
0.29
-1.00
-2.51
-3.41
-3.18
-1.87
-0.15
1.12
1.38
0.62
-0.55
-1.34
-1.22
-0.27
0.86
1.34
0.68
-0.96
-2.81
-3.89
-3.57
-1.95
0.18
1.79
2.15
1.27
-0.17
-1.21
-1.19
-0.18
1.11
1.74
1.16
-0.44
-2.18
-2.97
-2.18
-0.08
2.30
3.65
3.17
1.02
-1.74
-3.70
-3.90
-2.33
0.09
2.03
2.55
1.58
-0.09
-1.31
-1.33
-0.22
1.18
1.85
1.26
-0.31
-1.94
-2.64
-1.96
-0.32
1.30
1.93
1.26
-0.23
-1.55
-1.81
-0.72
1.22
3.06
3.98
3.67
2.47
1.10
0.22
0.10
0.55
1.09
1.27
0.92
0.17
-0.59
-0.98
-0.74
0.08
1.15
2.06
2.45
2.20
1.50
0.73
0.22
0.13
0.30
0.38
0.14
-0.41
-0.87
-0.69
0.44
2.39
4.42
5.62
5.25
3.30
0.52
-1.93
-3.03
-2.52
-1.01
0.41
0.82
0.01
-1.39
-2.33
-2.08
-0.59
1.38
2.82
3.08
2.25
1.10
0.53
1.04
2.39
3.84
4.57
4.23
3.10
1.91
1.37
1.78
2.84
3.82
4.06
3.21
1.52
-0.37
-1.80
-2.37
-2.13
-1.53
-1.10
-1.14
-1.57
-2.03
-2.10
-1.67
-1.01
-0.73
-1.35
-2.95
-5.02
-6.55
-6.59
-4.75
-1.52
1.84
3.88
3.61
1.04
-2.81
-6.44
-8.53
-8.54
-6.86
-4.46
-2.34
-1.08
-0.64
-0.62
-0.64
-0.61
-0.76
-1.39
-2.59
-4.03
-5.05
-5.05
-3.79
-1.66
0.47
1.69
1.48
0.07
-1.72
-2.87
-2.70
-1.27
0.71
2.23
2.56
1.65
0.15
-0.98
-1.04
0.06
1.70
3.00
3.32
2.64
1.62
1.11
1.69
3.24
4.99
5.96
5.49
3.66
1.26
-0.69
-1.39
-0.79
0.49
1.52
1.58
0.62
-0.75
-1.65
-1.46
-0.23
1.39
2.50
2.54
1.58
0.30
-0.46
-0.23
0.88
2.18
2.86
2.45
1.09
-0.52
-1.56
-1.45
-0.26
1.42
2.72
2.98
2.09
0.60
-0.68
-1.05
-0.40
0.79
1.68
1.67
0.69
-0.68
-1.58
-1.46
-0.39
0.92
1.56
0.96
-0.65
-2.41
-3.29
-2.69
-0.88
1.24
2.58
2.52
1.24
-0.39
-1.36
-1.10
0.18
1.66
2.37
1.79
0.12
-1.82
-3.05
-3.01
-1.79
-0.06
1.27
1.66
1.11
0.18
-0.48
-0.46
0.10
0.64
0.55
-0.45
-2.04
-3.47
-3.98
-3.21
-1.49
0.33
1.33
1.03
-0.31
-1.86
-2.62
-2.04
-0.26
1.91
3.42
3.62
2.56
0.97
-0.18
-0.24
0.75
2.13
3.00
2.80
1.65
0.24
-0.58
-0.35
0.71
1.79
2.03
0.99
-0.99
-3.00
-4.02
-3.55
-1.86
0.17
1.49
1.50
0.37
-1.05
-1.79
-1.28
0.27
1.99
2.91
2.44
0.80
-1.11
-2.28
-2.07
-0.67
1.09
2.19
2.01
0.70
-0.97
-2.00
-1.81
-0.53
1.08
2.09
1.92
0.69
-0.88
-1.85
-1.65
-0.42
1.13
2.06
1.83
0.58
-0.94
-1.85
-1.58
-0.29
1.27
2.20
1.95
0.65
-0.95
-1.95
-1.78
-0.55
1.05
2.10
1.99
0.77
-0.89
-2.10
-2.24
-1.33
-0.02
0.83
0.63
-0.55
-2.05
-2.95
-2.63
-1.14
0.84
2.32
2.60
1.68
0.18
-0.95
-1.06
-0.12
1.22
2.09
1.91
0.78
-0.56
-1.24
-0.77
0.60
2.09
2.76
2.17
0.60
-1.14
-2.15
-1.95
-0.75
0.71
1.56
1.34
0.21
-1.14
-1.91
-1.60
-0.37
1.16
2.16
2.13
1.15
-0.14
-0.92
-0.72
0.36
1.65
2.32
1.86
0.41
-1.30
-2.39
-2.26
-0.99
0.76
2.08
2.33
1.52
0.19
-0.89
-1.18
-0.73
-0.08
0.06
-0.69
-2.13
-3.54
-4.11
-3.44
-1.79
0.01
1.05
0.88
-0.28
-1.63
-2.31
-1.86
-0.48
1.12
2.10
2.03
1.10
-0.04
-0.64
-0.31
0.75
1.94
2.55
2.21
1.10
-0.14
-0.80
-0.49
0.59
1.75
2.22
1.61
0.12
-1.52
-2.48
-2.32
-1.19
0.23
1.16
1.15
0.35
-0.61
-1.07
-0.66
0.40
1.49
1.93
1.40
0.10
-1.31
-2.10
-1.87
-0.83
0.40
1.06
0.78
-0.25
-1.36
-1.82
-1.27
0.04
1.43
2.15
1.84
0.73
-0.52
-1.21
-0.97
-0.00
1.11
1.72
1.52
0.67
-0.22
-0.54
0.01
1.20
2.35
2.73
2.01
0.44
-1.26
-2.27
-2.19
-1.22
-0.10
0.39
-0.15
-1.45
-2.75
-3.22
-2.49
-0.87
0.85
1.80
1.56
0.34
-1.11
-1.97
-1.80
-0.83
0.29
0.85
0.54
-0.38
-1.28
-1.52
-0.86
0.39
1.60
2.13
1.75
0.72
-0.34
-0.83
-0.51
0.39
1.24
1.43
0.70
-0.68
-1.99
-2.45
-1.70
-0.04
1.72
2.65
2.29
0.89
-0.70
-1.53
-1.13
0.27
1.79
2.49
1.91
0.35
-1.28
-2.04
-1.46
0.13
1.83
2.66
2.17
0.65
-1.00
-1.81
-1.28
0.28
2.04
3.03
2.79
1.55
0.09
-0.78
-0.64
0.28
1.28
1.64
1.04
-0.23
-1.47
-1.98
-1.49
-0.30
0.87
1.35
0.87
-0.29
-1.46
-1.99
-1.60
-0.59
0.39
0.69
0.11
-1.02
-1.99
-2.14
-1.27
0.21
1.51
1.88
1.05
-0.55
-2.02
-2.54
-1.77
-0.11
1.54
2.34
1.92
0.62
-0.74
-1.38
-0.96
0.15
1.21
1.49
0.77
-0.55
-1.66
-1.86
-0.99
0.48
1.70
1.93
1.01
-0.55
-1.82
-2.05
-1.12
0.40
1.57
1.67
0.61
-0.98
-2.16
-2.18
-0.96
0.87
2.35
2.72
1.86
0.31
-1.01
-1.35
-0.53
0.97
2.29
2.66
1.89
0.40
-0.95
-1.38
-0.63
0.89
2.33
2.87
2.22
0.76
-0.72
-1.45
-1.16
-0.21
0.67
0.77
-0.06
-1.38
-2.41
-2.49
-1.53
-0.07
1.01
1.06
0.01
-1.55
-2.69
-2.71
-1.55
0.15
1.47
1.72
0.82
-0.60
-1.61
-1.53
-0.31
1.43
2.71
2.82
1.72
0.04
-1.23
-1.36
-0.28
1.37
2.63
2.75
1.67
-0.02
-1.38
-1.68
-0.85
0.54
1.60
1.67
0.66
-0.87
-2.06
-2.23
-1.26
0.30
1.60
1.92
1.14
-0.21
-1.26
-1.26
-0.14
1.52
2.76
2.82
1.61
-0.24
-1.70
-2.01
-1.08
0.39
1.39
1.20
-0.19
-2.00
-3.20
-3.01
-1.46
0.68
2.25
2.40
1.03
-1.13
-2.95
-3.49
-2.56
-0.75
0.91
1.57
1.01
-0.22
-1.20
-1.20
-0.17
1.28
2.25
2.07
0.79
-0.91
-2.10
-2.14
-1.08
0.42
1.44
1.38
0.32
-1.04
-1.82
-1.45
-0.06
1.62
2.63
2.39
1.00
-0.78
-1.96
-1.87
-0.58
1.19
2.43
2.49
1.42
-0.09
-1.13
-1.07
-0.01
1.34
2.10
1.70
0.33
-1.26
-2.12
-1.71
-0.25
1.44
2.39
2.03
0.56
-1.17
-2.14
-1.76
-0.21
1.64
2.77
2.58
1.22
-0.46
-1.48
-1.27
-0.03
1.38
1.98
1.21
-0.67
-2.75
-3.96
-3.71
-2.18
-0.28
0.94
0.87
-0.35
-1.88
-2.70
-2.24
-0.70
1.06
2.08
1.82
0.53
-0.93
-1.62
-1.06
0.46
2.08
2.82
2.21
0.54
-1.31
-2.36
-2.14
-0.92
0.44
0.99
0.31
-1.27
-2.79
-3.21
-2.05
0.29
2.67
3.82
3.10
0.84
-1.81
-3.51
-3.48
-1.99
-0.12
0.79
-0.06
-2.49
-5.50
-7.81
-8.67
-8.19
-7.25
-6.94
-7.97
-10.26
-13.09
-15.49
-16.81
-17.06
-16.78
-16.76
-17.56
-19.34
-21.89
-24.85
-27.98
-31.14
-34.35
-37.50
-40.47
-43.06
-45.30
-47.45
-50.07
-53.97
-59.49
-66.53
-73.71
-78.38
-77.10
-66.83
-46.93
-20.25
6.86
26.74
33.38
25.52
6.81
-15.51
-34.19
-44.72
-46.16
-40.41
-30.04
-17.18
-3.35
9.52
18.72
21.44
16.16
4.16
-10.37
-21.53
-23.80
-14.21
6.57
34.33
63.16
87.11
102.23
107.45
104.40
96.37
86.71
77.48
69.15
61.11
52.62
44.07
36.69
32.22
31.48
33.63
36.46
37.25
34.32
27.95
20.40
14.58
12.47
13.94
16.89
18.63
17.60
14.18
10.53
9.01
10.61
14.36
17.88
18.85
16.46
11.82
7.15
4.51
4.70
6.80
9.09
10.13
9.54
8.16
7.23
7.53
8.92
10.39
10.62
8.69
4.60
-0.66
-5.53
-8.67
-9.61
-8.91
-7.91
-7.83
-9.07
-10.89
-11.82
-10.60
-7.15
-2.78
0.52
1.09
-1.29
-5.31
-8.98
-10.92
-11.10
-10.81
-11.66
-14.40
-18.28
-21.35
-21.53
-18.01
-11.83
-5.52
-1.76
-1.93
-5.37
-9.69
-12.01
-10.53
-5.42
1.23
6.61
8.69
7.16
3.57
0.36
-0.57
1.01
3.64
5.02
3.43
-1.20
-7.07
-11.33
-11.62
-7.45
-0.64
5.60
8.40
6.82
2.32
-2.20
-4.15
-2.86
0.05
1.80
0.26
-4.60
-10.63
-14.73
-14.78
-10.83
-5.10
-0.54
0.96
-0.41
-2.66
-3.29
-0.91
3.82
8.63
10.92
9.49
5.23
0.65
-1.64
-0.49
3.10
6.59
7.53
4.98
0.11
-4.62
-6.93
-6.04
-3.06
-0.18
0.64
-1.14
-4.45
-7.29
-7.99
-6.06
-2.52
0.75
2.03
0.67
-2.58
-6.00
-7.78
-7.05
-4.21
-0.80
1.52
2.04
1.46
1.52
3.94
9.17
15.90
21.54
23.58
20.93
14.61
7.24
1.74
-0.16
1.32
4.25
6.29
6.10
4.09
2.16
2.47
5.99
11.72
17.08
19.28
16.97
11.09
4.46
0.21
-0.02
3.03
6.73
8.20
6.05
1.22
-3.62
-5.72
-3.99
0.37
4.48
5.58
2.61
-3.12
-8.65
-11.15
-9.52
-4.98
-0.38
1.52
-0.38
-4.93
-9.47
-11.39
-9.59
-5.14
-0.57
1.59
0.28
-3.58
-7.57
-9.27
-7.65
-3.69
0.21
1.64
-0.38
-4.74
-8.89
-10.25
-7.74
-2.41
3.17
6.41
6.13
3.18
-0.18
-1.70
-0.54
2.37
4.91
5.23
3.02
-0.26
-2.15
-0.59
4.79
12.38
19.33
23.03
22.43
18.48
13.63
10.36
9.96
11.83
13.97
14.21
11.55
6.77
2.02
-0.42
0.44
3.68
7.01
8.07
5.96
1.69
-2.38
-4.10
-2.95
-0.43
0.84
-1.19
-6.58
-13.18
-17.72
-17.77
-13.21
-6.46
-1.15
-0.17
-3.97
-10.40
-15.88
-17.58
-14.99
-10.13
-6.30
-5.96
-9.26
-13.88
-16.49
-14.75
-8.81
-1.17
4.70
6.41
3.95
-0.37
-3.43
-3.06
0.66
5.59
8.89
8.73
5.47
1.31
-0.93
0.43
4.89
10.07
13.07
12.15
7.74
2.11
-1.93
-2.66
-0.35
2.96
4.74
3.44
-0.60
-5.40
-8.45
-8.13
-4.62
0.23
3.90
4.63
2.31
-1.46
-4.34
-4.57
-2.00
1.91
4.95
5.50
3.54
0.61
-1.09
-0.06
3.48
7.72
10.18
9.22
5.01
-0.49
-4.63
-5.64
-3.62
-0.49
1.18
-0.30
-4.72
-10.07
-13.71
-13.91
-10.75
-6.17
-2.79
-2.48
-5.29
-9.41
-12.19
-11.61
-7.44
-1.34
4.06
6.64
5.93
3.28
0.94
0.65
2.56
5.17
6.42
5.00
1.31
-2.71
-4.77
-3.61
0.17
4.41
6.66
5.56
1.66
-2.85
-5.43
-4.55
-0.57
4.51
8.13
8.63
6.06
2.14
-0.79
-1.05
1.43
5.11
7.75
7.71
4.90
0.90
-1.99
-2.10
0.60
4.40
6.83
6.15
2.46
-2.35
-5.73
-6.06
-3.69
-0.69
0.44
-1.59
-5.97
-10.22
-11.71
-9.31
-4.09
1.19
3.70
2.14
-2.62
-8.03
-11.35
-11.06
-7.68
-3.30
-0.38
-0.42
-3.17
-6.86
-9.25
-8.87
-5.83
-1.69
1.48
2.34
1.11
-0.59
-0.70
1.97
6.89
12.04
15.01
14.42
10.78
6.15
2.95
2.59
4.62
7.16
8.01
5.98
1.58
-3.34
-6.66
-7.12
-4.85
-1.16
2.25
4.23
4.68
4.40
4.59
6.12
8.92
11.96
13.74
13.06
9.77
4.93
0.44
-1.93
-1.49
1.00
3.84
5.44
5.37
4.63
4.93
7.36
11.43
15.04
15.68
12.00
4.84
-2.99
-8.19
-8.86
-5.47
-0.58
2.74
2.67
-0.40
-4.35
-6.78
-6.58
-4.57
-2.94
-3.87
-8.08
-14.37
-20.15
-22.94
-21.56
-16.84
-11.10
-6.97
-6.02
-8.08
-11.44
-13.89
-13.97
-11.76
-8.85
-7.39
-8.83
-12.98
-17.88
-20.80
-19.59
-13.93
-5.58
2.44
7.37
8.11
5.66
2.43
0.74
1.54
3.99
6.14
6.35
4.41
1.74
0.51
2.25
6.83
12.37
16.32
16.86
13.93
9.30
5.50
4.44
6.34
9.69
12.20
12.14
9.36
5.37
2.38
2.01
4.37
7.98
10.66
10.86
8.51
5.04
2.51
2.32
4.40
7.28
8.99
8.32
5.60
2.53
1.14
2.50
5.99
9.46
10.49
7.75
1.90
-4.70
-9.19
-9.79
-6.71
-1.99
1.69
2.44
0.18
-3.52
-6.50
-7.25
-5.77
-3.35
-1.68
-1.70
-3.10
-4.53
-4.52
-2.48
0.93
4.10
5.42
4.20
1.01
-2.64
-5.13
-5.67
-4.62
-3.23
-2.83
-4.02
-6.35
-8.56
-9.38
-8.30
-5.82
-3.23
-1.86
-2.42
-4.59
-7.31
-9.32
-9.86
-9.05
-7.77
-7.13
-7.87
-9.93
-12.43
-14.05
-13.76
-11.33
-7.55
-3.82
-1.44
-0.94
-1.81
-2.82
-2.84
-1.52
0.43
1.76
1.42
-0.67
-3.51
-5.53
-5.54
-3.40
-0.14
2.61
3.54
2.37
-0.12
-2.52
-3.70
-3.32
-1.91
-0.40
0.51
0.86
1.32
2.80
5.77
9.93
14.21
17.30
18.27
17.08
14.62
12.21
10.93
11.01
11.77
12.05
10.96
8.49
5.59
3.63
3.58
5.38
7.93
9.71
9.69
7.92
5.46
3.74
3.65
5.07
6.97
8.14
7.86
6.39
4.71
3.91
4.60
6.53
8.78
10.32
10.48
9.28
7.32
5.37
3.97
3.21
2.72
2.01
0.79
-0.85
-2.48
-3.60
-3.98
-3.76
-3.48
-3.72
-4.81
-6.66
-8.81
-10.73
-12.03
-12.71
-13.06
-13.46
-14.16
-15.09
-15.95
-16.33
-16.09
-15.41
-14.81
-14.86
-15.77
-17.21
-18.38
-18.41
-16.91
-14.21
-11.29
-9.22
-8.58
-9.08
-9.75
-9.47
-7.65
-4.50
-0.93
1.99
3.58
3.85
3.39
2.94
3.03
3.66
4.41
4.76
4.42
3.56
2.70
2.44
3.05
4.26
5.38
5.64
4.68
2.76
0.70
-0.60
-0.67
0.30
1.52
2.15
1.73
0.50
-0.78
-1.31
-0.71
0.74
2.20
2.81
2.19
0.73
-0.55
-0.59
1.13
4.18
7.34
9.24
9.09
7.18
4.63
2.81
2.57
3.77
5.48
6.59
6.54
5.57
4.58
4.48
5.59
7.44
8.97
9.20
7.81
5.35
3.04
2.07
2.95
5.23
7.66
8.97
8.48
6.51
4.18
2.69
2.62
3.59
4.58
4.51
2.93
0.34
-2.13
-3.34
-2.79
-0.89
1.27
2.49
2.12
0.38
-1.79
-3.20
-3.12
-1.64
0.39
1.77
1.73
0.26
-1.85
-3.51
-3.93
-3.07
-1.58
-0.35
0.01
-0.50
-1.32
-1.78
-1.53
-0.76
-0.13
-0.31
-1.61
-3.74
-5.99
-7.52
-7.85
-7.06
-5.77
-4.78
-4.62
-5.27
-6.17
-6.59
-6.06
-4.68
-3.10
-2.15
-2.32
-3.47
-4.91
-5.75
-5.40
-3.93
-1.97
-0.37
0.30
0.02
-0.71
-1.16
-0.88
0.08
1.21
1.82
1.56
0.65
-0.25
-0.38
0.56
2.28
3.96
4.76
4.31
2.99
1.63
1.11
1.77
3.24
4.64
5.14
4.44
2.92
1.40
0.67
1.02
2.11
3.17
3.46
2.71
1.23
-0.26
-1.06
-0.89
-0.02
0.92
1.33
1.00
0.26
-0.32
-0.21
0.67
1.89
2.75
2.69
1.63
0.04
-1.34
-1.83
-1.28
-0.05
1.11
1.55
1.02
-0.18
-1.39
-1.94
-1.55
-0.41
0.87
1.67
1.69
1.09
0.35
0.01
0.28
0.95
1.46
1.29
0.29
-1.19
-2.42
-2.74
-1.95
-0.44
0.95
1.48
0.87
-0.49
-1.77
-2.24
-1.64
-0.38
0.72
0.95
0.09
-1.38
-2.61
-2.85
-1.87
-0.14
1.46
2.15
1.66
0.37
-0.89
-1.34
-0.71
0.66
1.96
2.43
1.77
0.36
-1.01
-1.57
-1.03
0.25
1.40
1.66
0.77
-0.87
-2.36
-2.88
-2.14
-0.54
1.04
1.77
1.34
0.13
-1.01
-1.29
-0.46
1.07
2.45
2.92
2.22
0.81
-0.49
-0.91
-0.24
1.06
2.13
2.21
1.11
-0.66
-2.17
-2.61
-1.71
0.02
1.65
2.26
1.51
-0.20
-2.02
-3.08
-2.99
-2.04
-1.00
-0.57
-1.02
-1.99
-2.73
-2.60
-1.49
0.10
1.32
1.51
0.58
-0.89
-2.02
-2.09
-1.00
0.73
2.25
2.90
2.53
1.57
0.71
0.49
0.97
1.73
2.14
1.77
0.66
-0.69
-1.64
-1.75
-1.06
-0.06
0.59
0.49
-0.30
-1.27
-1.83
-1.59
-0.66
0.44
1.14
1.08
0.36
-0.53
-1.04
-0.86
-0.07
0.87
1.47
1.45
0.95
0.44
0.42
1.14
2.43
3.71
4.35
3.96
2.65
1.04
-0.11
-0.22
0.69
2.06
3.01
2.88
1.56
-0.36
-1.96
-2.45
-1.63
-0.04
1.39
1.84
1.11
-0.32
-1.55
-1.85
-1.09
0.16
0.97
0.65
-0.83
-2.80
-4.25
-4.43
-3.27
-1.43
0.10
0.57
-0.14
-1.45
-2.51
-2.65
-1.81
-0.56
0.30
0.21
-0.86
-2.37
-3.52
-3.73
-2.96
-1.69
-0.68
-0.51
-1.25
-2.43
-3.31
-3.34
-2.41
-0.95
0.34
0.89
0.57
-0.24
-0.95
-1.07
-0.55
0.23
0.63
0.21
-1.01
-2.50
-3.47
-3.35
-2.12
-0.33
1.13
1.63
1.06
-0.05
-0.85
-0.67
0.60
2.47
4.17
5.12
5.25
4.99
4.97
5.58
6.74
7.94
8.53
8.13
6.85
5.25
4.09
3.88
4.58
5.66
6.34
6.10
4.93
3.33
2.03
1.55
1.89
2.54
2.78
2.11
0.49
-1.62
-3.61
-5.05
-5.87
-6.40
-7.06
-8.04
-9.18
-9.94
-9.77
-8.44
-6.25
-3.96
-2.43
-2.17
-3.02
-4.26
-5.00
-4.69
-3.44
-1.95
-1.06
-1.30
-2.59
-4.25
-5.47
-5.70
-4.92
-3.61
-2.45
-1.88
-1.92
-2.18
-2.12
-1.44
-0.25
0.90
1.40
0.92
-0.27
-1.45
-1.78
-0.85
1.08
3.16
4.42
4.36
3.24
1.94
1.40
2.07
3.63
5.19
5.85
5.27
3.86
2.58
2.32
3.37
5.24
6.89
7.33
6.17
3.82
1.28
-0.40
-0.70
0.17
1.44
2.25
2.12
1.28
0.41
0.27
1.13
2.59
3.77
3.85
2.52
0.33
-1.66
-2.44
-1.64
0.20
1.96
2.54
1.53
-0.61
-2.76
-3.83
-3.33
-1.64
0.27
1.34
1.09
-0.24
-1.81
-2.70
-2.46
-1.37
-0.19
0.26
-0.43
-1.97
-3.60
-4.53
-4.41
-3.48
-2.43
-1.94
-2.28
-3.14
-3.87
-3.84
-2.86
-1.32
0.02
0.47
-0.21
-1.62
-2.93
-3.36
-2.57
-0.96
0.63
1.36
0.86
-0.52
-1.96
-2.57
-1.97
-0.47
1.10
1.93
1.62
0.53
-0.50
-0.63
0.47
2.42
4.30
5.21
4.77
3.37
1.93
1.33
1.92
3.28
4.53
4.85
4.01
2.44
0.97
0.35
0.74
1.71
2.47
2.39
1.33
-0.17
-1.29
-1.32
-0.10
1.81
3.48
4.00
3.05
1.08
-0.93
-1.96
-1.49
0.15
2.02
3.06
2.74
1.32
-0.28
-1.08
-0.63
0.70
1.98
2.28
1.26
-0.59
-2.31
-2.97
-2.34
-0.91
0.33
0.58
-0.37
-1.96
-3.32
-3.73
-3.12
-2.05
-1.38
-1.70
-2.98
-4.58
-5.58
-5.34
-3.86
-1.79
-0.08
0.52
-0.14
-1.57
-2.93
-3.46
-2.94
-1.76
-0.67
-0.31
-0.86
-1.91
-2.73
-2.73
-1.80
-0.36
0.87
1.31
0.86
-0.06
-0.80
-0.83
-0.10
1.01
1.87
2.03
1.42
0.45
-0.28
-0.26
0.57
1.85
2.95
3.31
2.80
1.76
0.81
0.49
0.99
1.99
2.88
3.13
2.55
1.48
0.55
0.38
1.15
2.52
3.75
4.14
3.42
1.93
0.47
-0.17
0.35
1.66
2.95
3.39
2.66
1.14
-0.34
-0.99
-0.53
0.69
1.92
2.48
2.12
1.18
0.24
-0.18
-0.03
0.30
0.25
-0.58
-2.07
-3.59
-4.36
-3.91
-2.45
-0.85
-0.24
-1.34
-4.04
-7.32
-9.80
-10.42
-9.07
-6.68
-4.69
-4.27
-5.63
-7.97
-9.83
-10.02
-8.17
-4.97
-1.76
0.25
0.62
-0.12
-0.83
-0.49
1.22
3.65
5.69
6.44
5.81
4.46
3.48
3.59
4.70
6.00
6.45
5.52
3.50
1.34
0.09
0.29
1.74
3.66
5.18
5.86
5.88
5.85
6.34
7.44
8.66
9.22
8.62
7.09
5.56
5.16
6.45
8.97
11.40
12.27
10.84
7.53
3.65
0.61
-0.89
-1.12
-0.94
-1.17
-1.97
-2.85
-3.09
-2.27
-0.53
1.54
3.29
4.33
4.61
4.27
3.49
2.47
1.44
0.74
0.76
1.68
3.36
5.28
6.75
7.25
6.61
5.00
2.74
0.02
-3.13
-6.65
-10.26
-13.37
-15.21
-15.25
-13.55
-10.84
-8.16
-6.42
-5.84
-5.99
-6.03
-5.39
-4.10
-2.97
-3.02
-4.85
-8.16
-11.87
-14.56
-15.20
-13.73
-10.94
-8.13
-6.34
-5.89
-6.26
-6.45
-5.80
-4.25
-2.39
-0.94
-0.25
-0.09
0.27
1.56
4.07
7.55
11.26
14.44
16.42
16.83
15.56
12.62
8.17
2.64
-3.44
-9.25
-13.80
-16.11
-15.52
-12.00
-6.29
0.15
5.80
9.55
10.94
10.06
7.38
3.78
0.30
-1.82
-1.48
1.65
6.89
12.37
15.83
15.49
10.86
2.92
-6.51
-15.41
-22.35
-26.66
-28.29
-27.42
-24.31
-19.27
-12.80
-5.74
0.91
6.06
9.09
9.97
9.35
8.15
7.00
6.04
4.97
3.47
1.70
0.36
0.24
1.63
4.04
6.35
7.52
7.23
6.08
5.18
5.47
7.03
8.89
9.62
8.13
4.39
-0.35
-4.30
-6.04
-5.30
-3.10
-1.16
-0.89
-2.61
-5.32
-7.32
-7.24
-4.84
-1.25
1.68
2.40
0.60
-2.53
-4.93
-4.90
-2.07
2.27
5.92
6.98
5.03
1.37
-1.76
-2.50
-0.45
3.03
5.78
6.10
3.77
0.23
-2.40
-2.50
-0.04
3.47
5.76
5.19
1.70
-3.13
-6.92
-7.87
-5.72
-1.83
1.58
2.72
1.28
-1.52
-3.65
-3.51
-0.89
2.91
5.84
6.38
4.37
1.24
-0.98
-0.82
1.65
4.84
6.54
5.28
1.23
-3.79
-7.32
-7.66
-4.82
-0.44
3.11
4.17
2.66
0.01
-1.82
-1.55
0.61
3.16
4.26
2.87
-0.59
-4.48
-6.87
-6.60
-3.91
-0.26
2.49
3.09
1.53
-1.02
-2.87
-2.79
-0.73
2.25
4.49
4.78
3.01
0.37
-1.45
-1.14
1.35
4.70
6.98
6.67
3.64
-0.81
-4.60
-6.05
-4.79
-1.90
0.71
1.49
0.10
-2.39
-4.17
-3.78
-1.05
2.83
5.93
6.72
4.96
1.84
-0.75
-1.30
0.46
3.35
5.53
5.52
3.16
-0.31
-2.97
-3.34
-1.24
2.10
4.74
5.18
3.21
0.06
-2.37
-2.67
-0.74
2.17
4.15
3.86
1.29
-2.22
-4.75
-4.93
-2.74
0.45
2.73
2.69
0.28
-3.15
-5.63
-5.74
-3.39
0.09
2.71
2.92
0.52
-3.24
-6.34
-7.18
-5.44
-2.26
0.45
1.18
-0.38
-3.13
-5.29
-5.41
-3.28
-0.05
2.46
2.82
0.81
-2.38
-4.89
-5.27
-3.31
-0.16
2.37
2.86
1.14
-1.62
-3.60
-3.43
-1.03
2.32
4.69
4.67
2.21
-1.29
-3.78
-3.71
-0.95
3.08
6.21
6.76
4.44
0.57
-2.75
-3.83
-2.31
0.69
3.25
3.88
2.31
-0.36
-2.36
-2.36
-0.20
2.97
5.42
5.85
4.13
1.39
-0.71
-0.91
0.87
3.54
5.46
5.44
3.42
0.57
-1.45
-1.44
0.65
3.59
5.61
5.42
2.96
-0.53
-3.15
-3.51
-1.52
1.51
3.67
3.48
0.85
-2.90
-5.76
-6.22
-4.13
-0.81
1.77
2.09
-0.00
-3.20
-5.54
-5.55
-3.09
0.50
3.25
3.63
1.44
-2.05
-4.92
-5.69
-4.13
-1.38
0.76
0.97
-0.80
-3.33
-4.84
-4.11
-1.20
2.51
5.10
5.19
2.72
-1.01
-4.06
-4.97
-3.53
-0.87
1.24
1.39
-0.59
-3.61
-5.90
-6.10
-4.03
-0.77
1.91
2.69
1.42
-0.77
-2.12
-1.37
1.49
5.15
7.75
7.89
5.50
1.87
-1.08
-1.95
-0.58
1.82
3.45
2.98
0.35
-3.18
-5.71
-5.76
-3.11
1.01
4.65
6.14
5.05
2.41
0.03
-0.50
1.21
4.13
6.43
6.60
4.36
0.85
-1.97
-2.56
-0.65
2.52
4.96
5.09
2.64
-1.14
-4.22
-5.03
-3.28
-0.16
2.39
2.84
0.93
-2.13
-4.48
-4.63
-2.41
0.96
3.57
3.92
1.78
-1.66
-4.49
-5.17
-3.41
-0.35
2.18
2.68
0.93
-1.95
-4.15
-4.32
-2.33
0.56
2.51
2.19
-0.39
-3.79
-6.02
-5.66
-2.73
1.28
4.25
4.65
2.35
-1.30
-4.26
-4.99
-3.24
-0.26
2.07
2.27
0.17
-3.01
-5.38
-5.48
-3.17
0.26
2.88
3.18
1.01
-2.32
-4.82
-4.94
-2.53
1.14
4.08
4.72
2.82
-0.42
-3.09
-3.66
-1.91
1.01
3.24
3.29
0.98
-2.49
-5.16
-5.47
-3.12
0.69
3.96
5.02
3.51
0.56
-1.85
-2.16
-0.14
2.96
5.11
4.82
1.98
-1.92
-4.78
-5.00
-2.52
1.22
4.07
4.47
2.31
-1.02
-3.43
-3.42
-0.85
2.92
5.89
6.50
4.52
1.14
-1.71
-2.43
-0.64
2.70
5.83
7.27
6.57
4.55
2.71
2.29
3.50
5.44
6.56
5.66
2.66
-1.30
-4.42
-5.30
-3.83
-1.28
0.36
-0.40
-3.59
-7.71
-10.57
-10.57
-7.70
-3.56
-0.46
-0.08
-2.55
-6.36
-9.35
-9.90
-7.93
-4.79
-2.49
-2.43
-4.62
-7.63
-9.40
-8.38
-4.40
1.20
6.30
9.09
9.04
7.15
5.28
5.08
6.98
9.95
12.17
12.11
9.46
5.42
1.89
0.45
1.31
3.29
4.49
3.53
0.40
-3.53
-6.32
-6.65
-4.60
-1.54
0.64
0.65
-1.41
-4.19
-5.85
-5.18
-2.30
1.38
3.99
4.26
2.24
-0.72
-2.71
-2.44
0.11
3.57
6.04
6.11
3.73
0.19
-2.56
-3.07
-1.24
1.64
3.59
3.12
0.13
-3.98
-7.06
-7.41
-4.80
-0.62
2.92
4.03
2.41
-0.66
-3.05
-3.15
-0.80
2.63
5.06
4.97
2.29
-1.49
-4.25
-4.43
-1.92
1.90
4.90
5.50
3.42
-0.10
-3.07
-3.87
-2.21
0.74
3.02
3.02
0.46
-3.36
-6.31
-6.63
-3.97
0.35
4.14
5.51
3.96
0.64
-2.37
-3.31
-1.72
1.25
3.66
3.89
1.71
-1.60
-4.02
-3.97
-1.33
2.51
5.40
5.69
3.14
-0.93
-4.36
-5.41
-3.69
-0.33
2.70
3.74
2.31
-0.60
-3.21
-4.01
-2.60
0.04
2.20
2.41
0.39
-2.76
-5.18
-5.33
-2.92
0.90
4.14
5.15
3.53
0.39
-2.32
-2.94
-1.07
2.23
5.03
5.73
3.92
0.70
-2.04
-2.70
-0.95
2.12
4.64
5.03
2.98
-0.37
-3.06
-3.48
-1.26
2.46
5.70
6.72
5.00
1.57
-1.65
-2.92
-1.63
1.35
4.19
5.20
3.76
0.71
-2.16
-3.21
-1.88
0.92
3.35
3.72
1.49
-2.33
-5.72
-6.80
-4.92
-1.08
2.66
4.30
3.09
-0.11
-3.33
-4.69
-3.50
-0.63
2.03
2.75
0.96
-2.34
-5.21
-5.90
-3.94
-0.35
2.86
3.87
2.07
-1.57
-5.08
-6.57
-5.33
-2.18
1.03
2.48
1.45
-1.31
-4.01
-4.92
-3.38
-0.19
2.85
4.04
2.75
-0.18
-2.90
-3.73
-2.12
0.99
3.69
4.28
2.22
-1.43
-4.66
-5.66
-3.81
-0.14
3.34
4.75
3.41
0.21
-2.87
-4.00
-2.45
0.92
4.19
5.52
4.19
1.05
-1.96
-3.00
-1.34
2.16
5.57
6.96
5.52
2.02
-1.65
-3.53
-2.71
0.17
3.34
4.97
4.17
1.51
-1.37
-2.78
-1.96
0.46
2.84
3.54
1.91
-1.28
-4.27
-5.34
-3.79
-0.41
2.95
4.44
3.23
0.06
-3.19
-4.54
-3.07
0.54
4.34
6.24
5.16
1.69
-2.30
-4.75
-4.53
-2.10
0.82
2.31
1.41
-1.36
-4.31
-5.59
-4.33
-1.15
2.22
3.92
3.07
0.33
-2.53
-3.59
-1.99
1.62
5.35
7.21
6.19
2.87
-0.98
-3.38
-3.25
-1.04
1.65
3.00
2.06
-0.71
-3.69
-5.11
-4.04
-0.97
2.43
4.33
3.73
1.13
-1.83
-3.24
-2.13
0.96
4.25
5.71
4.24
0.39
-3.97
-6.61
-6.25
-3.29
0.45
2.81
2.49
-0.13
-3.33
-5.06
-4.19
-1.19
2.19
3.96
3.07
0.02
-3.44
-5.31
-4.51
-1.49
2.09
4.31
4.07
1.73
-1.18
-2.79
-2.06
0.65
3.73
5.27
4.17
0.84
-3.02
-5.38
-5.01
-2.21
1.34
3.56
3.16
0.41
-3.08
-5.23
-4.72
-1.79
1.93
4.39
4.32
1.94
-1.15
-3.02
-2.51
0.01
2.92
4.35
3.27
0.17
-3.22
-4.97
-4.08
-1.07
2.31
4.10
3.26
0.29
-3.03
-4.67
-3.49
0.06
4.24
6.89
6.70
3.90
0.13
-2.52
-2.69
-0.45
2.71
4.81
4.50
1.83
-1.74
-4.25
-4.34
-2.11
0.92
2.70
1.85
-1.45
-5.48
-7.89
-7.05
-3.05
2.30
6.44
7.48
5.20
1.14
-2.32
-3.37
-1.69
1.42
4.01
4.68
3.52
1.94
1.69
3.50
6.48
8.43
7.26
2.36
-4.73
-10.99
-13.56
-11.37
-5.83
0.11
3.56
3.38
0.60
-2.40
-3.55
-2.28
0.26
2.09
1.71
-0.99
-4.70
-7.58
-8.25
-6.62
-3.79
-1.44
-1.04
-3.13
-7.06
-11.33
-14.17
-14.27
-11.27
-5.94
0.24
5.62
9.18
10.85
11.40
11.83
12.67
13.67
13.91
12.49
9.21
5.01
1.52
0.23
1.58
4.58
7.38
8.34
7.10
4.78
3.22
3.59
5.42
6.66
4.80
-1.47
-11.28
-21.75
-29.43
-31.84
-28.60
-21.24
-12.17
-3.36
4.33
11.05
17.25
22.88
26.99
28.12
25.09
17.85
7.95
-1.73
-8.09
-9.09
-4.90
2.19
8.82
12.29
12.07
9.97
8.89
10.80
15.19
19.05
18.60
11.77
-0.10
-12.58
-20.33
-19.97
-11.99
-0.34
9.72
14.52
13.57
9.21
4.57
1.26
-1.71
-7.08
-17.25
-32.20
-48.77
-61.79
-66.42
-60.41
-45.22
-25.21
-5.75
9.02
17.51
20.62
20.50
18.92
16.31
11.79
4.21
-6.52
-18.70
-29.23
-34.80
-33.50
-25.73
-14.11
-2.22
6.97
12.30
14.59
15.80
17.65
20.44
22.97
23.36
20.29
13.98
6.21
-0.51
-4.19
-4.30
-1.85
1.35
3.75
4.81
5.13
5.89
7.91
11.08
14.27
15.94
14.94
11.20
5.72
0.10
-4.19
-6.46
-6.90
-6.26
-5.27
-4.27
-3.16
-1.78
-0.26
0.81
0.69
-1.01
-3.85
-6.50
-7.21
-4.64
1.29
9.15
16.42
20.56
20.22
15.92
9.79
4.41
1.54
1.21
1.98
1.97
0.01
-3.73
-8.07
-11.74
-14.32
-16.32
-18.70
-21.96
-25.55
-27.89
-27.25
-22.74
-14.84
-5.31
3.66
10.26
13.87
14.97
14.83
14.86
15.79
17.44
18.75
18.53
16.08
11.78
6.93
3.12
1.51
2.15
4.22
6.51
8.16
9.01
9.49
10.04
10.65
10.85
9.97
7.68
4.28
0.65
-2.08
-2.93
-1.52
1.69
5.49
8.21
8.50
6.04
1.66
-2.99
-6.31
-7.65
-7.57
-7.13
-6.96
-6.62
-4.78
-0.33
6.56
13.94
18.77
18.37
11.75
0.26
-12.80
-23.44
-28.43
-26.35
-17.98
-5.98
6.09
14.99
18.84
17.62
12.67
5.94
-0.88
-6.79
-11.30
-13.83
-13.72
-10.66
-5.26
0.54
3.95
2.61
-4.14
-14.75
-25.91
-34.07
-37.05
-34.79
-29.12
-22.61
-17.16
-13.34
-10.39
-7.06
-2.62
2.53
7.09
9.57
9.25
6.77
3.86
2.48
3.70
7.09
10.95
13.35
13.23
11.06
8.60
7.84
9.77
13.86
18.21
20.67
20.03
16.62
12.08
8.37
6.78
7.36
9.06
10.32
9.90
7.42
3.52
-0.36
-2.73
-2.83
-1.20
0.47
0.02
-3.85
-10.83
-18.78
-24.81
-26.69
-24.13
-18.92
-13.90
-11.39
-12.02
-14.60
-17.20
-18.30
-17.62
-15.97
-14.50
-13.80
-13.57
-12.97
-11.28
-8.50
-5.46
-3.38
-3.12
-4.64
-6.94
-8.48
-8.14
-5.87
-2.93
-1.40
-2.98
-7.44
-11.95
-11.77
-2.65
16.41
41.62
65.29
79.13
78.19
63.20
40.00
16.31
-2.12
-13.84
-21.20
-27.65
-34.91
-41.66
-44.68
-41.39
-32.00
-19.90
-10.03
-6.22
-9.10
-15.73
-20.94
-20.15
-11.62
2.69
18.27
30.25
35.69
34.38
28.27
20.10
12.00
5.02
-0.52
-4.40
-6.27
-5.69
-2.57
2.45
8.19
13.16
16.12
16.26
13.57
8.81
3.68
0.31
0.63
5.38
13.62
23.06
31.14
36.24
38.36
38.60
38.27
37.76
36.13
31.83
23.90
12.86
0.73
-10.01
-17.72
-22.49
-25.72
-28.96
-32.59
-35.21
-34.28
-27.77
-15.56
-0.17
14.03
22.65
23.18
16.08
4.40
-7.71
-16.69
-20.87
-20.54
-17.22
-12.70
-8.31
-4.88
-2.95
-3.10
-5.73
-10.66
-16.60
-21.25
-21.98
-16.99
-6.45
7.25
20.09
27.97
28.35
21.32
9.63
-2.42
-10.82
-13.49
-10.99
-5.99
-1.59
0.36
0.21
0.04
2.17
7.53
14.83
21.16
23.54
20.63
13.30
4.09
-4.37
-10.61
-14.73
-17.66
-20.05
-21.45
-20.49
-15.90
-7.69
2.30
10.97
15.41
14.48
9.49
3.62
0.22
0.99
4.93
8.91
9.33
4.30
-5.10
-15.06
-20.88
-19.34
-10.32
2.96
15.50
22.76
22.69
16.42
7.52
0.09
-3.12
-1.81
2.08
5.66
6.81
5.20
2.26
0.04
-0.21
1.07
2.11
1.07
-2.49
-7.08
-10.05
-9.19
-4.26
2.78
8.67
10.70
7.98
1.83
-5.14
-10.45
-12.75
-12.17
-9.77
-6.86
-4.21
-1.96
0.29
3.02
6.28
9.55
11.80
12.15
10.47
7.70
5.38
4.69
5.72
7.07
6.72
3.28
-2.92
-9.73
-14.18
-14.05
-8.99
-0.69
8.18
15.35
20.00
22.64
24.32
25.48
25.55
23.42
18.41
11.08
3.20
-3.02
-6.23
-6.65
-6.04
-6.77
-10.63
-17.93
-27.45
-36.99
-44.25
-47.68
-46.67
-41.64
-33.68
-24.27
-14.84
-6.61
-0.28
3.83
5.69
5.31
2.78
-1.65
-7.32
-12.98
-17.22
-18.88
-17.89
-15.48
-13.89
-15.40
-21.14
-30.90
-43.03
-55.41
-65.69
-71.47
-70.03
-58.55
-35.30
-1.01
40.39
82.38
117.76
141.06
149.94
145.20
129.71
106.87
79.96
51.87
25.38
2.78
-14.46
-26.13
-33.12
-36.65
-37.70
-36.74
-34.04
-30.37
-26.98
-25.31
-26.01
-28.89
-32.60
-35.56
-36.49
-34.99
-31.54
-27.14
-22.67
-18.45
-14.15
-9.18
-3.29
2.93
8.18
10.86
10.18
6.36
0.64
-5.48
-10.82
-14.67
-16.47
-15.42
-10.80
-2.67
7.22
15.76
19.80
17.81
10.89
2.01
-5.52
-9.86
-10.73
-8.57
-3.32
5.71
18.42
33.00
45.71
52.83
53.00
48.34
43.44
42.09
44.79
47.77
45.44
33.79
13.29
-10.96
-31.75
-43.61
-45.58
-41.27
-36.54
-35.72
-39.26
-43.46
-42.97
-34.29
-18.17
0.18
14.04
18.67
13.66
2.71
-8.57
-15.47
-16.11
-11.15
-2.80
6.50
14.77
20.47
22.64
20.75
15.10
6.63
-3.03
-11.94
-18.22
-20.79
-19.95
-17.79
-17.74
-23.14
-35.47
-52.80
-69.99
-80.69
-80.25
-68.13
-48.06
-26.26
-8.35
2.97
8.43
10.86
13.12
16.60
20.87
24.65
27.04
28.40
30.25
34.25
40.90
48.72
54.70
55.67
50.17
39.62
28.10
20.49
20.05
26.62
36.48
44.38
46.28
41.65
33.78
27.95
28.77
37.72
52.59
68.68
81.02
86.39
84.12
75.62
63.06
48.27
32.19
15.25
-1.95
-18.02
-30.95
-38.79
-40.55
-36.91
-30.02
-22.67
-17.13
-14.22
-13.30
-12.96
-12.10
-10.66
-9.72
-10.74
-14.56
-20.63
-27.06
-31.44
-32.07
-28.90
-23.72
-19.28
-17.90
-20.30
-25.17
-30.00
-32.41
-31.45
-27.90
-23.62
-20.29
-18.53
-17.74
-16.76
-14.88
-12.39
-10.39
-10.06
-11.80
-14.91
-17.93
-19.42
-18.66
-16.00
-12.61
-9.90
-8.97
-10.08
-12.63
-15.46
-17.43
-17.95
-17.29
-16.34
-16.05
-16.89
-18.48
-19.96
-20.53
-20.18
-19.75
-20.48
-23.00
-26.71
-29.81
-30.26
-27.12
-21.37
-15.59
-12.49
-12.87
-14.71
-13.51
-4.56
14.34
41.05
69.24
90.25
96.01
81.73
47.60
-1.14
-55.57
-105.66
-143.14
-163.83
-168.53
-162.06
-150.66
-139.26
-129.57
-120.21
-108.05
-90.31
-65.79
-35.19
-0.40
36.10
71.50
102.42
125.07
136.01
133.31
117.54
92.02
62.19
34.26
13.74
4.52
8.63
26.39
56.88
97.80
145.46
194.74
239.53
273.87
293.46
296.68
285.24
262.80
233.23
198.84
159.63
114.60
63.83
10.41
-39.47
-78.55
-101.73
-108.44
-103.16
-93.29
-85.64
-83.69
-86.43
-90.04
-90.63
-86.81
-80.46
-75.32
-74.91
-80.41
-89.79
-98.77
-102.85
-99.28
-88.58
-74.11
-60.28
-50.90
-47.31
-48.48
-51.87
-54.87
-56.01
-55.12
-52.94
-50.27
-47.31
-43.40
-37.41
-28.36
-16.23
-2.31
10.92
20.61
24.65
22.75
16.89
10.55
7.08
8.07
12.48
17.25
19.20
16.81
11.09
5.03
1.75
2.58
6.35
9.96
10.24
5.71
-2.57
-11.66
-18.37
-21.05
-20.28
-18.25
-17.34
-18.54
-20.91
-22.12
-19.97
-13.77
-4.96
3.71
9.57
11.54
10.67
9.42
10.24
13.97
19.43
23.98
25.17
22.19
16.47
10.82
7.86
8.53
11.45
13.84
13.13
8.43
1.05
-6.33
-11.20
-12.74
-12.16
-11.87
-13.91
-18.53
-24.03
-27.57
-26.97
-22.05
-15.04
-9.53
-8.68
-13.47
-22.02
-30.38
-34.39
-31.56
-22.14
-8.87
4.61
15.45
22.79
27.59
31.65
36.13
40.68
43.78
43.70
39.80
33.14
25.96
20.59
18.05
17.52
16.67
13.20
6.25
-2.83
-10.80
-14.01
-9.78
2.44
21.30
44.40
69.27
93.67
115.21
130.55
134.97
123.47
92.92
44.63
-14.38
-72.37
-116.27
-136.09
-128.56
-98.18
-55.22
-11.62
23.19
44.69
52.93
50.50
40.17
23.87
3.12
-19.52
-39.94
-53.14
-55.29
-45.79
-27.96
-8.12
7.09
13.33
10.23
1.09
-9.04
-15.66
-16.79
-13.37
-8.34
-4.74
-4.11
-5.73
-7.31
-6.46
-2.33
3.76
9.04
10.82
8.14
2.39
-3.36
-6.12
-4.66
-0.12
4.66
6.85
5.33
1.34
-2.25
-2.68
0.98
7.20
12.76
14.57
11.45
4.80
-2.10
-5.98
-5.32
-1.21
3.36
5.31
3.24
-1.75
-6.76
-8.89
-6.94
-2.18
2.38
3.86
1.20
-4.12
-8.99
-10.43
-7.42
-1.50
4.11
6.32
3.94
-1.66
-7.39
-10.16
-8.58
-3.74
1.48
4.03
2.38
-2.70
-8.59
-12.36
-12.34
-9.10
-5.03
-2.93
-4.38
-8.85
-13.96
-16.92
-16.20
-12.54
-8.67
-7.77
-11.62
-19.40
-27.90
-33.28
-33.14
-27.90
-20.52
-14.73
-12.71
-13.73
-14.63
-11.86
-4.05
6.88
16.51
20.49
17.17
8.74
0.08
-3.90
-0.89
7.74
17.97
25.44
27.72
25.23
20.53
16.51
14.78
14.92
15.09
13.38
9.10
3.23
-1.93
-4.15
-2.49
2.10
7.24
10.43
10.52
8.42
6.64
7.90
13.48
22.50
32.11
39.08
41.44
39.60
36.09
34.27
36.44
42.57
50.17
55.58
55.77
49.82
39.18
26.63
14.66
4.28
-4.96
-13.98
-22.84
-30.18
-33.80
-32.08
-25.27
-15.80
-7.38
-3.23
-4.57
-10.06
-16.55
-20.74
-20.81
-17.18
-12.15
-8.50
-7.92
-10.17
-13.30
-14.90
-13.65
-10.07
-6.25
-4.54
-6.04
-9.92
-13.83
-15.28
-13.16
-8.37
-3.32
-0.56
-1.26
-4.54
-8.01
-9.13
-6.75
-1.81
3.16
5.54
4.11
-0.14
-4.63
-6.60
-4.82
-0.25
4.54
6.85
5.48
1.39
-2.93
-4.91
-3.43
0.58
4.70
6.38
4.42
-0.40
-5.74
-8.96
-8.60
-5.17
-0.91
1.44
0.21
-4.18
-9.42
-12.51
-11.61
-7.08
-1.42
2.21
1.78
-2.33
-7.56
-10.71
-9.80
-5.26
0.37
3.97
3.68
-0.01
-4.64
-7.23
-6.03
-1.54
3.88
7.37
7.22
3.83
-0.58
-3.23
-2.44
1.48
6.40
9.62
9.36
5.77
0.82
-2.85
-3.45
-0.96
2.84
5.52
5.35
2.35
-1.78
-4.62
-4.49
-1.44
2.78
5.68
5.51
2.32
-2.05
-5.02
-4.79
-1.43
3.14
6.25
6.09
2.71
-1.90
-5.09
-5.07
-1.99
2.13
4.65
3.84
-0.09
-5.13
-8.61
-8.83
-5.94
-1.88
0.82
0.51
-2.62
-6.66
-9.11
-8.35
-4.59
0.22
3.48
3.49
0.39
-3.84
-6.55
-5.97
-2.22
2.71
6.09
6.09
2.77
-1.81
-4.90
-4.55
-0.84
4.23
7.87
8.19
5.25
1.09
-1.54
-0.81
3.09
8.01
11.12
10.55
6.54
1.35
-2.09
-1.85
1.83
6.73
9.90
9.45
5.58
0.50
-2.96
-2.97
0.24
4.55
7.17
6.36
2.34
-2.80
-6.35
-6.56
-3.63
0.42
2.93
2.20
-1.57
-6.37
-9.54
-9.36
-5.98
-1.37
1.85
1.94
-0.98
-5.00
-7.58
-7.02
-3.51
0.99
3.89
3.49
-0.02
-4.66
-7.76
-7.56
-4.20
0.32
3.32
2.98
-0.60
-5.43
-8.80
-8.87
-5.70
-1.28
1.76
1.66
-1.40
-5.45
-7.83
-6.84
-2.70
2.51
6.09
6.28
3.26
-0.94
-3.64
-3.06
0.60
5.32
8.44
8.19
4.75
0.14
-2.91
-2.58
1.02
5.84
9.14
9.03
5.61
0.86
-2.45
-2.43
0.87
5.50
8.73
8.63
5.23
0.46
-2.97
-3.14
-0.05
4.37
7.35
6.97
3.21
-1.92
-5.60
-5.80
-2.50
2.29
5.64
5.45
1.64
-3.72
-7.63
-7.91
-4.47
0.64
4.43
4.69
1.32
-3.67
-7.36
-7.64
-4.41
0.31
3.67
3.64
0.18
-4.72
-8.23
-8.35
-5.05
-0.30
3.13
3.29
0.16
-4.29
-7.38
-7.21
-3.89
0.61
3.60
3.27
-0.24
-4.93
-8.06
-7.77
-4.12
0.92
4.68
5.26
2.61
-1.46
-4.36
-4.22
-0.99
3.57
6.90
7.13
4.18
-0.15
-3.29
-3.33
-0.18
4.39
7.79
8.12
5.28
1.04
-2.06
-2.17
0.74
4.91
7.81
7.67
4.51
0.15
-2.91
-2.93
0.01
4.03
6.61
6.03
2.42
-2.33
-5.63
-5.69
-2.60
1.78
4.86
4.82
1.65
-2.85
-6.11
-6.28
-3.32
0.98
4.02
3.90
0.58
-4.14
-7.56
-7.69
-4.42
0.39
3.97
4.28
1.17
-3.46
-6.85
-6.96
-3.72
0.96
4.31
4.35
1.10
-3.49
-6.62
-6.40
-2.84
2.03
5.46
5.51
2.19
-2.56
-6.01
-6.20
-3.06
1.56
5.02
5.38
2.52
-1.81
-5.02
-5.18
-2.13
2.41
5.85
6.26
3.44
-0.92
-4.28
-4.67
-1.92
2.33
5.54
5.83
3.02
-1.22
-4.38
-4.59
-1.73
2.53
5.62
5.64
2.45
-2.24
-5.82
-6.30
-3.46
1.03
4.62
5.31
2.83
-1.21
-4.37
-4.76
-2.23
1.63
4.44
4.47
1.66
-2.32
-5.10
-5.06
-2.24
1.60
4.04
3.42
-0.14
-4.78
-7.90
-7.66
-4.07
0.96
4.71
5.18
2.28
-2.14
-5.32
-5.25
-1.84
3.04
6.58
6.76
3.52
-1.22
-4.64
-4.66
-1.17
3.93
7.87
8.57
5.80
1.30
-2.28
-2.94
-0.42
3.60
6.58
6.56
3.37
-1.29
-4.78
-5.13
-2.14
2.42
5.88
6.17
3.09
-1.59
-5.12
-5.43
-2.30
2.46
6.12
6.59
3.63
-1.00
-4.67
-5.39
-3.00
0.80
3.51
3.32
0.16
-4.20
-7.27
-7.23
-4.07
0.45
3.77
4.00
0.99
-3.53
-6.97
-7.34
-4.41
0.16
3.76
4.41
1.87
-2.15
-5.04
-4.81
-1.30
3.75
7.67
8.45
5.81
1.36
-2.37
-3.40
-1.41
2.14
4.88
4.93
2.01
-2.38
-5.80
-6.27
-3.44
1.13
4.88
5.65
2.96
-1.66
-5.59
-6.62
-4.25
-0.00
3.49
4.06
1.24
-3.38
-7.21
-8.11
-5.71
-1.62
1.53
1.60
-1.76
-6.94
-11.26
-12.53
-10.30
-6.04
-2.33
-1.33
-3.55
-7.67
-11.29
-12.40
-10.54
-7.03
-4.14
-3.71
-6.05
-9.77
-12.70
-13.19
-11.17
-8.12
-6.18
-6.64
-9.13
-11.89
-12.85
-11.23
-8.22
-6.23
-7.30
-11.32
-15.62
-15.73
-7.60
10.46
36.38
64.62
87.52
97.48
89.44
62.96
23.04
-20.77
-57.13
-76.76
-75.58
-55.92
-25.10
8.02
36.38
56.65
68.73
73.98
73.40
67.15
55.53
40.04
23.99
11.41
5.20
5.53
9.67
13.46
13.39
8.68
1.34
-4.94
-7.26
-4.95
0.29
5.68
9.19
10.56
11.03
11.92
13.38
14.07
12.10
6.49
-1.74
-9.93
-15.19
-15.99
-13.29
-9.81
-8.43
-10.49
-14.91
-18.93
-20.00
-17.64
-14.11
-13.51
-19.41
-32.48
-49.68
-65.29
-73.33
-70.33
-56.67
-36.09
-13.93
4.90
17.35
22.39
20.49
12.99
1.69
-11.14
-22.86
-30.90
-33.27
-29.20
-19.50
-6.25
7.50
18.62
24.67
24.62
19.27
11.03
3.04
-2.09
-3.32
-1.52
1.24
2.99
2.91
1.60
0.61
1.16
3.28
5.89
7.44
6.86
4.37
1.30
-0.60
-0.21
2.26
5.21
6.59
5.00
0.60
-4.85
-8.95
-10.09
-8.45
-5.99
-5.24
-7.68
-12.60
-17.39
-19.03
-15.99
-9.38
-2.57
0.55
-2.20
-10.09
-19.84
-27.43
-30.18
-27.98
-23.01
-18.13
-15.07
-13.29
-10.20
-2.62
11.71
32.93
59.25
87.89
116.19
142.32
165.00
182.94
194.63
198.65
194.63
183.80
168.43
150.58
130.82
107.95
80.32
47.83
13.05
-19.26
-44.28
-59.48
-65.76
-66.64
-66.19
-67.16
-70.24
-74.67
-79.28
-83.23
-85.92
-86.67
-84.50
-78.82
-70.17
-60.43
-52.28
-47.75
-47.04
-48.37
-48.92
-46.73
-41.97
-37.18
-36.21
-42.49
-57.59
-80.52
-108.03
-135.30
-156.81
-167.25
-162.37
-140.27
-102.74
-55.59
-7.74
31.35
54.75
60.43
51.55
34.98
18.40
7.61
5.10
10.08
19.63
30.25
39.01
44.19
45.37
43.09
38.44
32.60
26.52
20.77
15.72
11.75
9.21
8.23
8.37
8.57
7.48
4.30
-0.62
-5.57
-8.29
-7.23
-2.49
3.86
8.71
9.34
4.89
-3.23
-12.13
-18.68
-21.37
-20.62
-18.54
-17.53
-19.01
-23.00
-28.16
-32.60
-34.48
-32.55
-26.54
-17.93
-10.45
-9.57
-20.68
-46.25
-83.21
-122.78
-153.35
-165.02
-154.12
-124.44
-84.79
-44.47
-9.22
19.70
43.80
64.52
81.95
95.53
106.10
117.22
133.81
159.64
194.30
232.44
265.62
285.20
285.35
264.32
224.41
171.21
113.15
60.23
21.85
3.65
5.01
18.57
33.25
38.94
30.59
10.00
-16.42
-41.41
-60.43
-72.78
-80.39
-85.52
-89.27
-91.49
-91.55
-89.26
-84.89
-79.00
-72.28
-65.75
-60.92
-59.66
-63.43
-72.68
-86.52
-102.83
-118.65
-130.76
-136.16
-132.65
-119.49
-97.97
-71.36
-44.20
-21.02
-4.92
3.21
4.64
2.10
-1.18
-2.15
1.42
10.43
24.08
39.81
54.11
63.80
67.35
65.44
60.35
54.72
50.30
47.39
45.11
42.31
38.29
33.10
27.33
21.62
16.25
11.10
5.97
0.95
-3.37
-6.07
-6.43
-4.52
-1.44
0.99
1.10
-1.62
-6.11
-10.06
-11.11
-8.22
-2.36
3.69
6.74
4.81
-1.69
-10.07
-16.63
-18.37
-14.70
-7.62
-0.88
1.94
-0.76
-7.64
-15.03
-18.46
-14.56
-2.45
15.95
36.39
53.20
60.28
52.31
26.75
-14.79
-65.69
-115.36
-152.11
-166.90
-156.20
-122.84
-74.59
-21.23
28.09
66.64
90.58
98.91
93.16
76.98
55.57
34.33
17.58
7.45
3.78
4.95
8.94
13.95
18.71
22.28
23.91
23.21
20.40
16.52
13.17
11.53
11.96
13.54
14.51
13.38
9.72
4.59
0.08
-1.64
0.66
6.86
15.59
24.90
32.92
38.40
40.80
40.27
37.44
33.08
27.85
22.01
15.47
8.11
0.22
-7.33
-13.29
-16.70
-17.49
-16.51
-15.17
-14.48
-14.52
-14.53
-13.48
-11.09
-8.23
-6.61
-7.88
-12.54
-19.57
-26.74
-31.70
-32.96
-30.60
-25.96
-20.92
-16.87
-14.17
-12.31
-10.53
-8.60
-7.10
-7.02
-8.98
-12.54
-16.08
-17.59
-15.70
-10.66
-4.44
0.28
1.33
-1.50
-6.45
-10.63
-11.41
-7.69
0.07
10.66
23.50
39.34
59.79
86.00
117.11
149.74
178.76
199.03
207.03
201.60
183.72
155.73
120.58
81.50
41.83
4.79
-26.95
-51.78
-69.22
-79.80
-84.71
-85.60
-84.45
-83.37
-84.28
-88.04
-94.01
-100.14
-103.86
-103.44
-98.93
-92.07
-85.25
-80.20
-77.19
-75.00
-71.92
-66.79
-59.61
-51.50
-44.03
-38.42
-34.90
-32.58
-30.02
-26.18
-21.24
-16.60
-13.97
-13.97
-15.10
-14.19
-8.15
3.89
19.31
32.88
39.25
35.87
24.39
9.77
-2.52
-9.34
-11.19
-11.17
-12.53
-16.50
-21.61
-24.80
-23.58
-17.72
-9.74
-3.70
-3.09
-8.86
-18.83
-28.68
-34.03
-32.70
-25.57
-15.96
-7.68
-3.06
-1.92
-2.21
-1.47
1.54
6.18
10.61
13.15
13.47
12.84
13.32
16.38
21.87
27.94
31.98
32.03
27.96
21.72
16.41
14.77
17.85
24.47
31.96
37.51
39.61
38.62
36.30
34.53
34.13
34.39
33.56
30.11
23.74
15.79
8.51
3.81
2.25
2.67
2.92
1.15
-3.22
-9.14
-14.66
-18.00
-18.56
-17.18
-15.55
-15.22
-16.64
-18.89
-20.19
-18.95
-14.74
-8.71
-3.01
0.33
0.54
-1.39
-3.26
-2.91
0.42
5.64
10.36
12.32
10.77
6.87
3.06
1.57
3.07
6.40
9.30
9.75
7.16
2.67
-1.58
-3.69
-2.99
-0.35
2.39
3.49
2.25
-0.68
-3.69
-5.17
-4.41
-2.07
0.23
0.86
-0.86
-4.15
-7.13
-7.90
-5.70
-1.45
2.79
5.01
4.51
2.40
0.98
2.34
7.05
13.66
19.54
22.27
21.03
16.96
12.51
10.02
10.45
13.00
15.66
16.44
14.48
10.52
6.42
4.11
4.55
7.13
10.13
11.61
10.54
7.40
3.89
1.94
2.56
5.20
8.01
8.90
6.73
2.00
-3.44
-7.44
-8.77
-7.79
-6.15
-5.74
-7.54
-11.00
-14.40
-15.83
-14.37
-10.62
-6.43
-3.82
-3.89
-6.21
-9.08
-10.52
-9.45
-6.32
-2.88
-1.18
-2.41
-6.12
-10.46
-13.19
-12.94
-10.01
-6.12
-3.41
-3.10
-4.81
-6.77
-6.94
-4.32
0.41
5.19
7.88
7.46
4.72
1.79
0.91
3.13
7.66
12.31
14.73
13.72
9.91
5.39
2.53
2.70
5.54
9.25
11.63
11.37
8.69
5.23
2.99
3.19
5.50
8.23
9.33
7.58
3.44
-1.21
-4.10
-3.86
-0.90
2.82
4.94
4.01
0.40
-3.91
-6.59
-6.27
-3.43
-0.14
1.23
-0.65
-5.22
-10.33
-13.45
-13.12
-9.72
-5.31
-2.35
-2.37
-5.14
-8.82
-11.06
-10.40
-7.05
-2.75
0.27
0.55
-1.70
-4.80
-6.59
-5.70
-2.41
1.54
3.99
3.59
0.69
-2.89
-4.86
-3.81
-0.04
4.57
7.67
7.69
4.83
0.86
-1.83
-1.65
1.37
5.48
8.34
8.26
5.29
1.17
-1.63
-1.33
2.10
6.89
10.50
11.05
8.41
4.23
0.95
0.31
2.34
5.36
7.03
5.75
1.67
-3.36
-6.89
-7.25
-4.53
-0.54
2.27
2.20
-0.73
-4.78
-7.56
-7.46
-4.55
-0.61
1.98
1.61
-1.57
-5.75
-8.50
-8.25
-5.13
-0.93
2.04
2.21
-0.28
-3.74
-5.95
-5.45
-2.31
1.88
4.99
5.53
3.44
0.13
-2.38
-2.51
-0.10
3.62
6.65
7.36
5.37
1.79
-1.40
-2.51
-1.07
1.84
4.27
4.53
2.25
-1.35
-4.16
-4.47
-2.05
1.71
4.56
4.79
2.23
-1.59
-4.42
-4.59
-2.09
1.45
3.78
3.37
0.39
-3.42
-5.74
-5.08
-1.71
2.49
5.09
4.50
0.86
-3.98
-7.50
-7.91
-5.08
-0.55
3.39
5.01
4.01
1.66
-0.14
-0.01
2.05
4.62
5.81
4.32
0.34
-4.47
-7.95
-8.56
-6.26
-2.52
0.61
1.60
0.34
-1.86
-3.18
-2.31
0.68
4.38
6.86
6.74
4.03
0.12
-2.97
-3.65
-1.63
1.99
5.37
6.94
6.29
4.30
2.63
2.69
4.76
7.79
9.98
9.83
7.03
2.71
-1.20
-3.13
-2.79
-1.36
-0.78
-2.44
-6.29
-10.68
-13.36
-12.75
-8.96
-3.87
-0.11
0.35
-2.74
-7.83
-12.52
-14.90
-14.51
-12.55
-10.91
-11.00
-12.82
-14.97
-15.49
-13.11
-8.09
-2.19
2.30
3.89
2.79
0.86
0.51
3.28
8.89
15.24
19.63
20.18
16.91
11.75
7.45
6.06
7.96
11.69
14.93
15.89
14.27
11.38
9.29
9.53
12.18
15.78
18.16
17.65
14.05
8.73
3.75
0.75
-0.04
0.19
-0.36
-2.94
-7.41
-12.19
-15.20
-15.00
-11.74
-7.07
-3.31
-2.24
-4.13
-7.72
-10.94
-12.16
-11.07
-8.78
-7.13
-7.56
-10.26
-14.00
-16.86
-17.34
-15.18
-11.49
-8.08
-6.38
-6.64
-7.88
-8.57
-7.62
-5.07
-2.18
-0.59
-1.31
-3.95
-6.74
-7.39
-4.40
2.04
10.02
16.90
20.69
21.18
20.01
19.59
21.64
26.01
30.75
33.19
31.56
26.04
18.82
13.09
11.51
15.02
22.44
31.04
37.61
39.69
36.49
28.97
19.32
9.85
2.02
-4.16
-9.93
-16.84
-25.82
-36.58
-47.87
-58.19
-66.61
-72.91
-77.09
-78.48
-75.40
-65.71
-48.13
-23.66
3.94
29.05
46.46
53.48
51.14
43.45
35.26
29.82
27.43
25.91
22.46
15.87
7.50
0.65
-1.48
2.14
9.75
17.47
21.52
20.17
14.57
7.75
2.73
0.66
0.23
-1.40
-6.86
-16.88
-29.86
-42.67
-52.44
-57.92
-60.02
-60.94
-62.61
-65.39
-67.72
-67.20
-61.72
-51.04
-36.89
-22.34
-10.51
-3.38
-1.22
-2.79
-6.18
-9.66
-12.42
-14.57
-16.99
-20.55
-25.54
-31.29
-36.31
-39.41
-40.08
-38.94
-36.69
-32.73
-24.91
-10.41
11.87
39.33
65.43
82.02
82.99
67.59
40.97
11.54
-12.73
-27.84
-34.63
-36.68
-37.15
-36.57
-32.77
-23.12
-6.89
13.49
32.88
45.72
48.53
41.63
29.11
17.24
11.87
15.82
28.01
43.78
57.10
63.46
61.58
53.79
44.47
37.60
34.80
34.91
35.08
33.05
28.40
22.53
17.39
14.10
12.24
10.31
7.16
2.47
-2.68
-6.88
-9.30
-9.90
-9.46
-8.91
-8.90
-9.67
-11.23
-13.54
-16.34
-19.01
-20.49
-19.81
-16.69
-11.96
-7.25
-4.14
-3.22
-3.84
-4.59
-4.18
-2.24
0.71
3.70
6.05
7.73
9.08
10.41
11.50
11.92
11.08
8.96
6.10
3.17
0.92
-0.34
-0.60
-0.04
1.26
3.27
5.91
8.94
11.84
13.89
14.39
12.97
9.76
5.45
1.05
-2.37
-4.09
-3.90
-2.08
0.78
4.03
7.05
9.32
10.34
9.77
7.53
4.05
0.23
-2.77
-4.02
-3.27
-1.09
1.31
2.74
2.55
0.90
-1.37
-3.30
-4.25
-4.19
-3.39
-2.12
-0.26
2.59
6.76
12.03
17.56
22.09
24.55
24.47
22.07
18.00
13.01
7.67
2.40
-2.32
-5.85
-7.43
-6.46
-2.95
2.25
7.56
10.92
10.61
5.89
-2.57
-12.66
-21.56
-26.77
-27.06
-22.91
-16.18
-9.16
-3.64
-0.32
1.05
1.15
0.62
-0.07
-0.56
-0.44
0.72
3.17
6.74
10.89
15.11
19.22
23.48
28.34
34.00
40.04
45.47
49.09
50.18
48.86
46.24
43.95
43.37
44.97
48.01
50.84
51.76
49.92
45.67
40.42
35.44
30.92
25.66
17.86
6.58
-7.10
-20.22
-29.28
-32.36
-30.30
-26.54
-25.34
-29.61
-39.43
-52.15
-63.98
-71.80
-74.36
-72.03
-66.00
-57.17
-46.00
-32.95
-19.22
-7.02
1.04
3.23
-0.25
-7.01
-13.32
-16.07
-14.04
-8.57
-2.59
1.03
0.98
-1.91
-5.36
-7.04
-5.74
-1.91
2.88
6.96
9.39
10.20
10.08
9.87
10.01
10.40
10.62
10.28
9.28
7.90
6.79
6.34
6.44
6.30
4.85
1.24
-4.47
-11.25
-17.47
-21.66
-23.21
-22.61
-21.10
-20.00
-20.09
-21.23
-22.52
-22.82
-21.33
-18.05
-13.91
-10.28
-8.42
-8.86
-11.05
-13.61
-15.01
-14.35
-11.81
-8.44
-5.73
-4.82
-6.02
-8.82
-12.20
-15.08
-16.65
-16.68
-15.48
-13.73
-12.24
-11.78
-12.69
-15.08
-19.11
-24.52
-30.63
-35.41
-35.75
-28.52
-12.44
10.14
33.19
49.18
52.61
43.10
25.96
9.58
0.97
2.30
10.11
18.00
20.61
16.73
9.29
3.13
1.55
4.64
9.62
13.08
13.15
10.46
7.42
6.21
7.61
10.72
13.47
14.29
12.62
9.19
5.45
2.78
1.98
2.99
5.08
7.25
8.57
8.49
7.08
4.90
2.81
1.50
1.24
1.74
2.37
2.57
2.05
0.99
-0.20
-1.14
-1.72
-2.21
-3.00
-4.39
-6.34
-8.43
-10.03
-10.53
-9.68
-7.66
-4.98
-2.36
-0.50
0.21
-0.20
-1.30
-2.42
-3.03
-2.94
-2.45
-2.03
-2.11
-2.74
-3.57
-4.09
-3.97
-3.29
-2.55
-2.31
-2.82
-3.85
-4.79
-5.02
-4.33
-3.01
-1.75
-1.24
-1.76
-3.02
-4.29
-4.89
-4.58
-3.70
-2.97
-3.06
-4.13
-5.81
-7.37
-8.19
-8.07
-7.26
-6.20
-5.20
-4.22
-2.91
-0.96
1.67
4.65
7.45
9.60
10.94
11.57
11.75
11.69
11.46
11.01
10.34
9.55
8.78
8.22
7.88
7.73
7.71
7.77
7.92
8.11
8.29
8.34
8.18
7.79
7.29
6.78
6.35
6.03
5.82
5.77
5.94
6.28
6.58
6.51
5.78
4.42
2.75
1.36
0.75
1.07
2.09
3.15
3.58
2.82
0.74
-2.32
-5.67
-8.44
-9.94
-9.84
-8.35
-6.11
-3.82
-1.96
-0.62
0.36
1.18
1.78
1.85
1.08
-0.63
-2.88
-4.99
-6.21
-6.15
-4.85
-2.71
-0.29
1.98
3.90
5.50
6.81
7.83
8.47
8.63
8.31
7.56
6.52
5.33
3.98
2.53
1.03
-0.40
-1.48
-1.88
-1.45
-0.36
0.83
1.37
0.67
-1.40
-4.39
-7.43
-9.68
-10.66
-10.44
-9.64
-8.97
-8.88
-9.32
-9.83
-9.80
-8.85
-7.09
-5.01
-3.25
-2.33
-2.18
-2.41
-2.38
-1.53
0.06
2.00
3.76
5.06
5.98
6.72
7.27
7.29
6.36
4.24
1.26
-1.83
-4.17
-5.22
-5.01
-4.06
-2.92
-1.92
-0.99
0.18
1.82
3.89
5.95
7.41
7.68
6.45
3.86
0.32
-3.35
-6.46
-8.46
-9.01
-8.07
-5.72
-2.27
1.84
5.99
9.56
12.02
13.08
12.73
11.05
8.24
4.55
0.48
-3.23
-5.74
-6.46
-5.47
-3.54
-1.85
-1.37
-2.35
-4.18
-5.80
-6.28
-5.34
-3.51
-1.71
-0.80
-1.19
-2.73
-4.97
-7.43
-9.97
-12.76
-16.05
-19.85
-23.66
-26.59
-27.69
-26.37
-22.76
-17.58
-11.75
-6.04
-0.76
4.04
8.36
12.02
14.68
16.02
15.97
14.77
12.90
10.88
9.17
8.20
8.22
9.26
11.00
12.85
14.12
14.40
13.73
12.54
11.36
10.44
9.64
8.60
7.12
5.43
4.11
3.79
4.60
6.01
7.04
6.78
4.94
1.97
-1.19
-3.67
-5.15
-5.92
-6.54
-7.43
-8.52
-9.36
-9.46
-8.64
-7.15
-5.51
-4.20
-3.34
-2.78
-2.17
-1.28
-0.11
1.18
2.34
3.16
3.62
3.80
3.87
4.00
4.29
4.74
5.19
5.36
5.00
4.04
2.63
1.14
0.03
-0.42
-0.33
-0.10
-0.31
-1.31
-3.07
-5.08
-6.68
-7.28
-6.71
-5.33
-3.76
-2.65
-2.31
-2.60
-3.05
-3.21
-2.79
-1.82
-0.53
0.83
2.15
3.27
4.11
4.60
4.55
4.06
3.34
2.58
1.96
1.56
1.51
1.96
2.79
3.58
3.55
2.14
-0.36
-2.67
-3.15
-0.96
3.17
7.04
8.22
5.79
0.89
-3.76
-5.53
-3.51
1.11
6.11
9.61
10.95
10.71
9.64
8.11
6.24
4.04
1.81
-0.08
-1.54
-2.79
-4.18
-5.78
-7.42
-8.91
-10.34
-12.18
-14.86
-18.17
-21.02
-21.80
-19.46
-14.21
-7.64
-1.90
1.48
2.25
1.26
-0.19
-1.15
-1.43
-1.38
-1.39
-1.74
-2.17
-2.15
-1.37
0.15
1.98
3.54
4.36
4.48
4.34
4.66
6.24
9.36
13.66
18.21
21.73
23.35
22.91
20.92
18.34
16.08
14.55
13.68
13.68
15.11
18.59
24.17
30.43
34.77
34.59
28.67
18.16
5.94
-4.79
-12.21
-16.68
-20.17
-24.71
-30.86
-37.45
-41.87
-41.52
-35.09
-23.20
-8.64
4.57
12.63
13.43
7.86
-0.40
-6.60
-7.45
-2.64
5.06
11.35
13.28
10.54
5.32
0.85
-0.77
0.37
2.51
3.38
1.75
-2.11
-6.72
-10.29
-11.58
-10.46
-7.93
-5.42
-4.25
-4.90
-6.71
-8.14
-7.61
-4.34
0.95
6.23
9.14
8.10
3.28
-3.31
-8.76
-10.72
-8.57
-3.92
0.24
1.08
-2.63
-9.87
-17.98
-23.98
-26.02
-24.07
-19.55
-14.30
-9.52
-5.28
-0.92
4.18
9.78
14.68
17.26
16.37
12.18
6.17
0.50
-3.06
-3.96
-3.01
-1.85
-1.95
-3.83
-6.83
-9.58
-10.82
-10.15
-8.19
-6.17
-5.20
-5.60
-6.79
-7.64
-7.16
-5.11
-2.15
0.59
2.18
2.44
1.99
1.78
2.44
3.89
5.32
5.81
4.81
2.55
-0.08
-2.03
-2.62
-1.84
-0.31
1.17
2.11
2.71
3.78
6.31
10.78
16.61
22.14
25.22
24.08
18.26
8.94
-1.43
-10.10
-15.10
-15.82
-12.97
-7.95
-2.13
3.60
8.82
13.19
16.16
16.93
14.89
10.20
4.09
-1.37
-4.09
-2.95
1.48
7.06
10.89
10.71
5.94
-1.93
-9.96
-15.14
-15.69
-11.92
-5.84
-0.13
3.19
3.78
2.98
2.96
5.39
10.42
16.43
20.86
21.50
17.70
10.81
3.42
-1.81
-3.47
-1.81
1.73
5.48
8.33
9.80
9.79
8.41
6.00
3.69
3.58
8.00
18.35
33.55
49.32
58.89
55.42
35.12
-0.38
-43.89
-84.85
-113.11
-122.65
-113.41
-90.58
-61.84
-34.05
-11.16
5.84
17.50
24.04
24.80
19.04
7.28
-7.87
-22.34
-32.23
-35.43
-32.42
-25.69
-18.25
-12.19
-7.85
-4.30
-0.25
5.07
11.23
16.62
19.32
17.61
11.08
0.71
-11.14
-21.54
-27.87
-28.28
-22.14
-10.05
6.16
23.59
38.61
47.76
48.84
42.10
30.49
18.95
12.32
13.14
20.38
30.08
37.38
38.96
34.46
26.11
17.08
9.69
4.60
1.68
1.07
3.68
10.40
20.10
28.80
30.61
20.88
-0.63
-28.77
-54.95
-71.16
-73.69
-64.26
-48.18
-30.98
-15.64
-2.25
10.52
23.28
34.92
43.18
46.15
43.25
35.38
24.12
10.78
-3.80
-19.14
-34.59
-48.89
-60.16
-66.38
-66.19
-59.53
-47.78
-33.28
-18.31
-4.25
8.54
20.28
30.94
39.70
45.30
46.98
45.32
42.18
39.70
39.15
40.19
41.41
41.13
37.87
30.40
17.91
0.48
-19.97
-39.29
-52.50
-55.94
-49.89
-39.06
-30.57
-30.39
-40.04
-55.61
-69.97
-76.45
-72.23
-59.39
-43.08
-28.42
-17.78
-10.05
-2.12
8.53
21.69
34.04
40.71
37.88
24.96
5.07
-16.49
-34.47
-46.11
-51.62
-53.00
-52.42
-50.83
-48.18
-44.59
-41.00
-39.15
-40.28
-43.60
-45.87
-42.56
-29.91
-7.16
22.85
54.80
83.14
104.34
117.65
124.35
126.10
123.82
117.76
108.07
95.72
82.62
70.92
61.98
55.81
51.02
45.52
37.23
24.69
7.63
-12.78
-33.96
-52.32
-64.40
-67.92
-62.74
-50.73
-34.96
-18.25
-2.08
13.52
29.22
45.02
59.47
69.78
72.85
66.80
52.14
32.00
11.25
-5.16
-14.39
-16.85
-15.81
-15.72
-19.64
-27.77
-37.64
-45.93
-50.58
-51.91
-52.07
-53.17
-55.57
-57.16
-54.38
-44.05
-25.21
0.37
28.68
54.92
75.42
88.30
93.69
92.80
87.01
77.03
62.99
45.07
24.18
2.39
-17.74
-34.14
-46.30
-55.46
-63.76
-72.98
-83.17
-92.43
-97.66
-96.12
-86.64
-70.27
-49.76
-28.42
-8.91
7.74
22.13
35.71
49.68
63.85
76.19
83.31
82.09
71.20
52.44
30.11
9.02
-8.11
-21.72
-34.55
-49.09
-65.05
-79.16
-86.90
-85.36
-75.20
-60.29
-45.41
-33.56
-24.62
-15.90
-4.37
11.28
29.94
48.62
64.15
74.42
78.92
78.51
74.39
67.44
57.84
45.42
30.52
14.64
0.26
-10.16
-15.61
-17.42
-18.77
-23.28
-33.29
-48.71
-66.83
-83.23
-93.26
-93.50
-82.84
-62.88
-37.50
-11.46
11.22
28.67
41.63
52.51
63.63
75.32
85.15
88.97
83.18
67.33
44.70
20.65
-0.44
-17.26
-31.64
-46.00
-60.66
-72.92
-78.49
-74.76
-62.75
-46.97
-32.77
-23.29
-18.01
-13.70
-6.93
3.83
17.72
32.77
47.34
60.98
73.95
86.14
96.14
101.29
98.38
85.04
61.21
29.87
-3.46
-32.35
-51.82
-60.31
-60.13
-56.01
-52.92
-53.57
-57.62
-62.26
-64.08
-60.95
-52.91
-41.80
-29.95
-18.87
-8.49
2.44
15.33
30.82
48.23
65.82
81.18
91.56
94.10
86.60
68.62
42.34
12.41
-15.72
-38.08
-53.49
-63.26
-69.40
-72.62
-72.09
-66.55
-56.17
-43.45
-32.10
-24.83
-21.50
-19.16
-13.93
-3.42
12.15
30.36
48.42
64.47
77.97
88.58
95.11
95.21
86.30
67.39
40.51
10.72
-15.43
-32.45
-38.25
-34.72
-26.66
-19.67
-18.05
-23.73
-36.14
-52.84
-70.27
-84.57
-92.16
-90.55
-79.16
-59.46
-34.69
-8.78
14.84
34.05
48.41
58.76
66.79
74.30
82.67
92.28
101.88
108.47
107.62
94.74
67.08
25.87
-22.87
-69.21
-102.63
-116.34
-110.27
-91.20
-69.25
-53.03
-45.80
-44.86
-44.04
-37.91
-24.63
-6.31
12.96
29.81
43.13
53.88
63.57
72.73
80.41
84.60
83.45
76.23
63.92
48.66
32.48
16.09
-1.52
-21.87
-45.14
-68.57
-87.10
-95.69
-92.37
-79.68
-63.59
-50.34
-43.15
-41.00
-39.91
-35.94
-27.49
-15.73
-3.08
8.96
20.73
34.05
50.60
70.21
90.19
105.70
111.30
103.41
82.19
51.74
18.29
-12.76
-39.06
-61.38
-81.13
-97.43
-106.37
-102.99
-85.33
-57.00
-26.61
-3.57
6.80
5.96
0.62
-1.61
3.40
14.73
28.20
39.69
47.59
53.08
58.10
63.33
67.17
66.49
58.58
43.10
22.63
2.02
-13.72
-21.43
-21.15
-16.01
-10.72
-9.94
-16.40
-30.15
-48.60
-67.41
