1541859533.00
64.000000
-0.00
-0.00
-0.00
-0.00
-0.00
-0.00
-0.00
-0.00
-0.00
-0.01
-0.00
0.00
0.01
0.01
-0.00
-0.03
-0.05
-0.05
-0.00
0.13
0.36
0.66
1.01
1.37
1.72
2.06
2.40
2.77
3.24
3.80
4.42
5.07
5.69
6.24
6.76
7.28
7.86
8.65
9.65
10.81
12.03
13.18
14.21
15.18
16.24
17.53
19.42
21.93
24.91
28.11
31.23
34.10
36.82
39.70
43.07
47.60
53.28
59.86
66.82
73.58
79.82
85.68
91.67
98.38
106.78
116.91
128.41
140.48
152.27
163.27
173.59
184.89
195.36
207.16
220.98
237.56
257.01
278.20
298.30
313.10
318.02
309.48
286.94
252.15
208.98
161.75
113.86
67.06
21.87
-21.78
-63.91
-103.73
-140.71
-174.32
-204.25
-230.10
-251.63
-268.37
-279.93
-286.38
-288.12
-286.37
-282.54
-277.86
-273.06
-268.45
-264.07
-260.13
-257.27
-256.07
-256.77
-259.42
-263.89
-270.17
-278.69
-289.83
-302.84
-315.13
-322.61
-320.98
-307.86
-284.35
-254.73
-224.31
-197.05
-173.89
-152.88
-131.17
-107.52
-83.18
-61.01
-43.67
-31.44
-21.78
-10.90
3.69
21.71
39.94
53.89
60.67
60.93
58.65
59.16
66.08
78.98
93.30
102.93
103.42
94.68
81.52
70.79
67.56
72.29
80.46
85.01
80.77
67.75
51.10
38.38
35.29
42.09
53.24
61.00
59.58
48.30
32.12
18.54
13.02
16.01
22.90
26.58
21.93
8.75
-7.92
-20.57
-23.71
-17.28
-6.68
0.55
-0.66
-9.48
-19.23
-21.48
-11.14
10.21
34.94
53.42
59.45
53.25
40.92
30.49
27.43
31.86
39.19
43.17
39.77
29.43
16.86
8.15
7.59
15.09
25.89
33.23
32.12
21.64
5.98
-7.96
-14.40
-12.01
-4.41
1.78
1.00
-7.61
-19.90
-29.03
-29.59
-20.87
-7.54
3.34
6.21
0.17
-10.41
-18.72
-19.48
-11.97
-0.22
9.27
11.42
5.73
-3.72
-10.47
-9.40
0.14
13.74
24.57
26.99
19.83
7.47
-2.89
-5.62
0.42
10.93
18.59
17.76
7.75
-6.92
-18.74
-21.69
-14.86
-2.75
7.36
9.21
1.53
-11.17
-21.39
-22.71
-13.32
2.62
17.39
24.13
20.35
9.39
-1.49
-5.54
-0.62
9.95
19.32
21.33
14.67
3.71
-4.09
-2.74
8.72
25.22
38.78
42.98
36.46
23.83
12.96
10.38
17.71
30.88
42.49
46.23
40.76
30.26
22.09
22.39
32.41
47.54
60.03
63.31
55.92
42.62
31.30
28.56
35.68
47.96
57.59
58.37
49.20
34.77
22.61
18.77
24.23
34.51
42.32
41.84
32.25
18.45
8.07
7.05
16.07
29.92
40.31
40.57
29.33
11.41
-5.01
-13.12
-11.26
-3.65
2.36
0.88
-8.70
-21.65
-30.63
-30.40
-20.86
-7.19
3.17
4.78
-2.74
-14.54
-23.47
-24.00
-15.44
-2.15
9.11
12.74
7.38
-3.14
-12.38
-14.73
-8.51
2.79
12.66
15.65
10.35
0.40
-7.58
-8.48
-1.56
9.36
17.81
18.82
12.10
1.70
-6.30
-7.28
-1.12
8.12
14.85
14.75
7.37
-3.53
-12.64
-15.82
-12.11
-4.76
1.17
2.02
-2.86
-9.82
-13.33
-9.38
2.24
17.71
30.49
35.37
31.40
21.92
13.53
12.01
18.81
30.64
41.13
44.16
37.94
25.87
14.10
8.53
10.82
17.36
21.88
18.90
7.05
-9.51
-23.85
-30.37
-27.57
-19.67
-13.84
-15.74
-26.52
-41.37
-52.23
-52.72
-41.94
-25.10
-11.21
-7.59
-15.43
-29.67
-41.43
-43.52
-34.73
-19.96
-7.20
-2.92
-7.92
-17.35
-23.73
-21.22
-9.27
7.20
20.80
25.60
20.51
9.89
0.73
-1.24
5.41
16.94
27.03
30.37
25.45
15.51
6.32
2.78
6.36
14.25
21.10
22.34
16.75
7.53
0.58
0.98
9.82
23.40
34.82
38.06
31.72
19.48
8.49
4.89
9.93
19.48
26.36
24.40
12.49
-4.77
-19.91
-26.25
-22.15
-11.75
-2.28
-0.55
-8.94
-23.96
-38.71
-46.71
-45.27
-37.67
-30.55
-29.67
-36.81
-47.77
-55.08
-52.65
-39.36
-19.87
-2.68
5.10
1.79
-8.48
-17.44
-17.88
-7.85
8.76
24.49
32.40
30.47
22.34
14.57
13.29
20.06
31.18
40.33
41.89
34.25
21.03
8.56
2.29
4.25
11.29
17.38
17.35
9.50
-2.61
-12.25
-13.63
-5.23
8.96
21.26
24.97
18.21
4.87
-7.47
-12.33
-8.10
1.15
8.50
8.29
-0.34
-12.82
-22.32
-23.43
-15.37
-2.55
7.96
10.27
2.71
-10.80
-22.97
-27.02
-20.08
-5.06
10.66
19.39
17.08
5.84
-7.12
-13.81
-9.86
2.81
16.77
23.85
19.71
6.72
-7.24
-13.73
-8.71
5.05
19.29
25.54
20.13
6.50
-6.61
-10.78
-2.92
12.98
27.83
33.07
25.76
10.12
-4.85
-10.86
-5.32
7.67
19.62
22.73
14.43
-1.52
-17.27
-25.39
-23.18
-13.49
-3.04
1.39
-3.13
-14.54
-26.99
-34.25
-33.39
-25.90
-16.93
-12.32
-14.85
-23.04
-31.71
-35.06
-30.53
-20.04
-9.19
-4.31
-8.37
-19.47
-31.63
-37.94
-34.85
-23.84
-10.64
-2.34
-3.07
-11.91
-23.35
-30.28
-28.33
-18.00
-4.33
5.77
7.92
2.36
-6.09
-10.96
-8.25
1.51
13.59
21.72
22.24
15.93
7.79
4.02
7.95
18.35
29.97
36.46
34.47
25.28
14.33
7.94
9.23
16.72
25.12
28.53
24.51
15.18
6.39
3.90
9.52
20.32
29.94
32.37
25.91
13.64
2.13
-2.70
0.75
9.35
16.75
17.32
9.81
-2.42
-12.78
-15.72
-10.20
0.06
8.19
8.50
0.05
-13.06
-23.51
-25.33
-17.59
-4.76
5.39
6.48
-2.72
-17.49
-29.43
-31.26
-20.96
-3.00
13.68
20.60
14.40
-1.37
-17.97
-26.41
-22.35
-8.41
7.40
16.37
14.04
2.51
-11.05
-18.82
-17.10
-8.09
1.78
6.03
2.38
-6.02
-12.55
-11.32
-1.12
13.64
25.21
26.91
17.11
0.64
-13.77
-18.27
-10.29
5.89
21.44
27.82
21.36
5.22
-12.48
-23.53
-23.81
-15.31
-4.60
1.28
-1.26
-10.40
-20.36
-25.06
-21.69
-12.42
-2.95
0.88
-3.20
-12.19
-19.65
-19.23
-8.56
8.73
25.00
32.49
27.73
13.83
-1.44
-9.66
-6.38
6.30
21.43
30.90
30.10
20.23
7.09
-2.44
-4.70
-0.83
4.31
5.57
1.21
-6.10
-10.77
-7.92
3.07
17.85
29.12
30.67
21.19
5.41
-8.37
-12.83
-5.79
8.41
21.34
25.23
17.26
1.22
-14.79
-23.12
-20.58
-9.98
1.68
7.52
4.42
-5.30
-15.63
-20.62
-17.76
-9.53
-1.62
0.59
-4.60
-13.55
-19.59
-16.53
-2.53
18.05
37.11
46.57
42.97
29.23
12.62
1.15
-1.08
4.51
12.56
17.00
15.23
9.10
3.97
4.81
12.72
24.53
33.79
34.90
26.19
10.89
-4.41
-13.75
-14.77
-9.99
-5.25
-5.87
-13.78
-25.74
-35.50
-37.39
-29.43
-15.21
-1.59
4.69
0.92
-10.12
-22.21
-28.96
-27.96
-21.83
-16.34
-16.89
-24.57
-35.84
-43.92
-43.20
-32.75
-16.63
-2.29
3.89
-0.19
-11.00
-21.46
-25.14
-19.36
-7.10
5.01
10.58
7.00
-2.53
-11.32
-12.66
-3.95
11.58
27.06
35.59
34.67
27.51
20.96
21.36
30.36
44.20
55.55
57.93
49.49
33.77
17.93
8.33
7.29
12.02
16.54
15.53
7.34
-4.61
-14.11
-15.80
-8.38
4.20
15.12
18.35
12.21
0.48
-9.93
-13.02
-7.38
3.09
11.38
11.38
1.62
-14.06
-28.47
-35.31
-32.69
-23.90
-15.52
-13.13
-18.25
-26.97
-32.48
-29.10
-15.67
3.14
19.72
27.40
24.39
14.72
5.69
3.64
10.15
21.36
30.24
30.82
21.52
6.05
-8.80
-16.98
-16.43
-10.00
-3.41
-2.09
-7.87
-18.25
-27.74
-31.40
-27.69
-19.37
-12.30
-11.74
-19.54
-32.44
-44.03
-48.17
-42.29
-29.49
-16.26
-9.18
-10.76
-18.08
-24.52
-23.82
-14.17
0.83
14.07
19.36
15.21
5.85
-1.24
-0.12
10.12
24.51
35.16
35.80
25.39
8.87
-5.68
-11.37
-6.44
5.04
15.53
18.22
10.96
-2.62
-15.11
-19.82
-14.42
-2.20
9.68
14.46
9.49
-1.99
-13.06
-17.09
-11.49
0.53
12.17
16.92
12.72
2.99
-5.24
-5.50
3.93
19.28
33.26
39.54
36.39
27.57
19.94
19.18
26.52
37.84
46.47
47.04
38.61
25.10
12.86
7.14
8.92
14.89
19.38
17.76
9.14
-3.11
-13.28
-17.01
-13.70
-6.95
-2.64
-5.39
-15.96
-30.28
-42.01
-45.76
-40.10
-28.79
-18.44
-15.26
-21.05
-32.53
-42.98
-46.20
-40.28
-28.41
-17.44
-13.17
-17.29
-25.90
-32.22
-30.72
-20.45
-6.13
5.31
8.31
2.78
-6.32
-11.48
-7.13
6.71
24.97
39.74
45.38
41.10
31.81
24.74
25.05
33.40
44.88
52.95
52.55
43.86
31.60
22.31
20.45
25.51
33.10
36.81
32.72
20.88
5.74
-6.87
-12.88
-11.91
-7.78
-5.58
-9.48
-19.50
-32.05
-41.44
-43.34
-37.39
-27.29
-19.36
-18.53
-26.16
-38.47
-49.19
-52.65
-47.19
-36.15
-25.66
-21.37
-24.53
-31.59
-35.77
-31.66
-18.42
-0.78
13.55
18.37
12.66
1.65
-6.78
-6.15
4.22
19.26
31.12
34.01
27.66
16.98
9.23
9.14
16.72
26.91
33.25
31.58
22.65
11.67
5.02
6.77
15.77
26.87
33.29
30.93
20.51
7.37
-1.68
-2.21
5.59
16.75
24.76
24.67
16.41
4.40
-4.79
-6.24
0.48
11.14
19.24
19.87
12.54
1.62
-6.58
-7.51
-1.23
7.69
12.98
10.53
1.08
-10.38
-17.64
-17.16
-10.20
-2.15
0.77
-4.84
-17.32
-30.75
-38.29
-35.99
-25.31
-12.14
-3.86
-5.13
-15.27
-28.78
-38.38
-39.16
-31.04
-18.83
-9.03
-6.36
-10.65
-17.28
-19.85
-14.07
-0.50
15.69
27.58
30.57
25.11
16.41
11.27
13.76
23.09
33.82
39.38
35.84
24.27
9.76
-1.53
-5.90
-4.16
-0.28
0.77
-3.31
-11.21
-18.39
-20.23
-14.50
-3.21
8.36
14.45
11.70
1.58
-10.71
-18.66
-18.72
-11.76
-3.36
0.13
-4.99
-17.06
-30.20
-37.32
-34.66
-23.83
-11.05
-3.54
-5.53
-15.75
-28.28
-35.85
-33.79
-22.56
-6.93
6.51
13.39
13.54
10.92
10.64
15.90
25.67
35.49
40.14
37.19
28.78
20.50
18.02
23.61
34.54
44.53
47.28
40.14
25.53
9.52
-1.69
-4.96
-1.84
2.68
2.93
-4.21
-17.54
-32.21
-42.15
-43.34
-36.03
-24.56
-15.40
-13.35
-18.92
-27.68
-32.96
-29.42
-16.70
0.44
14.47
19.74
15.81
7.84
3.28
7.39
19.77
34.74
44.70
44.92
36.28
24.61
16.75
16.29
21.38
26.01
24.06
13.21
-3.27
-18.50
-25.98
-23.59
-14.75
-6.57
-5.47
-13.42
-26.50
-37.29
-39.00
-29.63
-12.86
3.67
13.01
12.47
5.34
-1.69
-2.28
5.36
18.02
28.90
32.14
25.84
13.51
1.51
-4.30
-2.36
4.43
9.82
8.43
-1.54
-16.78
-31.14
-38.47
-36.49
-27.26
-16.60
-10.14
-10.61
-15.77
-20.37
-18.85
-9.23
6.12
21.12
29.94
29.83
23.23
15.56
12.43
15.60
22.55
27.29
24.62
12.91
-4.20
-20.22
-28.89
-28.20
-20.82
-13.08
-10.78
-16.21
-26.27
-34.90
-36.00
-27.63
-12.49
2.89
12.45
13.47
8.63
3.64
4.24
12.16
24.70
35.61
39.36
33.88
22.35
10.71
4.70
5.88
11.46
15.29
12.11
0.33
-16.35
-31.38
-38.43
-35.43
-25.05
-13.85
-8.01
-10.25
-17.81
-24.60
-24.34
-14.87
1.11
16.88
26.11
26.07
19.43
12.01
9.28
12.47
18.31
20.61
14.75
0.58
-16.80
-30.11
-33.86
-27.96
-17.37
-9.67
-10.18
-18.94
-30.43
-36.98
-33.24
-19.66
-2.11
11.24
14.83
8.94
-0.54
-5.64
-1.14
12.36
28.90
40.69
42.50
34.67
22.68
13.90
13.41
21.35
33.04
41.84
42.59
34.40
20.79
7.75
0.33
0.27
5.11
9.88
9.63
2.34
-9.97
-22.41
-29.94
-30.29
-25.37
-20.18
-19.71
-25.68
-35.14
-42.02
-40.76
-29.86
-13.21
1.99
9.28
6.76
-1.75
-8.99
-8.48
1.75
18.10
33.54
41.55
39.74
30.74
20.48
14.44
14.68
18.62
21.12
17.58
7.28
-6.21
-16.94
-20.38
-16.30
-9.22
-5.73
-10.42
-22.85
-37.37
-46.15
-43.60
-29.64
-9.93
7.13
14.70
10.96
-0.07
-10.93
-14.74
-8.71
4.72
19.31
28.80
30.05
24.75
17.65
13.62
14.14
16.62
15.87
7.87
-7.14
-24.00
-35.19
-35.04
-23.20
-5.16
10.52
16.89
12.32
1.20
-8.71
-10.72
-2.90
11.11
24.39
30.66
27.97
19.23
10.30
5.95
7.05
9.89
8.84
0.15
-15.12
-31.12
-40.44
-38.44
-26.24
-10.31
1.21
3.07
-4.08
-14.18
-19.33
-14.34
0.35
19.09
34.19
39.88
35.15
23.83
12.23
5.72
6.05
10.89
15.31
14.62
7.12
-5.11
-17.34
-25.01
-26.39
-23.66
-21.36
-23.38
-29.96
-37.19
-39.08
-31.47
-15.01
4.66
19.82
25.06
20.56
11.89
6.66
9.98
21.40
35.17
43.61
41.42
28.89
11.28
-3.90
-11.49
-10.98
-7.01
-5.82
-11.67
-23.55
-35.92
-41.64
-36.65
-22.33
-5.27
6.65
8.54
1.31
-9.04
-15.08
-11.94
-0.24
14.96
26.79
30.86
27.12
19.85
14.31
13.85
17.35
20.52
18.00
7.15
-10.02
-27.61
-38.67
-39.29
-30.46
-17.97
-8.67
-6.93
-11.68
-17.68
-18.29
-10.06
5.61
22.64
34.29
36.33
29.63
19.18
11.09
9.30
13.49
19.92
23.65
21.88
15.07
6.88
1.36
0.79
3.62
5.88
2.73
-8.12
-24.71
-41.40
-51.39
-50.35
-38.72
-21.89
-7.05
0.17
-0.72
-5.70
-8.30
-4.12
7.02
20.40
29.94
31.33
24.91
15.32
8.47
8.27
14.08
21.75
25.78
23.17
14.99
5.88
1.13
3.53
11.46
19.67
22.11
15.31
0.77
-15.92
-27.90
-31.00
-25.94
-17.92
-13.47
-16.60
-26.57
-38.34
-45.69
-44.84
-36.56
-25.60
-17.79
-16.57
-20.85
-25.74
-25.30
-16.21
0.07
17.97
30.82
34.57
30.34
23.55
20.82
25.91
37.53
50.00
56.64
53.66
42.43
28.62
18.71
16.30
19.99
24.79
24.87
17.35
3.94
-10.02
-18.64
-18.87
-12.25
-4.08
-0.18
-3.61
-12.47
-21.25
-24.03
-18.08
-5.88
6.25
11.62
7.13
-4.82
-17.63
-24.53
-22.44
-13.70
-4.76
-2.15
-8.71
-21.87
-35.15
-41.94
-39.21
-29.42
-18.64
-13.36
-16.41
-25.53
-34.63
-37.53
-31.72
-19.66
-7.59
-1.40
-3.67
-11.44
-18.41
-18.38
-9.00
6.75
22.45
31.50
31.39
24.29
16.31
13.31
17.95
27.99
37.85
42.11
38.25
28.70
18.64
13.57
15.48
22.14
28.31
28.83
22.16
10.70
0.16
-4.43
-1.15
7.02
14.35
15.53
8.53
-3.52
-14.81
-19.49
-15.78
-6.43
2.34
4.60
-1.34
-12.60
-22.52
-25.42
-19.27
-7.78
2.30
4.91
-1.84
-14.00
-24.63
-27.23
-20.27
-7.54
3.52
6.37
-0.43
-12.95
-23.42
-25.47
-17.34
-3.43
8.64
12.40
6.04
-5.97
-16.10
-17.67
-9.18
5.23
18.11
23.00
18.46
8.26
-0.67
-2.76
3.26
13.63
21.96
23.23
16.46
5.49
-3.60
-5.84
-0.22
9.75
18.34
20.65
15.67
6.61
-0.97
-2.38
3.37
12.98
20.57
21.30
14.22
3.03
-5.95
-7.56
-0.98
9.64
17.63
17.62
8.84
-4.40
-15.34
-18.76
-14.13
-5.79
-0.44
-3.04
-13.74
-27.62
-37.64
-38.67
-30.57
-18.21
-8.76
-7.37
-14.13
-24.09
-30.09
-27.05
-14.89
1.38
14.68
19.99
17.22
10.97
7.54
11.10
20.99
32.23
38.32
35.18
23.58
8.81
-2.18
-4.95
-0.00
7.52
10.84
5.57
-7.59
-23.02
-33.44
-33.95
-24.72
-10.82
0.70
4.88
1.69
-4.38
-7.20
-2.85
8.02
20.41
28.17
27.39
18.93
7.83
0.25
-0.10
5.50
11.91
12.89
5.01
-9.94
-26.17
-36.66
-37.40
-29.44
-18.06
-9.74
-8.15
-12.33
-17.18
-16.73
-7.91
7.88
25.01
37.18
40.52
35.70
27.42
21.07
20.00
23.06
25.59
22.30
10.45
-7.79
-26.48
-38.72
-40.47
-32.96
-21.46
-12.72
-10.80
-14.60
-19.27
-18.80
-10.34
4.34
19.34
28.20
27.80
19.57
9.10
2.48
2.91
9.03
15.65
17.36
11.38
-0.35
-12.14
-18.17
-15.48
-6.33
3.36
7.20
2.03
-9.79
-22.15
-28.30
-24.95
-14.14
-1.54
6.58
7.41
3.18
-0.67
1.29
10.55
23.99
35.06
37.64
29.84
14.45
-1.95
-13.05
-16.06
-13.04
-9.49
-10.54
-18.11
-29.32
-38.00
-38.75
-29.68
-14.39
0.20
7.36
4.31
-5.78
-16.03
-19.49
-13.22
-0.06
13.49
20.74
19.20
12.03
5.71
6.48
15.93
30.43
42.76
46.40
39.57
25.45
10.92
2.15
1.43
6.24
10.85
10.27
2.95
-8.14
-17.31
-20.01
-15.13
-6.38
0.08
-0.94
-10.68
-25.01
-36.94
-40.19
-32.80
-18.39
-3.63
5.00
5.26
0.40
-3.52
-0.92
9.21
23.16
34.16
36.57
29.44
16.51
4.48
-1.30
0.38
6.01
9.67
6.88
-2.89
-15.51
-24.67
-25.72
-18.13
-6.42
2.72
4.01
-3.35
-14.89
-23.69
-24.14
-15.48
-2.35
8.19
10.38
3.77
-6.48
-12.80
-9.38
3.75
21.21
34.79
38.20
30.70
16.63
3.00
-4.96
-6.51
-5.33
-6.78
-13.93
-25.31
-35.55
-38.36
-30.61
-14.32
4.01
16.79
19.48
13.10
3.37
-2.54
-0.31
9.07
19.90
25.09
20.23
6.10
-11.56
-25.21
-29.50
-23.87
-12.60
-2.10
2.84
1.72
-1.70
-2.09
3.84
15.08
26.76
33.13
31.04
22.21
12.15
6.84
9.15
16.73
23.38
22.49
10.86
-8.71
-28.77
-40.90
-40.14
-27.72
-10.40
3.18
7.19
1.69
-7.80
-13.75
-11.14
-0.28
13.61
23.78
25.86
20.28
11.46
4.71
2.95
4.94
6.40
2.93
-7.02
-20.78
-32.81
-37.76
-33.41
-22.32
-10.28
-3.13
-3.49
-8.85
-13.25
-10.79
0.62
17.52
32.65
38.85
33.19
18.94
3.54
-5.49
-4.81
2.95
10.99
12.38
4.14
-11.02
-26.38
-34.96
-33.40
-23.58
-11.25
-2.72
-1.01
-4.42
-7.73
-5.63
3.71
17.32
29.13
33.49
28.80
18.46
8.90
5.62
9.69
17.24
21.64
17.53
4.31
-13.46
-28.30
-33.92
-28.70
-16.25
-3.63
2.74
0.65
-7.11
-14.17
-14.50
-6.04
8.30
21.87
28.17
24.65
13.72
1.66
-5.42
-5.05
0.36
4.83
2.76
-7.22
-21.49
-32.60
-33.80
-22.85
-3.39
16.53
29.00
30.41
22.86
13.05
7.72
9.84
17.05
23.04
21.82
11.50
-4.57
-19.27
-26.12
-22.84
-12.80
-3.18
-0.59
-7.37
-20.12
-31.47
-34.79
-27.75
-13.93
-0.76
5.22
2.03
-6.66
-13.84
-13.93
-5.98
5.69
14.24
15.01
8.24
-1.00
-5.94
-2.70
7.63
19.55
26.39
24.71
16.08
5.96
0.70
3.31
12.09
21.49
25.32
20.43
8.41
-5.52
-15.01
-16.50
-10.70
-2.12
3.33
1.98
-5.66
-15.29
-21.08
-19.13
-9.69
2.96
12.71
15.31
10.84
3.55
-0.65
2.06
10.86
20.74
25.24
20.66
8.64
-4.89
-12.88
-11.51
-2.68
7.22
11.00
4.95
-8.56
-22.71
-30.27
-27.64
-17.29
-5.86
-0.31
-3.94
-14.25
-24.77
-29.04
-24.08
-12.22
0.78
9.17
10.32
6.24
2.13
2.75
9.80
20.54
29.46
31.41
24.61
11.80
-1.01
-7.95
-6.50
1.04
8.61
9.90
2.07
-12.47
-27.06
-34.62
-31.67
-20.30
-6.96
1.49
1.89
-3.51
-8.65
-7.51
1.93
16.49
29.66
35.56
32.37
23.28
14.21
10.34
13.11
19.59
24.54
23.31
14.77
1.79
-10.40
-17.03
-16.62
-11.49
-6.56
-6.54
-12.94
-22.96
-31.27
-32.63
-25.46
-12.86
-1.03
3.88
-0.37
-10.53
-19.90
-21.90
-14.06
0.26
14.05
20.53
17.23
7.82
-0.50
-1.26
7.27
20.62
31.11
32.29
22.76
7.17
-6.74
-12.89
-10.48
-4.14
-0.99
-5.83
-18.04
-31.72
-39.16
-35.17
-20.48
-1.27
14.43
20.80
17.64
10.13
5.25
7.76
17.42
29.00
35.70
32.94
20.86
4.54
-9.10
-15.37
-13.80
-8.72
-6.34
-10.58
-20.68
-31.43
-35.76
-29.49
-13.80
5.30
19.69
24.06
18.93
9.76
3.84
6.04
15.53
26.95
33.57
31.16
20.90
8.47
0.22
-0.21
5.47
11.17
10.43
0.17
-17.25
-34.54
-43.95
-41.78
-30.00
-15.80
-7.14
-7.91
-15.99
-24.59
-25.94
-16.51
1.07
19.79
31.63
32.47
24.45
13.87
7.58
9.13
16.19
22.67
22.56
13.26
-2.32
-17.49
-26.25
-26.33
-20.42
-14.59
-13.81
-18.83
-25.93
-28.74
-22.36
-6.91
12.65
28.72
34.91
29.90
17.72
5.00
-2.41
-2.74
0.86
3.23
0.32
-8.14
-17.86
-22.71
-18.65
-5.81
10.82
24.02
28.58
23.82
13.50
4.02
0.36
3.09
8.91
12.15
8.31
-2.79
-16.99
-28.25
-31.44
-25.64
-14.63
-4.23
0.48
-1.81
-7.49
-10.54
-6.30
6.01
21.98
34.36
37.50
30.27
16.69
4.10
-1.43
1.48
9.29
15.11
12.95
1.67
-14.73
-29.22
-35.46
-31.70
-21.41
-10.79
-5.47
-7.17
-12.43
-15.31
-10.99
1.36
17.35
29.90
33.55
27.30
15.25
4.50
0.59
4.47
12.25
17.21
13.99
2.32
-13.15
-25.25
-28.24
-21.61
-10.05
-0.45
1.91
-3.40
-11.45
-15.39
-10.57
2.65
18.48
29.09
29.27
19.16
4.23
-7.86
-11.83
-7.60
0.19
4.98
2.44
-6.58
-16.89
-21.90
-17.58
-4.98
10.42
21.86
24.79
19.51
10.46
3.25
1.52
4.50
7.74
6.21
-2.35
-15.67
-27.58
-31.58
-24.95
-10.07
6.41
17.01
17.65
9.82
-0.89
-7.79
-7.14
-0.63
6.36
8.01
1.62
-10.25
-21.08
-24.37
-17.45
-2.75
12.88
22.28
21.80
13.20
2.16
-4.74
-4.17
1.94
8.10
8.56
0.95
-11.78
-22.90
-25.91
-18.29
-2.88
13.19
22.77
22.64
15.07
6.05
1.90
5.09
12.63
18.32
16.33
4.86
-12.30
-27.78
-34.77
-30.45
-17.35
-2.16
8.41
11.21
7.95
3.61
3.38
8.94
17.25
22.64
20.06
8.32
-8.58
-23.50
-30.22
-26.60
-15.47
-3.31
3.85
3.80
-0.93
-5.03
-3.44
5.07
16.83
25.65
26.13
16.75
1.24
-13.51
-21.41
-20.38
-13.10
-5.47
-2.75
-6.06
-11.86
-14.34
-9.26
3.17
17.64
26.73
25.17
12.96
-4.46
-18.87
-23.78
-18.03
-6.04
4.85
8.81
4.96
-2.00
-5.22
0.22
14.11
31.20
44.91
51.91
54.00
56.79
65.69
81.91
101.25
117.05
124.29
121.95
113.92
106.55
104.78
109.58
118.28
126.26
129.79
127.52
120.26
109.60
96.55
81.04
62.07
39.24
12.39
-17.29
-47.32
-74.90
-97.80
-115.12
-127.48
-136.37
-143.08
-148.13
-150.49
-147.22
-136.08
-116.49
-90.06
-60.26
-31.59
-8.65
4.20
3.85
-10.02
-34.77
-64.74
-92.40
-110.56
-114.95
-104.21
-82.44
-56.95
-34.89
-20.71
-14.90
-15.12
-18.45
-23.11
-28.80
-36.09
-44.76
-53.37
-60.07
-63.62
-64.13
-63.10
-62.83
-65.19
-71.02
-79.54
-88.68
-96.02
-99.75
-99.22
-94.94
-88.07
-79.61
-70.10
-59.46
-46.62
-30.43
-10.06
14.86
44.17
76.92
111.12
143.43
169.58
185.44
188.36
178.43
158.56
133.46
107.98
85.54
67.41
53.34
42.62
34.75
29.54
26.65
25.10
23.22
19.45
13.23
5.46
-1.88
-6.72
-7.89
-5.84
-2.43
0.24
0.82
-0.71
-3.20
-5.04
-5.19
-3.86
-2.04
-0.95
-1.09
-2.03
-2.66
-2.00
0.02
2.12
2.28
-1.29
-9.04
-19.31
-28.86
-34.29
-33.89
-28.59
-21.29
-15.28
-12.23
-11.24
-9.69
-5.31
1.82
8.97
12.24
9.11
0.31
-10.21
-17.51
-18.51
-13.69
-6.80
-2.34
-2.92
-7.69
-13.02
-14.88
-11.29
-3.45
4.79
9.25
7.71
0.95
-7.70
-14.22
-15.72
-11.87
-4.78
2.23
6.30
6.45
3.79
0.88
0.26
3.00
8.15
13.37
16.29
15.92
13.12
9.96
8.30
8.64
9.68
9.11
5.25
-1.63
-9.18
-13.98
-13.44
-7.21
2.25
10.86
15.21
14.35
10.38
7.03
7.26
11.22
15.90
16.76
10.74
-1.41
-15.13
-24.27
-24.69
-16.49
-4.17
5.86
8.98
5.12
-1.48
-5.11
-2.41
5.51
13.50
15.25
7.44
-7.76
-23.52
-32.09
-29.14
-15.98
1.01
13.78
17.06
11.12
1.07
-6.61
-7.99
-3.62
1.99
3.36
-2.29
-13.02
-23.24
-26.98
-21.41
-8.26
6.98
17.92
20.63
15.61
7.07
0.17
-2.01
0.19
3.49
3.83
-0.83
-9.02
-16.42
-18.48
-13.15
-1.96
10.62
19.37
21.18
16.66
9.63
4.60
3.99
6.94
9.84
8.54
1.17
-10.19
-20.35
-23.87
-18.30
-5.55
8.95
18.99
20.82
15.15
6.45
0.01
-1.34
1.39
4.27
3.09
-3.83
-14.26
-23.07
-25.21
-18.79
-6.16
7.43
16.54
18.25
13.52
6.39
1.34
0.49
2.56
4.06
1.78
-5.09
-14.02
-20.37
-19.95
-11.68
1.48
14.21
21.67
21.96
16.89
10.67
7.32
8.10
10.77
11.18
6.37
-3.34
-14.11
-20.56
-18.87
-9.01
4.69
15.79
19.38
14.65
5.10
-3.61
-7.01
-4.15
1.78
5.55
3.39
-4.45
-13.68
-18.61
-15.63
-5.46
6.82
14.33
12.16
0.35
-15.82
-28.73
-32.30
-25.06
-10.71
3.90
12.45
12.48
6.55
0.24
-1.52
2.69
9.94
14.77
12.51
2.34
-11.70
-22.82
-25.36
-17.92
-3.99
10.05
18.35
18.65
13.28
7.35
5.41
8.56
14.00
17.05
13.98
4.44
-8.05
-17.87
-20.40
-14.73
-4.04
6.55
12.71
13.11
9.83
6.68
6.65
9.69
12.60
11.34
3.79
-8.45
-20.59
-27.05
-24.50
-13.92
-0.42
9.59
11.95
6.96
-1.11
-6.69
-6.18
-0.14
6.93
9.31
3.75
-8.19
-20.78
-27.24
-23.37
-10.02
7.14
20.49
24.26
17.63
4.87
-7.23
-13.06
-11.00
-3.86
3.13
5.47
2.21
-3.67
-7.31
-5.19
2.50
11.81
17.26
15.16
5.88
-6.02
-14.46
-15.28
-8.56
1.50
9.28
11.04
7.12
1.47
-0.94
2.47
10.15
17.01
17.46
8.87
-6.47
-22.20
-31.07
-28.76
-16.31
0.48
14.01
18.77
14.11
4.14
-4.96
-8.44
-5.63
0.08
3.64
1.69
-5.17
-12.62
-15.36
-10.33
1.23
14.30
22.95
23.58
16.90
7.40
0.46
-0.87
2.40
6.01
5.38
-1.24
-11.37
-19.50
-20.36
-12.13
2.06
15.59
21.78
17.58
5.27
-8.92
-18.16
-18.75
-11.97
-2.87
2.77
1.93
-3.96
-10.23
-11.94
-6.93
2.77
12.04
15.77
11.74
1.98
-8.54
-14.89
-14.73
-9.42
-2.98
0.52
-0.50
-4.29
-6.95
-5.11
1.79
10.98
17.65
17.65
9.92
-2.63
-14.49
-20.27
-17.55
-8.04
3.57
12.02
14.13
10.03
2.89
-3.09
-5.04
-2.43
2.91
8.25
11.52
12.53
12.61
13.37
15.41
17.74
18.29
15.15
8.01
-1.20
-8.92
-11.80
-8.49
-0.50
8.38
14.00
13.99
8.93
1.80
-3.72
-5.44
-3.76
-1.18
-0.57
-3.37
-8.81
-14.20
-16.72
-15.19
-10.64
-5.58
-2.42
-2.21
-4.05
-5.85
-5.75
-3.42
-0.32
1.15
-0.82
-6.22
-13.01
-17.93
-18.28
-13.24
-4.38
5.17
12.23
15.11
14.11
11.04
8.05
6.42
6.04
5.75
4.41
1.77
-1.23
-3.00
-2.36
0.74
4.96
8.24
8.93
6.77
3.14
0.25
-0.13
2.22
5.79
8.15
7.31
2.85
-3.78
-9.96
-13.24
-12.64
-9.14
-4.99
-2.40
-2.23
-3.66
-4.76
-3.78
-0.17
5.02
9.68
11.87
10.97
8.10
5.46
5.04
7.49
11.80
15.94
17.91
16.83
13.54
10.08
8.68
10.33
14.02
17.37
18.26
16.22
12.87
10.87
12.14
16.44
21.25
22.88
18.49
8.04
-5.44
-17.19
-23.36
-23.06
-18.80
-14.85
-14.88
-19.92
-27.89
-34.84
-37.18
-33.98
-27.72
-22.73
-22.27
-26.29
-31.10
-31.82
-25.52
-13.21
0.39
9.24
9.44
1.48
-9.93
-18.47
-20.01
-14.95
-7.72
-3.89
-6.74
-15.25
-24.93
-30.57
-29.14
-21.42
-11.33
-3.51
-0.71
-2.45
-5.63
-6.69
-3.71
2.68
9.95
15.10
16.30
13.42
8.11
3.01
0.64
2.19
6.97
12.59
16.24
16.70
15.32
15.37
19.86
29.09
39.75
46.65
45.78
36.99
24.17
12.90
7.01
6.24
6.71
3.56
-5.65
-19.10
-31.62
-37.43
-33.44
-20.76
-4.43
9.18
15.47
13.75
7.15
0.51
-2.46
-1.42
0.97
1.11
-2.93
-9.76
-15.33
-15.40
-8.19
4.36
17.21
24.78
23.85
15.49
4.44
-3.45
-4.62
0.10
6.18
8.13
3.13
-7.14
-17.26
-21.32
-16.51
-4.72
8.40
16.66
16.76
10.13
1.83
-2.69
-0.78
5.70
11.56
11.65
4.14
-8.04
-18.78
-22.28
-16.47
-4.21
8.44
15.59
14.59
7.40
-0.97
-5.39
-3.55
2.71
8.41
8.39
0.72
-11.69
-22.39
-25.07
-17.52
-3.11
11.10
18.64
17.16
9.42
1.06
-3.18
-1.99
2.16
4.88
2.44
-5.98
-17.57
-26.96
-28.78
-20.54
-4.58
12.60
23.67
24.61
17.30
8.17
3.81
6.54
12.94
16.34
11.70
-0.95
-16.44
-27.69
-29.81
-22.45
-9.41
3.67
11.95
13.27
8.81
2.37
-1.56
-0.23
5.47
11.13
11.41
3.76
-9.09
-20.27
-22.92
-14.77
0.22
14.28
20.70
17.80
9.46
1.86
-0.55
2.53
7.66
10.16
6.85
-2.39
-14.60
-25.01
-29.01
-24.48
-13.12
-0.21
8.01
8.04
1.72
-4.59
-4.17
5.45
20.31
32.34
34.60
25.86
11.15
-1.87
-7.95
-7.16
-3.95
-3.50
-8.31
-16.98
-25.55
-29.91
-27.68
-18.97
-6.19
6.70
15.47
17.42
13.08
6.42
2.73
5.18
12.19
17.97
16.27
5.18
-10.68
-22.74
-23.96
-13.56
2.37
14.96
18.23
12.60
3.69
-1.91
-0.98
4.85
10.81
12.31
7.38
-2.69
-14.35
-23.32
-26.24
-22.08
-12.89
-3.28
1.65
-0.51
-7.37
-12.69
-10.28
1.62
18.39
31.62
34.56
26.74
14.31
5.60
5.36
11.68
17.70
16.62
6.43
-9.02
-22.96
-30.15
-29.51
-23.78
-17.05
-12.16
-9.87
-9.46
-9.73
-9.35
-6.90
-1.32
7.18
16.35
22.31
21.85
15.10
6.13
0.73
2.44
9.56
15.76
14.26
3.16
-12.50
-23.71
-23.40
-11.49
4.75
15.48
14.96
5.26
-5.45
-8.84
-2.14
10.28
20.18
21.16
12.65
-0.25
-10.51
-13.59
-9.72
-3.03
1.49
0.79
-5.01
-13.30
-20.56
-23.92
-22.25
-16.49
-9.15
-3.24
-0.95
-2.28
-4.95
-5.75
-2.53
4.26
11.67
15.99
15.04
9.67
3.13
-0.93
-0.76
2.58
6.05
6.68
3.46
-2.20
-7.39
-9.57
-7.78
-3.11
2.26
6.21
7.63
6.71
4.52
2.36
1.16
1.15
1.75
1.90
0.52
-2.76
-7.19
-11.07
-12.53
-10.61
-5.96
-0.63
3.08
4.08
3.25
2.76
4.50
8.61
13.04
14.79
11.96
5.37
-1.70
-5.41
-3.80
1.84
7.78
10.25
7.96
2.96
-0.86
-0.45
4.25
10.20
13.22
10.75
3.47
-5.16
-11.10
-12.17
-8.99
-4.24
-0.57
0.93
1.10
1.66
3.72
7.00
10.14
11.62
10.57
6.99
1.38
-5.41
-12.16
-17.16
-18.47
-14.81
-6.77
2.85
9.98
11.44
6.81
-1.07
-7.81
-10.12
-7.88
-4.12
-2.86
-6.21
-12.78
-18.47
-19.03
-12.92
-2.48
7.30
11.50
8.22
-0.54
-10.01
-15.37
-14.30
-7.99
-0.19
5.14
5.95
3.15
-0.45
-1.87
0.04
4.00
7.17
7.03
3.19
-2.27
-5.77
-4.47
1.91
10.71
17.68
19.55
15.94
9.76
5.38
5.87
10.73
16.01
16.76
10.28
-1.45
-12.51
-16.13
-8.94
6.51
22.56
30.37
24.82
7.59
-13.36
-28.08
-29.74
-18.35
-0.49
14.40
19.21
12.83
0.16
-10.97
-14.54
-9.62
-0.61
5.64
4.02
-5.68
-18.66
-27.71
-27.01
-15.50
2.62
19.78
28.73
25.93
12.86
-4.85
-20.22
-27.91
-26.24
-17.12
-4.71
6.62
13.70
15.09
10.92
2.41
-8.34
-18.57
-25.05
-24.96
-17.28
-3.84
10.71
20.60
21.57
13.23
-0.33
-11.98
-15.09
-7.02
9.19
25.92
34.80
31.01
16.11
-2.50
-15.18
-15.18
-2.29
16.84
31.88
34.11
20.92
-2.72
-26.72
-40.80
-39.41
-24.04
-1.98
17.51
27.61
26.49
17.17
4.96
-5.49
-12.24
-15.95
-18.33
-20.24
-20.92
-18.80
-13.14
-5.31
1.55
4.23
1.74
-3.60
-6.99
-3.95
6.60
20.87
31.57
31.64
18.34
-4.41
-27.27
-39.76
-35.52
-15.66
11.53
34.46
43.80
36.84
18.41
-1.98
-15.16
-16.64
-8.33
3.30
11.02
10.71
2.99
-7.84
-16.72
-20.53
-19.28
-15.22
-10.77
-6.76
-2.20
4.25
12.35
19.21
20.31
12.22
-4.57
-24.55
-38.83
-39.34
-23.27
4.69
33.70
51.54
50.34
30.50
0.59
-26.72
-40.50
-36.30
-17.56
6.72
26.60
35.55
32.57
21.31
7.24
-5.24
-14.31
-20.26
-23.84
-24.83
-21.80
-13.56
-0.98
12.27
20.76
20.04
9.39
-6.98
-21.36
-26.10
-17.51
1.89
24.16
39.62
41.34
28.47
6.53
-15.43
-29.17
-30.81
-22.08
-8.68
3.08
9.46
10.54
8.97
7.40
6.38
4.15
-1.66
-11.47
-22.31
-28.67
-25.28
-10.53
11.83
33.54
45.56
42.25
24.41
-1.04
-24.27
-37.07
-36.24
-24.42
-8.05
6.23
14.64
17.20
16.29
14.09
10.82
4.99
-4.67
-17.02
-27.70
-30.72
-21.72
-1.14
24.75
45.87
52.71
40.94
13.89
-18.59
-44.26
-53.85
-44.77
-21.81
5.57
27.62
38.23
36.65
26.29
12.01
-2.46
-15.54
-26.93
-35.92
-40.27
-36.83
-23.61
-2.07
22.11
40.61
46.08
35.70
13.07
-13.14
-32.84
-38.98
-30.32
-11.50
9.73
26.23
34.30
34.23
28.64
20.03
9.24
-4.21
-20.43
-37.30
-49.94
-52.30
-40.19
-14.37
18.54
47.92
63.46
59.70
38.82
9.74
-15.83
-28.58
-25.60
-11.15
5.99
17.06
17.46
8.24
-5.42
-17.48
-24.04
-24.52
-20.70
-14.63
-7.03
2.57
14.29
26.18
33.90
32.46
19.27
-3.32
-27.76
-43.98
-44.03
-26.22
3.47
33.60
52.32
52.80
36.29
11.13
-11.68
-23.95
-23.77
-15.56
-6.65
-2.83
-5.34
-10.97
-14.89
-14.21
-9.86
-5.76
-5.93
-11.62
-20.03
-25.83
-24.16
-13.60
2.91
19.37
29.63
30.33
22.26
9.65
-2.24
-9.59
-11.52
-9.82
-7.37
-6.21
-6.39
-6.24
-3.80
1.53
8.33
13.60
14.36
9.35
-0.06
-10.36
-17.52
-18.87
-14.25
-5.94
2.59
8.35
10.09
8.57
5.68
3.26
2.01
1.39
0.25
-2.22
-5.63
-8.44
-8.78
-5.54
0.89
8.55
14.75
17.37
15.91
11.54
6.29
1.70
-2.07
-6.01
-11.15
-17.09
-21.25
-19.82
-9.82
8.60
31.16
50.65
59.87
54.91
37.11
12.37
-11.67
-29.03
-37.58
-38.85
-35.99
-31.23
-24.31
-13.24
3.49
24.45
44.60
56.78
55.12
38.11
10.10
-20.38
-44.18
-55.42
-53.58
-42.75
-28.81
-16.09
-5.41
5.30
18.34
33.52
46.99
52.65
45.43
24.53
-5.24
-35.01
-55.67
-61.76
-53.56
-36.24
-16.85
-0.63
11.11
20.38
29.92
40.18
48.08
48.34
36.74
13.26
-16.58
-43.71
-59.38
-59.13
-44.65
-22.53
-0.78
15.06
24.00
28.89
33.45
39.15
43.73
42.54
31.54
10.55
-15.67
-39.15
-52.40
-52.04
-40.30
-23.62
-9.08
-0.79
2.06
3.91
9.61
20.98
35.22
46.20
47.80
37.38
17.52
-5.26
-23.71
-33.47
-34.77
-31.53
-28.41
-27.57
-27.24
-22.93
-10.69
9.79
33.86
53.68
61.71
54.55
34.54
8.62
-15.18
-31.32
-38.70
-40.00
-38.98
-37.55
-34.32
-25.87
-9.55
13.66
38.36
56.42
60.76
48.76
23.95
-5.58
-30.76
-45.49
-48.60
-43.32
-34.45
-25.27
-15.91
-4.21
11.68
30.88
48.88
59.35
57.18
41.65
17.33
-7.71
-25.71
-32.77
-30.41
-24.06
-19.66
-20.16
-23.97
-26.30
-22.39
-10.68
6.04
22.08
32.05
33.83
29.70
24.64
23.10
26.02
29.94
28.77
17.40
-4.90
-33.17
-58.71
-73.21
-72.73
-59.43
-39.94
-21.63
-8.84
-1.17
5.05
13.70
25.91
39.12
48.68
50.75
44.85
34.43
25.06
21.28
23.83
28.89
29.86
20.92
0.49
-27.24
-53.98
-71.27
-74.44
-64.67
-47.75
-30.64
-17.79
-9.37
-2.33
6.69
18.61
31.16
40.31
43.06
39.62
33.66
30.36
33.30
42.17
52.43
57.35
51.38
33.28
7.27
-18.70
-36.65
-42.55
-38.21
-30.10
-25.65
-29.19
-39.73
-52.00
-59.93
-60.25
-54.21
-46.23
-40.60
-38.46
-36.88
-30.95
-17.15
4.02
27.71
47.13
56.95
56.08
48.19
39.74
36.60
41.11
51.10
61.15
65.52
61.14
49.22
34.29
21.52
13.73
9.73
5.26
-4.14
-19.91
-38.92
-54.94
-62.21
-58.98
-48.80
-38.72
-35.17
-40.18
-50.10
-57.72
-56.37
-43.62
-22.45
0.67
19.40
30.72
35.97
39.21
44.18
51.62
58.69
60.47
52.93
35.62
12.56
-9.46
-24.19
-29.07
-26.42
-21.88
-20.91
-25.51
-32.85
-37.08
-32.88
-18.70
2.10
23.12
38.30
45.05
45.21
43.36
43.55
46.61
49.36
46.40
33.37
9.92
-19.38
-46.84
-65.29
-71.39
-66.92
-57.31
-48.24
-42.46
-38.48
-32.20
-20.12
-2.21
17.29
31.83
35.94
28.26
12.45
-4.70
-16.67
-20.40
-17.31
-11.92
-8.78
-9.70
-12.84
-14.13
-10.11
-0.33
12.22
22.70
27.16
24.73
18.03
11.59
9.31
12.42
19.06
25.59
28.78
27.57
23.57
19.98
19.59
23.09
28.61
32.73
32.33
26.30
16.33
5.90
-1.42
-3.87
-2.26
0.59
1.64
-0.61
-5.06
-8.74
-8.64
-3.80
3.74
9.64
9.63
1.92
-11.41
-25.43
-34.93
-37.32
-34.05
-29.66
-28.93
-33.92
-42.54
-49.74
-50.59
-43.29
-30.48
-17.80
-10.77
-11.75
-18.74
-26.82
-31.19
-29.97
-25.04
-20.56
-20.17
-24.48
-30.49
-33.36
-29.29
-17.88
-2.51
11.47
19.64
20.83
17.54
14.13
14.13
18.11
23.47
26.26
23.70
16.23
7.48
2.35
4.24
13.16
25.60
36.49
41.76
40.39
34.61
28.42
25.05
25.32
27.30
27.91
24.98
18.94
12.81
10.55
14.68
24.80
37.36
47.50
51.34
47.95
39.66
30.67
24.63
22.80
23.50
23.34
19.48
11.63
2.52
-3.43
-2.76
4.83
15.87
24.75
26.54
19.82
7.41
-5.14
-12.80
-13.84
-10.84
-8.95
-12.62
-22.60
-35.10
-43.75
-43.43
-33.46
-18.56
-6.58
-4.40
-14.03
-31.41
-48.53
-57.89
-56.47
-47.06
-36.23
-30.18
-31.13
-36.33
-40.16
-37.90
-28.65
-15.83
-4.97
-0.48
-3.14
-9.94
-16.01
-17.46
-13.32
-5.84
1.13
4.30
2.75
-1.80
-6.05
-7.09
-3.95
1.91
7.53
10.10
8.50
3.87
-1.16
-4.01
-3.49
-0.35
3.31
5.38
4.88
2.47
-0.01
-0.64
1.54
6.01
11.07
14.82
16.10
15.16
13.36
12.39
13.22
15.51
17.79
18.29
16.06
11.61
6.66
3.25
2.57
4.36
7.20
9.38
10.06
9.75
9.94
12.09
16.45
21.72
25.51
25.71
21.75
15.25
9.23
6.57
8.24
12.77
16.91
17.70
14.34
8.92
5.18
6.13
11.88
19.15
22.80
18.75
6.51
-10.10
-24.99
-32.82
-31.89
-24.86
-17.04
-13.19
-15.09
-20.86
-26.39
-27.81
-23.65
-15.43
-6.63
-0.65
0.93
-0.96
-3.71
-4.77
-3.22
-0.28
1.42
-0.41
-6.14
-13.69
-19.51
-20.55
-16.03
-8.02
-0.26
3.89
3.30
-0.40
-4.22
-5.54
-3.59
0.27
3.50
4.04
1.51
-2.73
-6.40
-7.67
-6.22
-3.36
-1.16
-1.21
-3.58
-6.71
-8.23
-6.36
-0.97
6.20
12.33
14.90
12.91
7.33
0.47
-5.23
-8.38
-9.06
-8.44
-7.79
-7.57
-7.09
-5.02
-0.37
6.70
14.63
21.15
24.25
23.29
19.28
14.35
10.70
9.65
11.21
14.43
18.19
21.87
25.53
29.49
33.62
36.92
37.70
34.39
26.60
15.78
4.84
-3.02
-5.93
-4.43
-1.43
-0.76
-5.28
-15.20
-27.87
-39.03
-45.02
-44.65
-39.68
-33.70
-30.06
-29.97
-32.02
-33.17
-30.84
-24.49
-16.09
-9.00
-5.94
-7.21
-10.32
-11.31
-6.97
3.25
16.89
29.80
38.31
41.14
39.72
36.83
34.51
32.54
28.37
18.90
2.81
-17.78
-37.44
-49.78
-50.45
-39.54
-21.70
-4.00
7.57
10.99
8.93
6.85
9.65
18.83
31.73
43.13
48.19
44.93
34.87
21.66
8.63
-3.08
-14.71
-28.35
-44.72
-61.61
-74.13
-76.86
-66.78
-45.33
-18.31
6.37
22.22
26.91
23.07
16.21
11.52
11.01
12.70
12.19
5.63
-7.62
-24.13
-37.92
-43.48
-38.54
-25.09
-8.12
7.16
18.09
25.39
31.90
39.84
48.53
54.09
51.42
37.41
13.61
-13.65
-35.68
-45.58
-41.44
-27.18
-10.25
2.30
7.28
6.59
5.38
8.57
17.67
29.82
39.37
41.11
33.14
17.94
0.81
-13.04
-21.17
-24.72
-27.06
-30.96
-36.27
-39.41
-35.32
-20.78
2.97
29.81
51.12
59.60
52.84
34.35
11.70
-7.35
-18.34
-21.70
-21.29
-21.34
-23.51
-25.88
-24.48
-16.22
-1.41
15.89
29.66
35.14
31.24
21.14
10.19
2.85
0.12
-0.66
-3.97
-12.86
-26.52
-39.96
-46.22
-40.07
-20.93
6.27
33.16
51.48
56.71
49.60
34.98
18.67
4.49
-7.29
-18.88
-32.39
-47.25
-59.43
-63.17
-54.17
-32.48
-3.16
25.62
46.27
54.98
53.08
45.39
37.02
30.34
23.98
14.26
-1.75
-23.51
-46.12
-62.22
-65.46
-53.77
-30.62
-3.51
19.46
33.22
37.49
35.79
32.47
29.66
25.96
17.83
2.60
-18.67
-40.41
-54.70
-55.14
-40.29
-14.75
12.85
33.77
42.93
40.75
31.78
21.56
13.33
6.67
-1.30
-12.96
-27.57
-40.48
-45.25
-37.27
-16.84
10.15
34.43
47.45
45.20
29.87
8.46
-10.85
-22.46
-25.33
-22.29
-17.40
-13.05
-8.62
-1.57
10.04
25.12
39.04
45.32
38.96
19.37
-8.47
-35.83
-53.89
-57.60
-47.55
-29.15
-9.47
6.24
16.67
24.01
31.35
39.83
47.10
48.29
38.82
17.65
-11.06
-39.13
-57.76
-61.53
-50.72
-30.82
-9.40
7.56
18.26
24.66
29.99
35.61
39.46
37.04
24.47
1.70
-26.07
-50.08
-61.84
-57.13
-38.05
-11.85
12.47
28.28
33.78
31.78
27.08
23.17
20.24
15.55
5.92
-9.24
-26.43
-39.14
-41.16
-30.11
-9.20
13.94
30.82
35.95
29.34
15.79
1.96
-7.23
-10.74
-11.04
-11.62
-14.15
-17.08
-16.58
-9.28
5.08
22.62
36.66
40.72
31.82
12.19
-11.48
-30.96
-40.04
-37.07
-25.08
-9.70
3.94
13.55
19.98
25.45
30.91
34.53
32.13
19.93
-2.39
-29.85
-53.38
-63.69
-55.69
-31.19
1.64
31.94
50.76
54.49
45.48
29.62
12.91
-1.27
-12.61
-22.23
-30.28
-34.79
-32.45
-21.07
-2.00
19.31
35.02
38.45
27.40
5.70
-18.26
-35.17
-38.99
-29.38
-11.44
7.17
19.86
23.90
20.74
14.23
7.79
2.33
-3.75
-12.76
-25.12
-37.82
-45.10
-41.37
-24.58
1.88
29.95
50.19
55.89
46.08
25.77
3.33
-13.51
-20.82
-19.44
-13.37
-6.80
-1.71
2.62
8.02
15.03
21.48
23.11
16.16
0.25
-20.13
-37.01
-42.64
-33.58
-12.75
11.55
29.46
34.02
24.28
5.44
-13.92
-25.86
-26.39
-16.55
-1.05
14.44
25.84
31.76
32.73
29.64
22.41
10.17
-7.40
-28.25
-47.19
-57.30
-53.00
-33.39
-3.65
26.17
45.16
46.15
29.02
0.97
-26.61
-43.07
-42.87
-27.47
-3.86
19.05
34.43
39.85
37.00
29.48
20.22
10.21
-0.88
-12.87
-23.60
-29.07
-25.61
-12.69
5.58
21.41
26.79
17.68
-3.27
-27.28
-43.29
-43.31
-26.33
1.01
27.49
42.52
40.84
24.54
1.52
-18.57
-28.61
-26.57
-15.27
0.01
14.38
25.04
31.19
32.65
28.63
17.79
-0.27
-23.15
-44.94
-57.74
-55.18
-36.03
-5.76
24.99
44.78
46.40
30.09
3.57
-21.62
-35.24
-32.69
-16.45
5.77
25.01
35.07
34.68
26.96
16.82
8.10
2.03
-2.35
-6.37
-9.85
-10.75
-6.61
3.17
15.72
25.17
25.16
12.37
-11.02
-37.28
-56.15
-59.33
-44.39
-15.93
16.44
42.22
54.30
51.27
36.95
17.64
-1.01
-15.97
-26.72
-33.78
-36.88
-34.47
-24.84
-8.16
12.08
29.44
36.83
30.02
10.13
-15.88
-37.93
-47.16
-39.97
-19.61
5.35
25.10
32.90
27.73
14.07
-0.98
-11.30
-14.29
-11.12
-4.87
1.88
8.55
16.02
24.69
32.69
35.66
28.61
9.21
-19.71
-49.85
-70.41
-72.81
-54.94
-22.53
13.08
39.79
49.88
42.96
25.31
6.23
-6.46
-9.56
-4.81
3.29
10.53
15.13
17.56
18.82
18.54
14.42
3.74
-14.03
-35.30
-52.61
-57.79
-46.18
-19.65
13.30
40.91
53.30
46.89
25.88
0.16
-19.46
-26.01
-18.90
-3.36
12.76
22.89
24.38
18.68
9.47
0.03
-8.35
-16.26
-24.39
-31.74
-35.03
-30.25
-15.45
7.12
30.75
46.73
48.23
33.81
8.69
-17.26
-33.91
-35.23
-21.77
0.22
22.13
36.91
41.77
38.05
29.13
17.75
4.69
-10.62
-28.03
-44.86
-55.89
-55.60
-41.54
-16.69
10.75
30.45
34.62
21.83
-1.84
-25.37
-37.70
-32.75
-11.93
16.73
42.34
55.90
53.81
38.61
16.98
-3.61
-17.97
-24.47
-24.36
-19.98
-13.06
-4.46
5.04
13.59
18.13
15.66
5.38
-9.70
-23.16
-27.97
-20.24
-2.09
18.56
31.36
28.65
9.69
-18.37
-43.47
-54.41
-46.27
-22.89
5.00
25.05
29.27
17.86
-1.23
-16.60
-19.37
-7.39
13.98
35.05
46.91
45.77
34.22
19.11
7.62
3.60
6.21
11.21
13.83
11.52
4.87
-3.39
-10.54
-15.45
-18.95
-22.58
-27.05
-31.23
-32.81
-30.00
-23.19
-15.33
-10.47
-11.38
-17.48
-24.70
-27.47
-21.88
-8.24
8.70
22.02
26.29
20.58
9.21
-0.62
-2.69
4.79
18.22
30.41
34.48
27.57
12.40
-4.07
-14.42
-14.65
-6.32
4.28
9.46
4.38
-9.94
-26.99
-37.96
-36.49
-22.22
-1.31
16.58
23.40
17.09
2.80
-10.08
-12.93
-2.75
16.25
34.86
43.80
38.77
22.61
3.62
-9.04
-10.23
-1.54
9.73
14.69
8.05
-8.59
-27.49
-38.75
-35.94
-19.73
2.09
18.77
22.70
13.62
-1.19
-11.30
-9.12
5.38
24.64
37.71
36.82
22.02
1.13
-14.82
-18.20
-9.27
4.04
11.17
5.78
-10.08
-26.90
-33.56
-24.20
-2.27
21.38
34.81
32.26
17.63
1.71
-4.65
2.39
17.26
28.50
26.20
8.73
-15.86
-34.58
-37.55
-24.11
-3.33
11.74
12.32
-0.68
-17.29
-25.19
-17.69
1.85
22.17
31.24
23.82
4.63
-15.01
-24.50
-20.59
-8.97
-0.06
-1.95
-15.01
-31.83
-42.08
-39.14
-24.10
-4.70
9.68
13.77
8.96
1.55
-1.92
1.10
7.97
13.25
12.58
5.38
-5.19
-14.58
-19.45
-19.02
-14.50
-7.48
0.86
9.64
17.52
22.66
23.70
20.99
16.91
14.36
14.53
15.45
13.23
5.23
-7.09
-17.80
-19.91
-10.14
7.91
25.19
32.47
26.21
10.93
-3.86
-10.08
-6.46
0.92
3.36
-4.05
-18.74
-32.37
-36.54
-28.54
-12.86
2.08
9.38
7.54
0.38
-6.22
-8.32
-5.68
-0.81
3.28
4.84
3.63
0.54
-2.98
-5.01
-3.36
3.41
14.49
26.12
32.98
31.25
21.55
9.28
1.59
2.66
10.42
17.43
15.74
2.63
-16.91
-32.91
-36.70
-26.75
-9.76
3.76
6.32
-1.75
-12.97
-18.18
-12.91
-0.13
12.05
16.03
9.47
-3.65
-15.99
-21.54
-18.66
-10.05
-0.60
5.41
6.06
2.25
-2.89
-5.34
-2.01
7.44
19.60
28.48
28.58
18.42
2.00
-13.25
-20.85
-19.27
-12.46
-6.76
-6.33
-10.41
-14.27
-12.96
-4.97
6.88
17.31
21.82
18.88
10.33
0.14
-7.44
-9.45
-5.31
2.65
9.87
11.72
6.35
-3.54
-11.76
-12.34
-3.71
9.66
19.80
20.35
10.76
-3.41
-14.30
-16.98
-12.24
-5.40
-2.33
-5.60
-13.21
-20.18
-21.65
-15.29
-2.10
14.10
28.17
35.43
33.76
24.85
13.72
6.17
5.26
9.02
11.50
6.86
-6.08
-22.36
-33.71
-34.12
-23.96
-9.83
0.02
1.12
-4.59
-10.66
-10.94
-3.70
7.75
17.70
21.67
18.56
10.57
1.51
-5.00
-6.75
-3.44
3.01
8.94
10.54
6.16
-2.01
-8.73
-8.80
-0.89
10.93
19.43
18.90
9.11
-4.41
-14.14
-15.60
-10.03
-3.13
-0.83
-5.48
-14.61
-22.77
-24.86
-18.68
-5.69
9.89
22.83
28.93
26.77
18.50
8.89
2.72
1.88
3.91
3.66
-3.00
-15.72
-29.20
-36.24
-32.38
-18.71
-1.28
12.60
18.38
16.23
10.14
5.11
4.29
7.66
12.35
14.36
10.76
1.67
-9.34
-16.79
-16.39
-7.77
4.79
14.65
16.69
10.41
0.12
-8.05
-9.94
-5.77
0.45
3.71
1.18
-6.12
-13.94
-17.10
-12.39
-0.43
14.24
25.24
27.64
20.59
7.97
-3.86
-9.93
-9.36
-5.66
-4.05
-7.86
-16.10
-24.02
-25.91
-18.57
-3.33
14.33
27.57
31.45
25.34
13.04
0.58
-7.13
-8.69
-6.59
-5.28
-8.06
-14.72
-21.40
-22.89
-15.87
-1.24
15.80
28.36
31.38
24.24
10.97
-2.06
-9.80
-10.85
-7.75
-5.03
-6.18
-11.24
-16.73
-17.72
-10.94
2.78
18.39
29.10
29.96
20.58
5.41
-8.77
-16.50
-16.17
-10.35
-3.93
-1.04
-2.57
-5.79
-6.19
-0.61
10.24
21.63
27.31
23.12
9.62
-7.94
-22.33
-28.07
-23.93
-13.26
-1.95
4.89
5.61
2.66
0.69
3.16
9.75
16.33
17.62
10.61
-3.22
-18.23
-27.54
-26.44
-14.92
2.29
17.91
25.80
24.03
15.56
6.00
0.04
-1.15
-0.09
-0.83
-5.91
-14.48
-22.43
-24.59
-17.79
-3.07
14.19
26.75
29.26
21.06
6.40
-8.02
-16.46
-16.83
-11.26
-4.42
-0.74
-1.77
-5.22
-6.76
-3.14
5.31
14.43
18.60
14.16
1.72
-13.73
-25.23
-27.33
-18.95
-4.10
10.23
17.87
16.79
9.84
2.53
-0.37
2.41
8.18
12.05
9.98
1.45
-9.87
-18.23
-19.28
-12.78
-2.84
4.56
5.18
-0.99
-9.66
-14.53
-10.99
1.03
16.67
28.54
30.77
22.16
6.81
-8.30
-16.99
-16.91
-10.33
-2.43
1.77
0.32
-4.67
-8.83
-8.31
-2.27
6.60
13.81
15.74
11.79
4.88
-0.41
-0.83
3.50
9.04
10.87
5.81
-5.48
-18.44
-26.87
-26.32
-16.66
-2.25
10.25
15.55
12.46
4.50
-2.28
-2.85
3.93
14.56
22.94
23.86
15.92
2.46
-10.47
-17.39
-16.40
-10.06
-3.63
-1.96
-6.55
-14.67
-21.01
-20.84
-12.70
0.57
13.35
20.28
19.23
12.23
4.03
-0.85
-0.57
3.12
6.12
4.70
-1.96
-11.03
-17.79
-18.34
-11.96
-1.50
8.14
12.65
10.70
4.74
-0.75
-2.11
1.28
6.72
9.89
7.37
-1.15
-12.22
-20.50
-21.78
-15.41
-4.66
5.28
10.00
8.35
3.03
-1.02
0.10
6.70
15.19
20.20
17.74
7.59
-6.20
-17.22
-20.15
-13.74
-1.57
10.10
15.81
13.72
6.38
-0.94
-3.42
0.23
6.93
11.13
8.42
-1.66
-15.04
-25.13
-26.27
-17.14
-1.74
12.58
19.04
14.99
3.10
-10.26
-18.33
-17.35
-8.38
3.62
12.81
15.76
13.00
8.07
4.91
5.38
8.09
9.29
5.52
-3.83
-15.59
-24.23
-24.95
-16.63
-2.65
10.63
17.43
15.74
8.30
0.66
-1.97
2.38
11.57
20.49
24.01
19.90
10.22
-0.12
-6.55
-7.57
-5.49
-4.71
-8.88
-18.49
-30.12
-38.22
-38.05
-28.44
-12.78
2.43
11.08
10.63
3.54
-4.33
-7.39
-3.46
5.15
13.34
16.41
12.98
6.00
1.00
2.80
12.25
25.35
35.34
36.48
27.24
11.12
-5.33
-15.98
-18.02
-13.24
-6.75
-4.17
-8.23
-17.09
-25.50
-27.94
-21.94
-9.46
4.27
13.71
15.94
12.22
6.85
4.24
6.13
10.64
13.49
10.86
1.94
-9.94
-19.05
-20.39
-12.66
0.90
14.19
21.28
19.52
10.96
0.96
-5.09
-4.83
-0.18
4.37
4.57
-0.84
-9.09
-14.86
-13.57
-4.45
8.63
19.20
21.64
14.24
0.27
-13.56
-20.59
-17.96
-8.09
2.92
9.05
7.59
0.60
-6.42
-7.88
-1.76
8.85
17.48
18.21
9.09
-6.46
-21.30
-28.18
-23.68
-10.19
5.48
16.05
17.59
11.23
2.13
-3.64
-2.78
3.27
9.18
9.36
1.61
-11.43
-23.38
-27.58
-20.83
-5.55
11.10
21.21
20.22
9.18
-5.93
-17.37
-19.75
-12.86
-1.47
7.82
10.49
6.41
-0.49
-4.83
-3.39
2.79
8.94
9.73
2.88
-9.16
-20.24
-23.93
-17.39
-3.30
11.25
18.73
15.23
2.66
-12.22
-21.57
-20.71
-10.61
2.85
12.62
14.51
9.35
2.24
-0.89
2.83
11.22
18.34
18.28
8.85
-6.73
-21.23
-27.43
-22.18
-8.32
7.10
16.81
17.27
10.43
2.41
-0.44
4.47
14.36
22.78
23.52
14.29
-1.55
-16.62
-23.69
-19.72
-7.50
6.22
14.51
14.17
7.28
-0.30
-2.93
1.27
9.28
15.23
13.95
4.33
-9.74
-21.50
-25.09
-18.65
-5.27
8.88
17.77
18.51
12.53
4.17
-1.93
-3.33
-0.83
2.31
2.74
-0.89
-6.98
-11.89
-11.94
-5.75
4.47
13.86
17.35
12.33
0.15
-14.08
-23.90
-24.93
-17.22
-4.95
5.79
10.13
7.22
0.47
-4.90
-5.39
-1.33
3.49
4.25
-1.53
-11.64
-20.16
-21.18
-12.46
3.06
18.42
26.17
22.66
10.11
-5.06
-15.65
-17.23
-10.12
1.05
10.41
14.16
12.00
6.65
2.06
0.92
2.91
5.23
4.77
0.13
-7.32
-13.54
-14.26
-7.70
3.76
14.69
19.24
14.20
1.29
-13.22
-21.99
-20.50
-9.20
6.75
19.99
25.06
21.14
11.68
2.07
-3.33
-3.21
0.15
3.00
2.85
-0.24
-3.89
-4.89
-1.46
5.07
10.66
11.02
3.93
-9.00
-22.38
-29.60
-26.54
-13.96
2.74
16.07
20.23
14.35
2.82
-7.67
-11.87
-8.53
-0.74
6.27
8.67
6.15
1.50
-1.48
-0.63
3.17
6.39
5.42
-1.06
-11.03
-19.77
-22.35
-16.50
-4.21
9.03
16.92
15.47
5.35
-8.18
-18.17
-19.59
-11.92
0.83
12.35
17.57
15.42
8.70
2.02
-1.00
0.32
3.41
4.55
1.44
-5.35
-12.49
-15.53
-11.64
-1.57
10.34
18.39
18.19
9.23
-4.36
-15.97
-20.26
-15.92
-6.19
3.00
6.65
3.85
-1.81
-5.04
-2.22
6.25
15.93
20.87
17.40
6.38
-7.51
-17.95
-20.32
-14.06
-2.80
7.99
13.87
13.40
8.91
4.70
4.25
7.81
12.37
13.42
7.85
-3.54
-15.89
-22.93
-20.49
-8.96
6.70
19.47
23.95
19.09
8.23
-3.02
-9.77
-10.35
-6.80
-3.17
-2.88
-6.74
-12.36
-15.44
-12.59
-3.50
8.38
17.48
19.02
11.80
-0.86
-12.99
-19.19
-17.55
-10.43
-2.92
0.48
-1.61
-6.76
-10.40
-8.73
-1.06
9.63
18.37
20.89
16.12
6.83
-1.97
-5.92
-3.77
1.80
5.80
4.12
-3.77
-14.33
-21.73
-21.32
-12.46
0.99
13.02
18.66
16.74
10.51
5.29
5.12
10.45
17.88
22.04
18.92
8.44
-5.55
-17.27
-22.04
-18.86
-10.90
-3.33
-0.34
-2.96
-8.42
-11.91
-9.75
-1.62
9.33
18.12
20.53
15.75
6.67
-1.96
-6.21
-5.00
-0.90
1.58
-1.13
-9.50
-20.57
-29.31
-31.47
-26.12
-16.01
-5.98
-0.46
-0.98
-5.25
-8.75
-7.52
-0.29
10.58
20.41
24.95
22.99
16.83
10.90
9.19
12.65
18.60
22.54
20.81
12.64
1.06
-8.88
-13.07
-10.70
-4.49
0.56
0.07
-6.85
-17.05
-25.10
-26.10
-18.56
-5.54
7.11
14.05
13.17
6.73
0.03
-1.89
2.80
11.85
20.43
23.88
20.53
12.77
5.44
2.84
6.29
13.24
18.76
18.59
11.64
0.82
-8.85
-13.02
-10.66
-4.55
0.43
0.22
-6.18
-16.09
-24.71
-27.90
-24.54
-17.05
-10.15
-8.27
-12.88
-21.50
-29.04
-30.62
-24.34
-12.64
-1.02
5.28
4.24
-1.84
-7.48
-7.50
-0.21
11.73
23.06
28.70
26.88
20.24
13.71
11.65
15.42
22.43
27.64
26.80
18.81
6.28
-5.59
-12.01
-11.43
-6.26
-1.38
-1.61
-8.69
-19.81
-29.39
-32.19
-26.16
-13.79
-1.10
6.15
5.59
-0.70
-7.21
-8.38
-2.08
9.28
20.47
26.12
24.13
17.00
9.75
6.94
10.10
16.61
21.33
20.04
11.71
-0.78
-11.96
-17.09
-14.93
-8.21
-2.18
-1.77
-8.41
-19.11
-28.20
-30.24
-23.18
-9.60
4.63
13.60
14.26
8.15
0.40
-3.43
-0.50
7.83
16.92
21.55
19.23
11.50
2.81
-2.18
-1.44
3.16
7.10
6.02
-1.69
-13.50
-24.14
-28.52
-24.73
-15.04
-4.81
0.67
-0.73
-6.94
-12.85
-13.33
-6.34
5.83
18.02
24.91
24.13
17.69
10.35
6.76
8.73
14.14
18.21
16.71
8.28
-4.58
-16.69
-23.21
-22.36
-16.20
-9.47
-6.90
-10.16
-16.86
-21.91
-20.42
-10.61
4.87
20.30
29.81
30.38
23.44
13.75
6.57
4.57
6.49
8.16
5.41
-3.22
-15.21
-25.34
-28.67
-23.32
-11.53
1.37
9.99
11.82
8.38
4.07
3.50
8.31
16.29
22.69
22.83
15.03
1.86
-11.35
-19.23
-19.16
-12.90
-5.24
-1.16
-3.12
-9.55
-15.80
-17.23
-11.81
-1.21
9.79
16.26
16.01
10.50
4.04
1.11
3.28
8.46
12.27
10.42
1.66
-11.04
-22.32
-27.05
-23.03
-12.57
-0.92
6.80
7.98
4.07
-0.48
-1.52
2.59
10.01
16.18
16.88
10.93
0.65
-8.89
-12.91
-9.87
-2.07
5.77
8.71
4.93
-3.25
-11.07
-13.49
-8.27
2.38
13.41
19.55
17.82
9.70
-0.08
-6.58
-7.02
-2.58
2.29
3.16
-1.88
-10.98
-19.13
-21.37
-15.81
-4.37
7.85
15.50
16.20
11.26
4.92
1.68
3.29
7.88
11.36
9.58
1.36
-10.33
-20.19
-23.02
-16.73
-3.90
9.83
18.72
19.58
13.73
5.71
0.28
-0.10
3.18
5.83
3.89
-4.10
-15.70
-25.64
-29.04
-23.96
-12.39
0.56
9.56
12.16
9.38
5.35
4.43
8.24
14.88
19.95
18.85
10.13
-3.40
-16.25
-22.60
-19.78
-9.90
1.74
9.33
9.59
3.88
-3.17
-6.48
-3.27
4.88
13.17
16.69
12.76
2.93
-8.05
-15.14
-15.63
-10.43
-3.70
0.05
-1.22
-6.24
-10.71
-10.20
-3.13
8.44
19.59
25.00
22.26
13.07
2.09
-5.36
-6.54
-2.82
1.73
2.52
-2.70
-11.95
-20.52
-23.46
-18.21
-6.59
6.38
15.41
17.29
13.02
6.88
3.37
4.70
9.41
12.89
10.64
1.27
-12.71
-25.35
-30.79
-26.67
-15.18
-1.92
6.83
8.07
3.38
-2.46
-3.94
1.46
11.78
22.14
27.22
24.34
15.33
4.88
-2.14
-3.20
-0.05
2.81
1.15
-6.82
-18.68
-29.11
-33.09
-28.43
-16.86
-3.56
6.07
9.35
7.11
3.44
2.79
6.99
14.48
21.05
22.12
15.96
4.64
-7.02
-13.79
-13.19
-6.81
0.87
4.90
2.95
-3.23
-9.00
-9.62
-3.13
8.27
19.29
24.47
21.11
10.81
-1.44
-10.17
-12.41
-9.00
-3.92
-1.73
-4.61
-11.20
-17.28
-18.32
-12.46
-1.62
9.32
15.12
13.29
5.39
-3.88
-9.26
-8.29
-2.73
2.68
2.88
-4.16
-15.98
-26.80
-30.79
-25.39
-12.99
0.49
8.83
8.90
2.38
-5.57
-9.34
-6.10
2.71
12.49
18.21
17.55
12.05
6.21
4.69
9.57
19.06
28.47
32.93
30.26
22.23
13.51
8.86
10.33
16.02
21.29
21.61
15.32
4.68
-5.41
-10.49
-9.10
-3.60
1.12
0.64
-6.47
-17.78
-28.06
-32.48
-29.25
-20.29
-10.60
-5.23
-6.38
-12.52
-18.83
-20.35
-14.99
-4.35
6.82
13.49
13.56
8.56
3.12
1.87
6.31
14.32
21.09
22.03
15.82
4.94
-5.45
-10.59
-9.13
-3.54
1.17
0.27
-7.61
-19.96
-31.25
-35.99
-31.96
-20.81
-7.56
2.29
5.91
4.04
0.71
0.36
4.89
12.80
19.82
21.57
16.48
6.56
-3.37
-8.71
-7.87
-2.91
1.54
1.28
-4.70
-13.69
-20.39
-20.22
-12.01
1.32
14.12
21.17
20.62
14.67
8.46
6.71
10.97
18.87
25.24
25.34
17.60
4.69
-7.78
-14.45
-13.06
-5.74
2.10
5.13
0.97
-8.20
-16.94
-19.75
-14.27
-2.66
9.59
16.96
16.91
11.20
4.43
1.04
2.39
6.07
7.46
2.84
-7.84
-20.70
-29.56
-29.62
-20.13
-4.70
10.20
18.85
18.87
12.31
4.17
-0.93
-0.99
2.25
4.58
2.45
-5.16
-15.24
-22.79
-23.44
-15.80
-2.86
9.93
17.20
16.69
10.50
3.31
0.04
2.47
8.35
13.05
12.08
4.44
-7.14
-17.15
-20.70
-16.31
-6.31
4.16
10.38
10.43
6.00
1.22
-0.32
2.52
7.48
10.27
7.43
-1.74
-13.90
-23.73
-26.65
-21.22
-10.44
0.45
6.47
6.01
1.59
-2.07
-0.67
6.45
16.12
22.99
22.58
14.32
1.51
-9.98
-15.45
-13.72
-7.57
-2.14
-1.38
-6.01
-12.61
-15.94
-12.04
-0.58
14.35
26.64
31.13
26.37
15.34
3.44
-4.28
-5.97
-3.49
-0.89
-1.81
-6.92
-13.59
-17.44
-15.16
-6.80
4.01
11.79
12.36
5.34
-5.54
-14.37
-16.31
-10.21
0.75
11.10
16.17
14.69
9.37
5.03
5.43
10.97
18.33
22.40
19.31
8.76
-5.45
-17.53
-22.61
-19.28
-10.21
-0.43
5.29
5.14
0.74
-4.07
-6.01
-4.40
-1.65
-1.63
-6.89
-16.64
-26.57
-31.15
-26.72
-13.85
2.61
16.01
21.23
17.31
7.70
-1.71
-5.90
-3.25
3.93
11.04
14.00
11.52
5.89
1.25
1.10
6.03
13.17
17.78
15.85
6.66
-6.69
-18.82
-25.04
-23.76
-17.34
-10.36
-6.88
-7.87
-10.94
-12.10
-8.43
-0.48
7.99
11.94
8.32
-1.89
-13.82
-21.14
-19.71
-9.46
5.01
17.28
22.20
18.57
9.56
0.50
-3.63
-1.41
5.10
11.55
14.13
11.89
6.91
3.09
3.05
6.77
11.02
11.60
5.89
-5.19
-16.91
-23.59
-21.04
-9.53
6.42
20.10
25.83
22.14
11.76
0.57
-6.43
-7.12
-3.54
-0.12
-0.59
-5.87
-12.91
-17.14
-14.62
-5.10
7.89
18.93
23.31
20.06
11.70
3.32
-1.06
-0.24
3.31
5.20
2.06
-6.64
-17.40
-25.25
-25.76
-18.18
-5.59
6.61
13.32
12.90
7.17
0.81
-2.29
-0.72
3.25
5.38
2.42
-6.00
-16.21
-23.11
-22.27
-13.26
0.36
12.88
19.26
18.29
12.23
5.98
3.21
4.69
7.72
7.98
2.68
-7.89
-19.50
-26.92
-26.00
-16.69
-2.76
9.99
16.56
15.78
10.04
4.45
2.92
6.62
12.66
16.21
13.44
3.84
-8.76
-18.72
-20.92
-14.39
-2.29
9.53
15.83
15.00
9.16
3.17
0.79
3.03
7.10
8.57
4.26
-5.84
-17.70
-26.03
-26.44
-18.55
-5.84
6.07
12.30
11.66
6.51
1.91
1.78
7.20
15.27
21.01
20.36
12.32
0.18
-10.96
-16.24
-14.33
-7.59
-0.60
2.48
0.68
-3.82
-6.55
-4.35
3.11
12.54
18.85
18.24
9.97
-2.40
-13.65
-18.98
-17.07
-10.35
-3.40
-0.50
-2.54
-7.33
-10.21
-7.73
0.59
11.47
19.51
20.48
13.25
1.19
-10.42
-16.36
-15.05
-8.71
-1.99
0.73
-1.61
-6.77
-9.95
-7.59
0.89
12.09
20.60
22.07
15.47
4.28
-6.10
-10.57
-7.79
-0.20
7.16
9.95
7.03
0.92
-3.55
-2.68
4.30
14.05
21.38
21.91
14.87
3.54
-6.71
-11.21
-9.09
-3.16
1.40
0.62
-6.01
-15.07
-21.16
-20.17
-11.63
0.59
10.70
13.65
8.24
-2.55
-13.28
-19.05
-18.14
-12.59
-6.81
-4.59
-6.99
-11.40
-13.36
-9.27
1.24
14.75
25.71
29.34
24.35
13.60
2.52
-3.90
-3.84
0.50
4.45
3.73
-2.76
-12.15
-19.27
-19.62
-12.09
0.20
11.68
17.20
14.79
6.54
-2.79
-8.61
-9.00
-5.67
-2.58
-3.33
-8.82
-16.40
-21.49
-20.10
-11.44
1.60
13.88
20.75
20.56
15.44
9.81
7.36
9.22
12.80
13.96
9.21
-1.68
-15.38
-26.37
-29.84
-24.27
-11.97
1.69
11.68
15.28
13.83
10.99
10.62
13.99
18.95
21.37
17.57
7.15
-6.62
-18.16
-22.98
-19.78
-11.61
-3.62
-0.41
-3.25
-9.57
-14.45
-13.61
-6.02
5.63
16.13
20.88
18.18
10.33
1.84
-2.82
-2.29
1.41
3.99
1.77
-5.96
-16.07
-23.30
-23.38
-15.22
-2.28
9.82
15.80
13.97
6.68
-0.83
-3.99
-1.16
5.29
10.54
10.45
3.89
-6.10
-14.31
-15.87
-9.55
2.16
13.78
20.40
19.92
14.36
7.99
4.88
6.33
9.89
11.40
7.20
-2.91
-15.59
-25.35
-28.10
-23.04
-13.74
-5.76
-3.86
-9.17
-18.61
-26.49
-27.65
-20.49
-7.46
5.84
14.21
15.26
10.97
5.94
4.99
9.84
18.49
26.22
28.56
23.93
14.73
5.91
1.88
4.30
10.61
16.25
16.86
11.40
2.37
-5.32
-7.78
-4.12
2.47
6.79
4.32
-5.90
-20.51
-33.37
-38.62
-33.95
-21.48
-6.98
3.50
6.52
3.20
-1.99
-3.76
0.61
9.90
19.60
24.82
23.14
16.22
8.53
4.56
5.88
10.12
12.41
8.52
-2.35
-16.61
-28.16
-31.74
-25.88
-13.82
-1.64
5.06
4.23
-1.79
-7.84
-9.11
-3.93
5.33
13.89
17.29
14.07
6.53
-0.77
-3.88
-1.79
2.94
5.84
3.31
-4.88
-15.19
-22.19
-21.68
-13.26
-0.64
10.26
14.62
11.34
3.55
-3.33
-4.73
0.52
9.74
17.94
20.70
16.46
7.27
-2.52
-8.78
-9.73
-6.90
-3.92
-4.36
-9.31
-16.61
-21.87
-21.17
-13.27
-0.78
11.36
18.42
18.59
13.90
8.80
7.32
10.56
16.00
19.07
16.02
6.33
-6.77
-18.08
-23.10
-20.60
-13.22
-5.82
-3.04
-6.54
-14.40
-21.97
-24.81
-20.72
-11.24
-0.30
7.78
11.05
10.65
10.11
12.69
19.37
27.79
33.63
32.95
24.64
11.29
-2.09
-10.62
-12.21
-8.38
-3.50
-2.11
-6.43
-14.89
-23.09
-25.98
-20.97
-9.25
4.55
14.98
18.72
16.35
11.79
9.56
11.96
17.39
21.46
19.78
10.94
-2.21
-14.06
-19.37
-16.43
-8.05
0.00
2.49
-2.31
-11.50
-19.35
-20.54
-13.41
-0.74
11.66
18.29
16.81
9.23
0.32
-5.12
-5.32
-1.97
0.62
-1.29
-8.73
-18.89
-26.89
-28.28
-21.94
-10.36
1.23
8.16
8.51
4.46
0.39
0.51
5.88
14.00
19.95
19.57
11.79
-0.31
-11.40
-16.67
-14.75
-8.26
-2.34
-1.47
-6.84
-15.34
-21.61
-20.97
-12.36
0.99
13.33
19.65
18.43
12.56
7.27
7.05
12.85
21.55
27.78
27.21
19.14
7.08
-3.37
-7.73
-5.23
0.68
4.53
1.99
-7.37
-19.61
-28.64
-29.76
-22.18
-9.85
1.14
5.68
2.72
-4.29
-9.52
-8.38
-0.03
11.96
21.98
25.49
21.73
14.04
7.57
6.25
10.42
16.63
19.85
16.39
6.27
-6.58
-16.59
-19.53
-14.91
-6.26
0.88
2.18
-3.04
-11.18
-16.53
-14.64
-4.94
8.71
20.11
24.26
20.13
11.34
3.79
2.31
7.61
16.10
21.83
20.07
9.95
-4.76
-18.12
-24.86
-23.44
-16.28
-8.51
-4.66
-6.48
-11.75
-16.07
-15.24
-8.10
3.05
13.23
17.94
15.31
7.53
-0.88
-5.34
-4.43
-0.14
2.72
0.13
-8.95
-21.19
-30.99
-33.24
-26.70
-14.27
-1.92
5.19
5.13
0.51
-3.70
-2.98
3.62
13.31
20.83
22.03
16.02
6.00
-2.86
-6.35
-3.84
1.61
5.02
2.67
-5.49
-15.53
-21.75
-19.89
-9.77
4.57
17.02
22.65
20.28
12.91
5.80
3.29
6.41
12.35
16.26
13.97
4.57
-8.87
-20.81
-26.16
-23.04
-13.66
-3.16
3.51
4.25
1.02
-1.72
0.10
7.31
16.88
23.57
23.08
14.74
2.01
-9.50
-14.99
-13.08
-6.43
0.02
1.89
-2.11
-9.55
-15.59
-16.05
-9.54
1.24
11.48
16.57
15.02
8.96
2.94
0.85
3.70
8.83
11.74
8.67
-0.88
-13.58
-24.16
-27.91
-23.60
-13.62
-3.06
3.63
4.58
1.90
-0.36
1.63
8.52
17.72
24.34
24.43
17.28
5.77
-4.99
-10.96
-11.07
-8.06
-6.10
-8.58
-15.40
-23.21
-26.91
-22.92
-11.04
4.78
18.80
25.99
24.78
17.79
9.85
5.53
6.22
9.93
12.25
9.75
1.65
-8.98
-17.29
-19.16
-13.80
-4.20
4.40
7.23
3.09
-5.46
-12.96
-14.66
-8.71
2.30
13.29
19.20
17.90
11.31
3.77
-0.42
0.16
3.48
5.28
2.07
-6.74
-17.99
-26.58
-28.31
-22.27
-11.46
-1.02
4.47
3.66
-0.98
-4.66
-3.12
4.79
16.36
26.44
30.30
26.16
16.28
5.51
-1.48
-2.73
-0.00
2.62
1.25
-5.17
-14.25
-21.37
-22.59
-16.95
-7.13
1.99
6.29
4.51
-0.92
-5.74
-6.31
-1.97
4.52
8.75
6.95
-1.21
-12.63
-21.90
-24.56
-19.24
-8.65
2.13
8.48
8.48
4.33
0.24
0.49
6.19
15.20
22.88
25.04
20.45
11.17
1.90
-3.40
-2.98
0.99
4.40
3.25
-3.79
-14.04
-22.74
-24.88
-18.96
-7.08
5.23
12.68
12.92
7.63
1.85
0.15
4.67
12.98
20.31
21.81
15.82
5.06
-5.37
-10.27
-8.11
-1.14
5.24
6.28
0.50
-9.35
-17.45
-18.68
-11.01
2.66
16.62
25.02
25.19
19.00
11.12
6.51
6.97
10.73
13.26
10.49
1.32
-11.56
-22.85
-27.89
-24.95
-16.35
-6.99
-1.58
-2.11
-6.62
-10.84
-10.76
-5.10
3.78
11.27
13.10
7.96
-1.77
-11.37
-16.40
-15.14
-9.59
-4.16
-2.89
-6.99
-13.91
-18.71
-16.94
-7.44
6.85
20.21
27.23
25.60
17.35
7.53
1.26
0.93
4.95
9.06
9.01
3.27
-5.96
-14.00
-16.42
-11.67
-1.96
7.85
12.97
11.31
4.60
-2.80
-6.53
-4.78
0.66
5.50
5.59
-0.40
-9.97
-17.87
-18.98
-11.27
2.76
17.31
26.21
26.01
17.87
6.36
-3.02
-7.10
-6.45
-4.60
-5.60
-11.10
-19.26
-25.55
-25.51
-17.45
-3.59
10.84
20.31
21.77
16.28
8.18
2.72
2.97
8.05
13.89
15.59
10.63
0.39
-10.28
-16.02
-13.90
-5.32
5.01
11.78
11.96
6.75
0.26
-3.00
-1.14
4.07
8.30
7.23
-0.48
-12.59
-24.16
-30.29
-28.71
-20.82
-10.92
-3.55
-1.32
-3.38
-6.27
-6.07
-0.75
8.34
17.20
21.15
17.70
7.98
-3.47
-11.11
-11.31
-4.41
5.54
13.08
14.49
9.96
3.22
-0.71
1.04
7.62
14.72
17.10
11.85
0.15
-13.14
-22.17
-23.25
-16.77
-6.95
0.78
2.70
-0.87
-6.01
-7.46
-1.90
9.87
23.08
31.62
31.47
23.00
10.88
1.20
-1.94
1.06
5.83
6.68
0.18
-12.40
-25.78
-33.45
-31.59
-21.22
-7.65
2.31
4.32
-1.31
-9.98
-15.57
-14.01
-5.62
5.29
12.98
13.60
7.40
-1.64
-8.08
-8.44
-2.87
4.59
8.81
6.51
-1.64
-10.93
-15.61
-11.78
-0.23
14.16
24.88
27.20
21.03
10.31
0.92
-2.96
-1.16
2.93
4.34
0.11
-8.92
-18.49
-23.17
-19.84
-9.14
4.34
14.86
18.58
15.42
9.24
5.05
6.15
12.00
18.33
19.95
13.54
0.17
-15.02
-25.65
-27.20
-19.91
-8.09
1.77
4.87
0.81
-6.88
-12.43
-11.74
-4.40
5.95
13.94
15.83
11.34
4.16
-0.56
0.70
7.82
16.67
21.85
19.36
9.12
-4.67
-16.32
-21.27
-18.95
-12.75
-8.00
-8.77
-15.12
-23.32
-27.73
-24.20
-12.66
3.08
17.07
24.71
24.97
20.56
16.25
15.62
19.38
24.60
26.94
23.19
13.19
0.39
-10.48
-15.66
-14.81
-11.06
-9.21
-12.78
-21.70
-32.08
-38.37
-36.50
-26.35
-12.14
-0.17
4.47
0.79
-7.63
-14.69
-15.13
-7.60
4.76
16.05
21.07
18.28
10.58
3.77
2.78
9.04
19.43
28.22
30.46
24.79
14.43
4.99
1.25
4.40
11.49
17.20
17.08
10.22
-0.29
-9.23
-12.25
-8.38
-0.74
5.33
5.22
-2.16
-13.64
-23.48
-26.51
-21.29
-10.90
-1.36
1.92
-2.78
-12.45
-21.05
-23.23
-17.35
-6.50
3.35
6.89
2.65
-6.11
-13.40
-14.02
-6.61
5.48
16.25
20.48
16.92
8.88
2.28
2.15
9.56
21.20
31.12
34.35
29.59
19.70
10.06
4.96
5.45
8.65
9.69
4.85
-6.19
-19.62
-29.69
-31.76
-24.88
-12.53
-0.52
5.89
5.08
-0.19
-4.79
-4.18
2.49
12.09
18.86
18.03
8.71
-5.77
-19.18
-26.15
-24.73
-17.45
-9.55
-5.78
-7.87
-13.22
-16.73
-13.93
-3.64
10.73
23.22
28.16
23.47
11.94
-0.73
-8.68
-9.46
-4.86
0.27
1.15
-3.67
-11.81
-18.03
-17.69
-9.58
3.42
15.56
21.64
19.58
11.53
2.64
-2.29
-1.15
3.89
8.14
7.28
-0.04
-10.72
-19.30
-20.73
-13.56
-0.97
11.25
17.47
15.61
8.24
0.47
-2.81
-0.32
5.31
8.95
6.17
-3.57
-16.93
-27.81
-30.89
-24.42
-10.95
3.86
14.59
18.70
17.36
14.61
14.11
17.09
21.22
22.21
16.57
3.74
-12.58
-26.20
-31.65
-26.95
-15.15
-2.42
4.94
3.96
-3.27
-11.39
-14.59
-10.31
-0.51
9.62
14.64
12.63
6.07
0.32
0.41
7.51
18.58
27.57
29.15
21.85
8.45
-5.03
-13.10
-13.57
-8.61
-3.50
-3.05
-9.07
-19.01
-27.30
-28.86
-21.67
-8.51
4.75
12.18
10.95
3.30
-4.99
-7.82
-2.15
10.01
23.19
31.21
30.81
23.43
13.73
6.92
5.33
7.25
8.14
3.52
-7.63
-21.98
-33.47
-36.68
-30.14
-17.24
-4.42
2.39
1.13
-5.30
-11.05
-10.72
-2.63
9.99
21.15
25.30
20.48
9.59
-1.74
-8.22
-7.79
-2.71
2.33
2.99
-2.03
-9.81
-15.37
-14.18
-5.19
8.39
20.82
26.56
23.26
13.26
1.69
-5.95
-6.94
-2.69
2.63
4.27
-0.02
-8.28
-15.92
-17.88
-11.86
0.16
13.07
20.90
20.21
12.18
1.29
-6.86
-8.92
-5.63
-0.73
1.15
-2.20
-8.78
-13.90
-12.83
-4.02
9.30
20.89
24.62
18.02
4.16
-10.35
-18.81
-18.10
-10.52
-1.85
2.01
-1.44
-9.58
-16.61
-17.19
-9.54
3.16
14.93
20.38
17.56
9.14
0.40
-4.18
-3.30
0.31
2.05
-1.64
-11.11
-22.83
-31.28
-32.20
-24.69
-12.07
-0.02
6.43
5.42
-0.58
-6.16
-6.19
1.40
14.23
26.65
32.96
30.44
20.76
9.22
1.43
0.14
3.80
7.49
6.24
-1.77
-13.81
-23.94
-26.38
-18.94
-4.42
10.89
20.67
21.90
16.41
9.29
5.60
7.45
12.58
16.05
13.38
3.39
-10.73
-22.84
-27.46
-22.47
-10.44
2.63
10.79
11.24
5.70
-0.78
-3.20
0.18
6.97
11.89
10.18
0.76
-12.90
-24.48
-28.11
-21.80
-8.36
6.12
15.33
16.22
10.39
2.78
-1.18
0.95
7.16
12.35
11.38
2.49
-11.13
-23.10
-27.29
-21.23
-7.78
6.78
16.16
17.38
12.36
6.30
4.18
7.96
15.09
20.13
18.23
7.96
-7.37
-21.15
-27.28
-23.40
-11.82
1.32
9.82
10.78
5.48
-1.52
-5.32
-4.06
0.54
4.34
3.26
-3.54
-12.82
-19.38
-18.46
-8.90
5.58
18.55
23.73
18.24
4.76
-10.13
-19.57
-19.38
-10.66
1.25
10.28
12.56
8.27
1.56
-2.71
-2.06
2.60
7.02
6.63
-0.04
-10.42
-19.02
-20.16
-11.89
2.71
17.25
24.83
21.85
10.42
-3.41
-12.79
-13.46
-6.38
3.47
10.38
10.81
5.45
-1.27
-4.61
-2.34
4.00
9.48
9.07
1.08
-11.77
-23.33
-27.13
-20.42
-5.56
11.15
22.47
24.20
17.49
7.39
-0.02
-1.20
2.59
6.57
5.79
-1.81
-13.65
-23.56
-25.58
-17.29
-1.41
15.26
25.39
25.09
15.61
2.67
-6.95
-9.15
-4.53
2.35
5.80
2.62
-5.75
-14.26
-17.18
-11.69
0.41
13.61
21.86
21.81
14.76
5.39
-1.13
-2.09
1.09
3.94
1.91
-6.72
-19.46
-30.57
-34.26
-27.99
-13.85
2.30
13.80
16.71
11.82
3.93
-1.09
0.18
6.59
13.24
14.48
7.55
-5.52
-18.90
-26.14
-23.90
-13.62
-0.74
8.41
10.01
5.07
-1.67
-4.52
-0.16
10.18
21.51
27.91
25.68
15.47
2.21
-7.84
-10.56
-6.12
0.87
4.18
0.00
-10.70
-22.58
-28.64
-24.52
-11.11
6.09
19.66
24.38
20.25
11.82
5.19
4.35
8.66
13.38
13.01
4.72
-9.48
-23.43
-30.19
-26.03
-12.51
4.20
16.71
20.55
16.28
8.78
3.84
4.46
9.21
13.33
11.76
2.56
-11.65
-25.01
-31.38
-27.71
-15.64
-0.55
11.26
15.63
12.64
6.09
1.15
1.46
6.95
13.74
16.51
11.69
-0.20
-14.43
-24.47
-25.80
-18.21
-5.96
4.73
9.19
6.96
1.61
-1.67
0.68
7.99
15.75
18.33
12.42
-0.68
-15.35
-24.82
-25.01
-16.53
-4.60
4.10
5.29
-0.41
-8.07
-11.28
-6.13
5.98
19.43
27.42
25.78
15.50
2.16
-7.70
-10.08
-5.44
1.49
5.11
2.30
-5.75
-14.38
-17.87
-13.16
-1.65
11.86
21.38
23.08
17.28
8.05
0.64
-1.16
2.66
8.14
10.00
4.70
-7.29
-21.34
-30.95
-31.69
-23.49
-10.62
0.44
4.87
2.18
-3.82
-7.55
-4.73
4.72
16.59
25.02
25.69
18.30
6.74
-3.21
-7.44
-5.41
-0.50
2.07
-1.32
-10.21
-20.25
-25.54
-21.85
-9.76
5.66
17.65
21.38
16.68
8.16
2.11
2.54
9.25
17.77
22.08
18.36
7.35
-6.33
-16.59
-19.24
-14.61
-6.99
-2.01
-3.56
-11.31
-20.56
-25.13
-21.08
-8.58
7.56
20.39
24.83
20.50
11.41
3.65
1.78
5.64
10.82
11.64
4.55
-9.25
-23.84
-32.03
-29.51
-16.81
0.63
15.34
21.95
19.80
12.43
5.44
3.17
5.89
10.16
11.21
5.63
-6.18
-19.76
-29.07
-30.06
-22.43
-10.26
0.17
4.03
0.76
-5.88
-9.94
-7.04
2.88
15.37
24.11
24.78
17.44
6.69
-0.86
-0.71
7.17
18.33
25.95
24.76
14.15
-1.87
-16.47
-23.69
-21.82
-14.04
-6.57
-5.11
-11.44
-22.43
-31.97
-34.68
-29.17
-18.75
-9.43
-6.14
-9.57
-15.90
-19.22
-15.15
-3.57
11.28
23.32
28.04
24.91
17.54
11.44
10.60
15.67
23.49
28.94
28.15
20.81
10.13
1.38
-1.15
3.20
11.25
17.68
18.08
11.66
1.75
-6.16
-7.51
-1.47
8.87
18.00
21.17
17.12
8.67
0.74
-2.11
1.27
7.87
12.71
11.56
3.47
-8.11
-17.52
-20.59
-16.82
-9.86
-5.67
-8.63
-18.67
-31.37
-40.40
-40.79
-32.06
-18.71
-7.39
-3.43
-8.21
-18.18
-26.98
-29.25
-23.45
-12.39
-1.98
2.49
-0.38
-7.31
-12.52
-10.63
-0.39
14.29
26.85
31.71
27.33
17.34
8.34
5.68
10.57
19.59
26.49
26.34
18.44
6.73
-2.54
-4.20
2.72
14.42
24.74
28.52
24.29
15.06
6.42
3.08
6.38
13.78
20.12
20.88
14.88
4.93
-4.03
-7.49
-4.44
1.75
5.65
2.95
-6.90
-19.79
-29.30
-30.81
-24.10
-13.50
-5.84
-6.16
-14.56
-26.39
-34.75
-34.23
-24.13
-8.88
4.70
10.88
8.01
-0.64
-8.74
-10.76
-4.82
6.54
17.71
23.39
21.85
15.75
10.15
9.40
14.39
21.70
25.81
22.71
12.39
-0.95
-11.19
-13.93
-9.44
-2.31
1.16
-3.38
-15.46
-29.58
-38.53
-37.36
-26.18
-10.24
2.97
8.07
4.69
-2.75
-7.64
-5.08
5.30
19.25
30.50
34.10
29.00
18.52
8.36
3.09
3.76
7.51
9.27
4.84
-6.09
-19.61
-29.87
-32.29
-26.27
-15.90
-7.42
-5.47
-10.41
-18.01
-21.93
-17.46
-4.66
11.64
24.55
28.87
24.11
14.79
7.59
7.34
14.33
24.28
31.02
30.26
22.08
10.61
1.38
-2.05
0.01
3.72
4.24
-1.40
-12.47
-24.75
-32.99
-33.73
-27.25
-17.66
-10.78
-10.81
-17.77
-27.38
-33.27
-30.60
-19.19
-3.80
8.66
13.02
8.85
0.74
-4.51
-2.14
7.78
20.73
30.34
32.14
26.22
17.16
11.09
12.03
19.93
30.25
36.58
34.38
23.70
9.07
-2.88
-6.92
-2.43
6.20
12.45
11.58
3.23
-8.38
-16.97
-18.36
-13.12
-5.84
-2.08
-5.20
-14.08
-23.76
-28.65
-26.07
-17.60
-8.00
-2.79
-5.11
-13.87
-24.33
-30.84
-29.68
-20.63
-7.44
3.97
8.94
6.56
-0.08
-5.50
-4.74
3.51
15.79
26.06
29.35
24.43
14.73
6.45
4.70
10.10
18.60
24.26
22.70
13.83
2.06
-6.45
-7.87
-3.00
3.54
6.04
1.00
-10.56
-23.44
-31.42
-30.89
-22.66
-11.36
-3.13
-2.19
-8.22
-16.69
-21.57
-18.58
-7.32
8.07
21.05
26.48
23.40
15.28
8.06
6.82
12.76
22.20
28.98
28.19
19.18
5.95
-4.90
-8.21
-3.59
4.10
7.93
3.09
-9.99
-25.53
-35.59
-34.80
-23.82
-8.86
2.02
3.46
-4.02
-14.41
-19.97
-16.13
-4.11
10.04
19.18
19.33
11.99
2.92
-1.65
1.01
8.67
15.63
16.36
8.76
-4.32
-16.78
-22.82
-20.17
-11.10
-1.01
4.76
3.80
-1.97
-7.69
-8.55
-2.44
8.83
20.58
27.92
28.32
23.00
15.91
11.40
11.83
16.22
20.99
21.91
16.57
5.69
-7.18
-17.42
-21.69
-19.80
-14.71
-10.85
-11.73
-17.78
-25.86
-30.83
-28.55
-18.45
-3.91
9.36
16.25
15.23
9.07
3.10
1.77
5.96
12.64
16.65
13.65
3.13
-10.96
-22.30
-25.80
-20.16
-8.45
3.49
10.29
10.10
5.46
1.48
2.55
9.83
20.57
29.51
32.08
27.10
17.57
8.71
4.69
6.27
10.29
11.47
5.62
-7.48
-23.51
-35.82
-39.16
-32.50
-19.60
-7.08
-0.76
-2.24
-8.12
-12.34
-10.19
-1.00
11.33
20.38
21.06
12.70
-0.43
-11.86
-16.83
-14.63
-8.81
-5.01
-7.42
-15.96
-26.13
-31.70
-28.44
-16.30
0.41
15.12
22.52
21.44
15.30
9.71
9.01
13.95
21.46
26.29
24.27
14.92
1.93
-9.06
-13.79
-11.59
-5.65
-1.28
-2.75
-10.53
-20.72
-27.29
-25.70
-15.45
-0.43
13.00
19.43
17.51
10.75
5.18
5.66
13.05
23.95
32.57
33.90
26.72
14.38
2.70
-3.46
-2.94
1.56
4.99
2.99
-5.38
-16.86
-25.86
-27.99
-22.67
-13.46
-6.03
-5.02
-11.21
-20.83
-27.77
-27.43
-19.49
-8.08
0.80
2.68
-2.68
-11.14
-16.61
-14.69
-5.49
6.67
16.04
18.68
14.62
7.72
3.37
5.16
12.68
21.91
27.97
27.98
22.66
15.78
11.88
13.47
19.33
25.15
26.42
21.14
11.12
0.86
-5.07
-4.70
-0.05
3.87
2.08
-7.19
-21.20
-34.03
-39.74
-35.66
-24.00
-10.98
-3.52
-5.24
-14.31
-24.54
-28.81
-23.11
-8.78
8.01
19.71
21.60
14.60
4.50
-1.56
0.79
10.79
22.96
30.24
27.98
16.81
2.24
-8.59
-10.91
-4.85
4.78
11.08
8.88
-2.18
-17.29
-29.13
-32.15
-25.54
-13.51
-2.75
1.31
-2.28
-9.54
-14.01
-10.90
0.02
14.24
25.45
29.10
25.00
17.21
11.32
10.94
15.29
19.68
18.46
8.69
-7.69
-24.44
-34.18
-32.39
-19.98
-2.94
10.85
15.68
11.04
1.48
-6.20
-6.98
-0.52
8.86
14.84
12.79
2.66
-11.12
-22.05
-25.19
-19.74
-9.41
0.26
5.17
4.99
2.98
3.37
8.30
16.18
22.21
21.25
11.28
-4.83
-20.43
-28.56
-25.87
-14.33
-0.19
9.34
10.04
3.01
-6.15
-10.63
-6.40
5.36
19.16
28.12
27.73
18.40
4.99
-6.01
-10.16
-7.35
-1.72
1.18
-2.35
-11.74
-22.33
-28.09
-25.08
-13.90
0.43
11.31
14.45
10.27
3.52
0.16
3.41
11.76
19.51
20.10
10.11
-8.23
-27.77
-40.13
-40.15
-28.68
-11.80
2.39
8.05
4.52
-3.69
-9.65
-8.09
1.67
15.58
27.59
33.02
31.22
25.44
20.52
19.77
23.05
26.86
26.94
21.13
10.92
0.71
-4.85
-3.81
1.82
6.91
6.12
-2.82
-17.45
-31.65
-38.85
-35.75
-24.30
-10.84
-2.79
-4.66
-15.38
-28.87
-37.32
-35.63
-24.22
-8.63
3.78
8.00
4.18
-2.76
-6.22
-2.00
9.19
22.08
30.26
30.01
22.61
13.42
8.55
11.12
19.43
27.69
29.34
21.04
4.91
-12.37
-23.29
-23.70
-15.05
-3.31
4.22
2.91
-6.66
-19.08
-27.13
-25.83
-15.31
-0.46
12.19
18.16
17.36
13.46
11.21
13.32
18.63
22.64
20.50
10.34
-4.95
-18.90
-25.16
-21.13
-9.62
2.56
8.13
3.23
-10.28
-25.71
-35.01
-33.09
-20.68
-3.63
10.51
16.57
14.45
8.60
4.93
7.23
14.87
23.14
26.36
21.45
10.16
-1.93
-8.73
-7.39
0.07
7.95
10.06
3.23
-10.64
-25.45
-34.11
-32.29
-20.98
-5.74
6.59
11.81
10.45
6.87
6.09
10.48
18.16
24.02
22.74
12.11
-5.04
-21.99
-31.54
-29.95
-18.89
-4.47
6.29
9.03
4.31
-3.12
-7.11
-3.73
6.26
17.81
24.52
22.59
13.42
2.68
-3.24
-1.09
7.33
16.24
19.23
12.81
-1.49
-17.79
-29.02
-30.73
-23.56
-12.61
-4.16
-1.73
-4.06
-6.39
-3.74
5.60
18.64
29.10
30.82
21.32
3.74
-14.53
-25.69
-25.62
-15.97
-2.92
6.58
8.66
4.37
-1.41
-3.17
1.81
11.70
20.96
23.37
15.77
0.31
-16.45
-27.20
-27.76
-19.21
-6.93
2.78
6.18
3.89
0.06
-0.48
4.54
13.13
20.01
19.76
10.33
-5.06
-19.59
-26.57
-23.16
-11.88
0.92
8.66
8.01
0.63
-7.87
-11.16
-6.02
5.76
18.16
24.33
20.65
9.02
-4.40
-12.81
-12.65
-5.54
2.84
6.32
1.80
-8.89
-20.04
-25.38
-21.69
-10.58
2.44
11.16
12.20
7.13
1.29
0.62
7.84
20.49
31.97
35.38
27.57
11.25
-6.52
-18.30
-20.53
-15.15
-8.01
-5.18
-9.47
-18.85
-27.89
-30.84
-24.87
-11.56
3.68
14.61
17.65
14.07
9.19
8.90
15.67
26.50
34.56
33.48
21.35
2.19
-16.47
-27.79
-29.02
-22.37
-13.13
-6.68
-5.95
-10.12
-15.28
-16.37
-10.04
3.16
18.36
28.75
29.47
21.00
9.18
1.56
2.34
9.51
16.18
15.33
4.68
-11.66
-25.99
-31.77
-27.18
-15.51
-2.64
6.30
9.04
6.47
1.57
-2.17
-2.36
0.99
5.12
5.70
-0.49
-12.59
-24.86
-29.36
-20.96
-1.28
21.24
36.05
36.92
25.98
11.91
3.90
5.50
12.67
17.15
12.57
-1.05
-17.54
-28.93
-30.47
-22.88
-11.05
-0.65
4.98
5.42
2.33
-1.95
-5.27
-6.09
-4.05
-0.49
1.57
-1.09
-9.19
-19.33
-25.20
-21.33
-7.14
11.68
26.18
29.79
22.92
12.65
7.69
12.20
22.69
30.36
27.27
11.87
-9.72
-27.80
-35.00
-30.18
-18.10
-5.76
1.86
3.62
1.48
-1.70
-3.87
-4.30
-3.43
-2.47
-3.16
-7.19
-14.65
-22.84
-26.64
-21.19
-5.38
16.03
34.01
40.06
31.80
14.86
-0.46
-5.68
0.45
11.40
17.83
14.37
3.61
-5.98
-6.41
3.98
18.98
28.56
25.51
9.96
-10.94
-27.78
-34.25
-29.93
-19.29
-8.24
-0.92
1.53
0.43
-1.72
-2.51
-0.64
3.37
6.94
6.47
-0.53
-12.80
-24.94
-29.95
-23.61
-7.75
10.10
21.07
20.48
10.86
-0.04
-4.55
0.05
10.24
19.12
21.13
15.05
4.00
-7.23
-14.95
-17.81
-16.63
-13.48
-10.83
-10.86
-14.36
-19.63
-22.49
-18.31
-5.21
13.68
30.95
38.92
34.92
23.39
13.24
12.04
20.64
32.49
38.20
32.11
16.51
-0.09
-8.90
-6.87
1.47
7.38
4.02
-9.17
-26.55
-40.34
-45.43
-41.68
-33.06
-24.53
-19.42
-18.49
-20.54
-23.47
-24.77
-22.12
-14.26
-2.11
10.80
19.56
20.84
15.57
9.03
7.74
14.89
27.43
37.29
36.39
22.60
1.84
-15.11
-19.57
-10.72
3.53
11.69
6.47
-9.99
-27.48
-34.43
-25.53
-5.29
15.05
24.66
19.72
5.17
-9.25
-15.16
-10.08
2.08
14.31
20.83
19.61
12.71
4.63
-0.03
1.45
8.63
18.06
24.67
24.54
17.58
8.10
2.51
5.06
14.68
25.08
28.69
21.62
6.42
-9.65
-19.46
-20.37
-15.44
-10.74
-11.20
-17.85
-27.82
-36.61
-40.60
-38.47
-31.42
-22.47
-15.34
-13.08
-16.23
-21.75
-23.89
-17.43
-1.32
19.53
36.26
41.35
33.80
20.30
11.00
12.78
24.49
37.58
41.98
33.09
15.11
-1.98
-9.34
-5.17
4.36
9.48
3.70
-12.05
-30.22
-41.86
-42.02
-32.17
-18.34
-6.85
-0.78
0.73
0.54
0.99
2.64
4.67
6.17
6.74
6.16
3.64
-1.78
-10.07
-18.98
-24.54
-23.31
-15.16
-4.31
2.65
1.23
-7.37
-16.37
-17.49
-6.74
12.32
30.21
37.49
31.14
16.81
5.12
4.43
15.03
28.63
33.82
23.93
2.14
-20.07
-29.99
-21.74
-0.05
22.69
34.21
29.87
15.16
1.48
-1.68
7.01
19.98
26.00
17.77
-3.05
-26.71
-41.36
-40.23
-25.37
-5.91
7.91
10.78
4.72
-3.19
-6.01
-1.45
7.00
12.86
11.08
1.11
-12.96
-25.10
-30.73
-28.93
-22.11
-13.87
-6.82
-1.46
3.19
8.20
13.47
17.40
17.94
13.94
5.98
-3.81
-12.84
-19.33
-23.01
-24.82
-25.90
-26.61
-26.35
-24.29
-20.51
-16.28
-13.36
-12.67
-13.24
-12.64
-8.79
-1.86
5.24
8.74
6.84
1.65
-1.57
2.09
13.41
27.65
37.08
36.15
25.67
12.97
7.30
13.63
28.94
43.72
48.16
38.89
21.56
7.34
5.62
17.62
35.35
46.67
43.03
25.12
2.38
-13.11
-14.41
-4.05
7.71
9.55
-3.46
-26.54
-47.84
-55.64
-45.52
-23.10
-0.78
9.60
3.67
-12.97
-28.30
-31.27
-18.47
3.89
23.89
31.26
23.56
7.63
-4.80
-4.57
9.07
27.92
39.81
36.06
16.80
-8.99
-28.71
-33.61
-23.79
-7.81
2.72
0.18
-14.49
-32.49
-42.55
-37.82
-20.03
1.74
16.53
18.06
8.23
-4.32
-9.81
-3.41
11.87
27.34
34.13
28.65
14.49
-0.06
-7.29
-4.75
3.52
9.90
8.04
-3.27
-19.51
-33.19
-38.20
-33.16
-21.74
-10.10
-3.18
-2.07
-3.96
-4.32
0.01
8.73
18.36
24.48
24.43
18.85
11.13
5.27
3.50
4.92
6.39
4.59
-1.82
-11.35
-20.60
-26.05
-26.06
-21.58
-15.43
-10.53
-8.45
-8.72
-9.44
-8.51
-4.88
0.94
7.38
12.83
16.46
18.45
19.45
20.12
20.48
19.97
17.93
14.07
8.61
2.14
-4.77
-11.53
-17.47
-21.91
-24.11
-23.62
-20.65
-16.13
-11.30
-6.99
-3.31
0.06
3.50
6.96
9.90
11.75
12.44
12.61
13.18
14.46
15.81
15.92
13.67
8.98
3.04
-2.19
-5.21
-5.99
-6.13
-7.87
-12.71
-20.33
-28.47
-33.88
-34.12
-29.09
-21.35
-14.71
-12.11
-13.74
-16.64
-16.17
-8.84
5.08
21.09
32.43
33.87
24.88
10.53
-0.72
-1.54
9.91
28.39
43.80
46.43
32.20
5.38
-23.01
-40.33
-38.63
-18.89
9.27
32.07
38.40
25.22
-0.89
-27.03
-40.40
-34.50
-11.99
17.00
40.18
48.91
41.87
24.70
6.31
-5.83
-8.93
-5.22
0.33
3.18
1.54
-3.36
-8.92
-13.23
-16.43
-20.23
-26.17
-33.71
-39.43
-38.47
-27.28
-6.53
18.10
37.76
44.51
35.48
14.80
-8.06
-22.79
-23.08
-9.59
10.65
27.93
34.53
28.20
12.38
-6.29
-21.58
-30.26
-32.51
-30.39
-25.52
-17.79
-5.88
10.60
29.07
43.64
47.26
35.43
9.38
-23.05
-50.21
-61.44
-52.03
-25.34
8.61
37.71
52.98
51.93
38.52
20.13
3.57
-7.66
-13.62
-16.24
-16.82
-14.71
-8.12
3.74
18.53
30.71
33.63
23.14
0.47
-27.19
-49.40
-57.06
-46.71
-22.27
6.66
29.14
37.75
31.53
15.55
-2.31
-15.39
-21.02
-20.57
-17.33
-13.66
-9.27
-1.74
11.02
28.10
44.62
53.27
47.82
26.77
-4.97
-37.69
-60.93
-67.98
-58.57
-38.33
-15.46
3.43
16.11
24.56
32.24
40.66
47.59
48.21
38.26
17.50
-8.96
-32.36
-44.29
-40.82
-24.45
-2.85
14.88
22.56
19.45
9.71
-0.59
-7.12
-9.26
-9.54
-11.14
-15.03
-18.73
-17.58
-7.66
11.13
33.96
52.63
59.21
49.92
27.15
-1.60
-27.21
-42.98
-47.26
-43.13
-35.74
-28.93
-23.05
-15.39
-2.76
15.33
35.23
50.13
53.39
42.15
19.26
-7.83
-30.52
-43.08
-44.88
-39.79
-33.26
-28.80
-25.95
-21.04
-10.05
8.09
30.00
48.88
57.84
53.46
37.73
16.96
-1.42
-12.62
-16.40
-16.39
-17.11
-20.76
-25.45
-26.35
-18.76
-1.55
21.31
42.08
52.71
48.86
31.92
8.26
-14.11
-29.33
-35.98
-36.70
-35.53
-34.89
-33.69
-28.19
-14.64
7.50
34.12
57.56
70.05
67.32
50.75
26.66
3.06
-14.17
-23.55
-27.76
-31.10
-36.35
-42.68
-46.13
-42.22
-28.98
-8.82
12.25
27.31
32.00
26.75
16.38
7.20
3.46
5.00
7.56
5.73
-3.45
-18.07
-32.06
-38.30
-32.71
-16.52
4.21
21.75
30.68
30.43
24.92
19.70
18.22
19.70
19.81
13.60
-0.88
-20.66
-38.68
-47.37
-42.55
-25.81
-3.74
15.42
25.88
26.99
22.85
19.18
19.56
23.09
24.99
19.80
5.03
-16.65
-38.20
-51.66
-52.15
-40.34
-21.87
-4.26
7.08
11.51
12.84
16.42
25.31
37.94
48.58
50.48
39.78
18.21
-7.49
-28.79
-39.58
-39.02
-31.39
-23.14
-18.98
-19.17
-19.73
-15.39
-3.34
14.50
31.94
41.65
39.06
24.88
4.61
-14.33
-26.42
-30.47
-29.34
-27.50
-27.75
-29.28
-28.24
-20.32
-4.00
17.78
38.46
50.88
50.77
39.04
21.22
4.53
-5.81
-9.00
-8.39
-8.92
-13.67
-21.67
-28.34
-28.30
-18.87
-1.98
16.49
29.66
33.19
27.49
17.04
7.60
2.83
2.45
2.82
-0.33
-8.79
-20.21
-29.09
-29.77
-19.84
-1.87
17.59
31.15
34.34
27.79
16.67
7.60
4.92
8.24
12.90
12.88
4.57
-10.71
-27.08
-37.30
-36.64
-25.39
-8.52
7.30
17.36
21.29
22.53
25.41
31.81
39.37
42.39
35.07
15.12
-14.19
-44.90
-67.75
-76.37
-70.09
-53.74
-34.87
-19.65
-9.94
-3.01
5.71
18.92
34.88
47.79
50.87
40.51
18.88
-6.61
-26.87
-35.57
-32.03
-20.90
-8.99
-1.27
1.80
3.78
9.33
20.55
35.00
46.40
47.91
35.87
12.27
-15.89
-39.82
-53.18
-54.86
-48.91
-41.59
-37.44
-36.59
-34.99
-27.38
-11.03
12.06
35.85
53.35
60.32
57.44
49.67
43.24
41.97
45.05
47.51
43.11
28.21
4.38
-21.90
-42.37
-51.31
-48.37
-38.54
-28.83
-24.15
-24.51
-25.51
-21.51
-9.65
8.11
25.82
36.82
37.47
29.10
17.18
8.06
5.31
7.71
9.96
5.90
-7.65
-28.55
-50.01
-63.89
-64.84
-52.90
-33.13
-12.52
3.79
14.99
24.09
35.06
49.45
64.71
75.00
74.24
59.59
33.47
2.82
-24.04
-41.23
-47.89
-47.87
-46.91
-48.91
-53.34
-55.67
-50.28
-34.27
-9.58
17.59
39.94
52.72
56.01
53.93
51.76
52.42
54.65
53.65
44.09
23.53
-5.44
-35.89
-59.76
-71.87
-72.36
-66.23
-60.15
-58.31
-59.88
-59.71
-51.70
-32.87
-5.50
23.72
47.25
60.55
64.24
63.21
63.39
68.10
76.14
82.48
81.15
68.64
46.04
18.62
-6.78
-24.96
-34.48
-37.46
-37.45
-36.78
-34.88
-29.00
-16.55
2.16
22.83
38.47
42.42
31.84
9.38
-17.76
-41.33
-55.84
-61.00
-61.21
-62.47
-68.57
-78.55
-87.33
-88.68
-79.12
-60.01
-36.80
-15.90
-1.08
8.41
16.84
28.94
46.61
67.54
86.34
97.55
98.70
91.74
81.93
74.91
73.47
76.00
77.35
71.72
56.11
32.41
6.72
-13.78
-24.73
-27.13
-26.79
-31.08
-44.54
-65.91
-88.59
-104.26
-107.49
-98.79
-84.14
-71.38
-65.61
-66.28
-67.98
-64.00
-50.60
-29.29
-5.87
13.12
24.14
28.59
31.55
38.48
51.82
69.45
86.00
95.89
96.46
89.48
80.01
73.38
72.23
74.90
76.45
71.54
57.61
36.77
14.90
-1.40
-8.53
-8.08
-6.17
-10.15
-24.31
-47.08
-71.60
-89.36
-94.93
-88.97
-77.76
-69.42
-69.06
-75.75
-83.28
-84.14
-74.23
-55.47
-34.66
-19.46
-13.94
-16.39
-20.71
-20.39
-12.35
1.39
15.18
23.34
23.45
17.65
11.13
8.92
12.95
21.20
28.93
31.66
27.72
19.35
11.39
8.63
13.10
23.00
33.71
40.33
40.41
35.37
29.67
28.22
33.59
44.39
56.03
63.25
63.08
56.71
48.75
44.59
47.16
55.21
63.80
67.19
62.17
50.12
36.29
26.86
25.17
29.76
35.00
34.30
24.05
6.01
-13.56
-27.45
-31.69
-28.09
-23.25
-24.81
-36.80
-56.87
-77.36
-89.55
-88.61
-76.56
-61.15
-51.46
-52.62
-62.86
-74.67
-79.34
-72.13
-55.02
-35.35
-21.48
-17.96
-23.09
-30.48
-33.19
-28.03
-17.23
-6.78
-2.53
-6.62
-16.08
-24.80
-27.26
-21.83
-11.70
-3.04
-1.31
-8.01
-19.58
-29.26
-30.79
-21.78
-5.03
13.05
25.97
30.55
28.36
24.30
23.33
27.43
34.52
39.97
39.60
32.38
21.25
11.37
7.03
9.15
14.70
18.52
16.38
7.50
-4.65
-14.29
-16.52
-9.99
2.34
14.85
22.46
23.44
20.20
17.60
19.80
27.63
38.05
45.90
46.99
40.55
29.73
19.61
14.25
14.30
16.80
17.02
11.46
0.13
-13.12
-22.64
-24.14
-17.06
-4.98
6.37
12.21
11.30
6.42
2.49
3.40
9.67
18.10
23.69
22.65
14.72
3.47
-5.76
-8.86
-5.20
2.04
7.83
8.28
2.88
-4.97
-9.98
-7.97
1.74
15.78
28.63
35.57
35.20
30.01
24.53
22.46
24.32
27.15
26.36
18.66
4.27
-12.73
-26.48
-32.38
-29.60
-21.45
-13.52
-10.58
-13.92
-20.71
-25.81
-24.95
-17.38
-6.57
1.73
2.69
-4.81
-17.36
-29.07
-34.94
-33.77
-28.85
-25.91
-29.66
-40.71
-54.85
-65.20
-66.08
-56.33
-40.18
-25.03
-17.38
-19.27
-27.15
-34.14
-34.23
-25.84
-12.75
-1.76
1.40
-4.45
-15.25
-24.22
-25.86
-19.11
-7.77
1.93
5.12
1.02
-6.69
-12.31
-11.65
-4.43
5.52
12.67
13.10
6.96
-1.48
-6.23
-3.02
8.28
23.54
36.73
43.21
42.23
37.05
32.69
32.73
37.24
42.76
44.57
39.55
28.20
14.44
3.42
-1.42
-0.20
3.59
5.20
1.57
-6.75
-15.70
-19.95
-16.06
-4.48
10.49
23.00
28.78
27.35
21.98
17.49
17.13
20.69
24.66
24.50
17.56
4.97
-8.70
-17.86
-18.97
-12.47
-2.53
5.42
7.69
4.54
-0.11
-1.10
4.78
16.79
30.54
40.49
43.12
38.89
31.82
26.93
27.12
31.59
36.29
36.53
29.79
17.37
3.68
-6.25
-9.63
-7.42
-3.74
-3.46
-9.34
-20.33
-32.02
-39.14
-38.50
-30.83
-20.46
-12.77
-11.25
-15.33
-20.91
-22.73
-17.67
-6.58
6.08
14.88
16.50
11.77
5.03
1.60
4.60
13.25
23.36
29.96
30.12
24.63
17.31
12.67
13.07
17.40
21.77
21.87
15.57
4.27
-7.80
-15.93
-17.62
-13.95
-9.02
-7.58
-12.31
-22.10
-32.56
-38.37
-36.32
-27.22
-15.58
-7.15
-5.73
-10.92
-18.42
-22.56
-19.68
-10.39
0.68
7.55
6.27
-2.65
-14.58
-23.47
-25.46
-21.21
-15.54
-14.63
-22.22
-37.06
-53.31
-63.62
-63.38
-53.48
-40.04
-31.00
-31.52
-40.71
-51.97
-56.63
-49.06
-30.02
-6.46
12.35
20.01
16.57
8.16
3.16
7.05
19.20
33.33
41.46
38.71
26.38
11.13
1.03
0.76
8.91
18.84
22.66
15.97
0.63
-16.15
-25.86
-23.47
-10.29
6.83
19.53
22.69
17.43
10.22
8.92
18.05
36.13
56.55
71.52
76.39
72.24
64.67
60.18
62.20
69.25
76.05
76.99
69.41
55.24
39.54
27.51
21.45
19.66
17.75
11.42
-0.82
-16.55
-30.85
-39.07
-39.58
-34.82
-30.06
-30.40
-37.90
-50.16
-61.68
-67.00
-64.01
-55.36
-47.10
-45.22
-51.94
-64.11
-74.66
-76.57
-66.89
-48.53
-28.66
-14.64
-9.80
-11.55
-13.10
-7.66
7.49
29.41
51.25
66.22
71.32
68.66
63.57
60.92
62.05
64.01
61.57
50.71
31.27
7.58
-13.78
-27.34
-31.61
-29.72
-27.52
-30.20
-39.14
-50.98
-59.31
-58.43
-46.62
-27.47
-8.00
5.14
9.43
7.80
6.71
12.15
26.00
44.79
61.66
70.16
67.56
56.01
40.65
26.32
14.73
3.92
-9.96
-29.34
-52.70
-74.20
-86.15
-82.82
-63.70
-34.14
-2.99
21.41
35.00
39.10
38.59
38.20
39.45
39.86
34.88
21.34
0.13
-23.43
-42.02
-50.04
-46.48
-35.33
-23.20
-15.53
-13.57
-13.91
-10.82
-0.12
17.86
37.95
52.58
55.86
46.52
28.57
8.77
-7.07
-17.05
-23.48
-30.57
-40.90
-52.93
-61.17
-59.10
-43.14
-15.33
16.96
44.03
58.30
57.44
44.88
27.34
11.01
-1.27
-10.51
-19.52
-29.95
-40.18
-45.71
-41.65
-25.98
-1.39
25.28
46.04
55.40
52.83
42.54
30.70
21.95
17.03
12.95
5.54
-7.27
-23.41
-37.25
-42.49
-35.72
-18.47
3.28
22.10
32.72
34.32
30.21
25.10
21.91
19.81
14.97
3.26
-16.55
-41.01
-63.04
-75.18
-73.35
-58.94
-38.11
-18.43
-4.98
2.13
7.15
15.42
29.60
47.40
62.50
67.81
59.47
39.14
13.30
-10.09
-25.45
-32.01
-33.36
-34.48
-38.26
-43.31
-44.73
-37.22
-18.67
7.92
35.39
55.83
64.34
61.23
51.12
39.76
30.59
23.00
13.36
-1.92
-23.24
-46.41
-64.18
-69.78
-60.50
-39.38
-13.84
7.93
20.94
25.52
26.16
28.21
34.13
41.81
45.84
40.96
25.60
3.47
-18.05
-31.57
-33.46
-25.47
-13.37
-3.56
0.46
-0.22
-1.33
1.31
8.65
17.22
20.90
14.73
-1.60
-22.48
-38.73
-42.03
-29.29
-4.40
23.58
44.71
52.72
47.37
33.52
17.68
4.41
-5.49
-13.99
-23.09
-32.27
-38.01
-35.82
-23.52
-3.51
17.27
30.16
28.81
12.51
-13.07
-38.32
-53.87
-54.76
-42.06
-21.67
-0.81
15.56
26.52
34.16
40.81
46.34
47.40
39.31
19.54
-9.47
-40.09
-62.23
-67.98
-55.38
-29.40
0.59
25.14
38.85
41.88
38.32
32.64
26.64
18.56
5.17
-14.81
-38.09
-57.05
-63.10
-51.26
-23.26
12.49
44.37
62.38
62.26
46.56
22.62
-1.31
-19.54
-30.46
-35.56
-37.01
-35.53
-30.01
-18.98
-2.87
14.62
27.20
28.77
17.00
-4.54
-27.11
-40.58
-38.34
-20.65
5.36
29.18
41.96
40.45
27.85
11.26
-2.60
-10.71
-14.40
-17.24
-21.54
-26.00
-26.12
-17.21
1.93
27.04
49.44
59.91
53.28
31.43
2.65
-22.23
-34.93
-33.28
-21.54
-7.37
2.61
6.01
5.03
3.84
4.87
6.57
3.98
-7.96
-30.36
-58.13
-81.37
-89.75
-77.80
-47.88
-9.39
25.57
47.66
53.99
48.28
37.55
27.82
21.14
15.70
8.58
-1.05
-10.20
-13.53
-6.77
9.89
30.71
46.46
48.72
34.19
6.74
-24.13
-47.63
-56.57
-50.09
-33.20
-13.22
3.98
16.55
25.86
33.78
39.86
40.62
31.44
10.13
-20.32
-51.71
-73.84
-79.28
-67.08
-43.20
-17.69
0.23
6.24
2.71
-3.36
-4.48
3.28
18.44
35.46
48.17
53.18
51.51
48.03
48.61
57.21
74.12
96.27
119.37
139.88
156.39
169.34
180.06
189.16
195.96
198.61
195.11
184.50
167.13
144.48
116.80
83.25
42.60
-5.08
-56.67
-105.64
-143.63
-162.08
-156.67
-129.94
-91.03
-53.22
-29.56
-28.33
-50.67
-90.80
-138.94
-185.22
-222.28
-247.25
-259.86
-261.73
-255.71
-245.63
-236.08
-230.99
-231.12
-231.87
-223.49
-195.23
-142.17
-70.35
3.60
59.30
82.40
71.72
40.16
8.57
-3.97
11.89
53.66
109.96
167.16
214.89
247.97
265.50
268.18
256.86
232.83
198.19
155.98
109.14
59.80
9.45
-39.06
-79.93
-104.90
-106.72
-83.74
-42.93
1.53
33.60
42.30
26.19
-7.48
-47.52
-84.65
-114.33
-135.59
-148.07
-150.18
-140.67
-121.18
-97.99
-79.75
-72.85
-77.75
-88.90
-98.92
-103.33
-102.33
-98.10
-90.64
-75.72
-47.48
-4.18
47.35
92.40
115.21
107.43
73.69
29.96
-3.38
-11.13
10.77
54.61
104.75
144.93
164.58
162.73
147.70
132.26
126.51
131.55
137.86
130.11
96.45
36.42
-36.22
-98.84
-130.10
-119.75
-73.28
-9.18
49.07
82.23
81.68
51.51
6.41
-33.60
-49.50
-29.95
24.75
102.56
183.88
248.25
280.95
276.59
239.17
179.91
113.80
56.35
20.28
12.35
31.22
67.68
106.85
132.98
134.88
109.21
61.68
5.01
-45.23
-75.70
-79.66
-59.72
-26.84
3.99
19.75
14.66
-8.39
-40.63
-72.61
-98.39
-117.59
-133.37
-149.06
-165.55
-181.39
-194.94
-206.53
-218.74
-234.66
-255.54
-279.24
-300.79
-314.39
-315.88
-304.37
-282.58
-255.89
-229.01
-204.50
-181.84
-158.08
-129.30
-92.44
-46.56
6.86
64.53
122.29
175.59
220.00
251.64
267.99
268.76
256.35
235.40
211.75
190.51
174.28
162.84
154.21
146.64
139.57
133.74
130.03
128.19
126.53
122.90
116.05
106.44
95.88
86.71
80.77
78.82
81.02
86.34
91.86
92.68
82.60
57.00
16.14
-33.52
-81.09
-115.82
-132.31
-132.84
-125.34
-118.43
-116.51
-118.27
-119.18
-115.59
-107.77
-99.21
-93.56
-91.45
-89.75
-84.22
-73.28
-60.28
-52.03
-54.38
-67.98
-86.61
-100.09
-100.27
-85.12
-59.67
-32.65
-11.03
3.14
12.57
21.68
32.68
43.59
50.12
48.82
40.03
28.28
19.67
18.39
24.38
33.40
39.83
39.79
33.13
23.28
15.07
12.04
14.50
19.78
23.93
24.16
20.24
14.19
8.89
6.34
6.75
8.84
10.86
11.55
10.57
8.46
6.17
4.81
5.22
7.51
10.83
13.47
13.64
10.60
5.37
0.51
-1.34
0.73
5.07
8.05
6.06
-2.48
-16.30
-31.80
-44.77
-51.79
-51.53
-45.28
-36.64
-30.46
-30.85
-39.31
-53.68
-68.93
-79.34
-81.24
-74.95
-64.72
-56.49
-54.86
-60.68
-70.68
-79.47
-82.24
-77.00
-65.17
-50.42
-36.47
-25.18
-15.78
-5.61
7.74
24.57
42.56
58.19
69.25
76.44
83.20
93.55
109.47
129.48
149.25
163.80
169.92
167.22
157.82
144.71
130.21
115.53
100.85
85.98
70.62
54.37
36.75
17.09
-5.23
-30.47
-57.99
-85.63
-109.51
-124.86
-128.08
-118.94
-101.58
-83.13
-70.18
-65.05
-64.35
-60.90
-48.20
-24.41
6.60
37.76
63.13
80.90
93.25
103.38
112.59
119.30
120.37
113.91
100.93
85.36
72.20
65.18
65.06
69.30
73.16
71.77
62.42
45.86
26.12
8.49
-3.21
-8.73
-11.28
-15.48
-24.31
-37.08
-49.86
-57.98
-58.88
-53.60
-45.99
-40.50
-39.95
-44.47
-51.93
-59.22
-63.78
-64.50
-62.02
-58.19
-55.10
-53.93
-54.40
-55.13
-54.78
-53.19
-51.74
-52.42
-56.39
-62.64
-68.17
-69.41
-64.20
-53.01
-38.89
-26.11
-18.26
-16.78
-20.58
-26.73
-31.89
-33.75
-31.91
-27.64
-22.86
-18.83
-15.43
-11.45
-5.83
1.28
8.22
12.60
12.96
9.75
5.24
2.12
1.90
3.85
5.48
4.07
-1.60
-10.25
-18.59
-22.99
-21.35
-14.15
-4.06
5.56
12.47
16.56
19.51
23.42
29.32
36.31
42.14
44.47
42.42
37.18
31.37
27.47
26.36
26.70
25.66
20.62
10.69
-2.57
-16.02
-26.62
-33.08
-36.52
-39.75
-45.63
-55.30
-67.71
-80.08
-89.64
-95.14
-97.42
-98.56
-100.36
-103.07
-105.09
-104.20
-99.10
-90.47
-80.57
-72.22
-66.86
-64.17
-63.42
-64.02
-67.82
-77.96
-97.09
-125.28
-159.45
-193.96
-222.83
-241.72
-248.36
-242.45
-224.58
-196.31
-160.39
-120.75
-80.82
-41.31
0.98
52.03
116.54
194.29
279.07
361.81
434.54
495.90
550.63
605.25
662.97
720.26
768.96
800.55
809.89
795.82
758.78
698.18
612.46
502.17
372.85
236.31
107.47
-0.80
-81.70
-135.91
-170.07
-193.55
-214.72
-238.31
-264.15
-287.95
-304.01
-308.13
-299.58
-280.97
-256.17
-228.07
-197.78
-165.30
-131.77
-100.87
-78.10
-68.23
-72.35
-86.60
-102.74
-113.59
-115.23
-108.50
-98.03
-89.29
-85.60
-86.38
-87.96
-86.09
-78.89
-67.75
-56.58
-49.54
-48.58
-52.48
-57.70
-60.49
-58.72
-52.73
-44.27
-35.17
-26.34
-17.60
-8.46
0.87
9.11
14.54
15.96
13.71
9.69
6.58
6.65
10.87
18.69
28.46
38.10
45.82
50.53
52.01
50.54
47.12
42.94
38.89
35.26
31.76
27.98
23.87
19.85
16.37
13.27
9.19
2.10
-9.44
-24.89
-41.14
-53.72
-59.01
-56.35
-48.65
-41.04
-38.26
-42.18
-50.98
-60.39
-66.35
-67.29
-64.95
-63.07
-65.08
-71.84
-80.86
-87.45
-87.22
-78.49
-63.30
-46.58
-33.77
-28.28
-29.88
-35.20
-39.90
-41.07
-38.91
-36.15
-36.00
-39.80
-45.72
-49.67
-47.67
-38.27
-23.57
-8.18
3.26
8.53
8.90
8.08
9.89
15.91
24.42
31.53
33.51
29.35
21.66
15.40
15.04
21.82
32.94
43.01
47.11
43.58
35.09
27.10
24.75
30.02
40.58
51.28
57.14
56.15
50.16
43.45
40.09
41.47
45.87
49.47
48.61
41.76
30.08
16.56
4.31
-4.94
-11.46
-16.23
-20.12
-22.98
-23.75
-21.53
-16.76
-11.46
-8.39
-10.26
-17.62
-29.14
-42.17
-53.91
-62.58
-67.97
-71.13
-72.95
-74.02
-73.79
-70.90
-63.83
-51.93
-36.07
-18.63
-2.70
9.19
16.12
19.25
20.79
22.68
25.45
28.06
28.70
26.18
20.98
15.28
12.00
13.11
18.47
25.70
31.23
32.17
27.78
20.01
12.35
8.08
8.51
12.43
16.91
19.04
17.51
13.26
8.55
5.35
3.89
2.50
-1.16
-8.33
-17.91
-26.84
-31.60
-30.31
-23.84
-15.60
-9.93
-9.96
-16.03
-25.51
-34.22
-38.63
-37.74
-33.40
-29.12
-27.83
-30.07
-33.45
-33.91
-28.06
-15.24
1.78
18.17
29.39
33.45
31.63
27.29
23.98
23.70
26.40
30.70
35.09
39.16
43.77
50.37
59.62
70.63
80.93
87.54
88.44
83.68
75.52
67.44
62.45
61.48
62.93
63.55
60.39
52.69
42.49
33.70
29.95
32.57
39.78
47.68
52.24
51.51
46.42
39.99
35.39
34.03
34.90
35.50
33.54
28.51
21.99
16.28
12.72
10.64
7.77
1.84
-7.58
-18.39
-26.88
-29.98
-27.66
-23.60
-23.88
-34.01
-56.17
-87.66
-121.71
-150.23
-165.77
-164.95
-149.26
-123.68
-93.85
-63.58
-33.84
-4.24
24.60
49.40
64.50
64.52
47.42
16.43
-20.99
-55.92
-81.70
-96.36
-102.51
-105.21
-108.63
-114.48
-120.46
-122.68
-118.32
-107.44
-92.82
-78.19
-66.01
-56.11
-45.92
-32.35
-14.17
7.00
27.25
42.40
50.19
51.31
48.94
46.87
47.62
51.20
55.52
57.87
56.64
52.35
47.23
43.90
43.66
45.73
47.61
46.56
41.28
32.80
23.97
17.84
15.98
17.54
19.75
19.58
15.46
8.34
1.17
-2.81
-1.88
3.17
9.52
13.95
14.64
12.21
9.20
8.50
11.50
17.28
23.09
26.01
24.74
20.43
15.99
14.40
16.92
22.30
27.48
29.35
26.59
20.42
13.97
10.34
10.84
14.19
17.25
16.85
11.70
3.19
-5.30
-10.34
-10.37
-6.59
-2.18
-0.47
-3.05
-8.87
-14.99
-18.34
-17.55
-13.69
-9.63
-8.23
-10.66
-15.64
-20.30
-21.85
-19.29
-13.97
-8.81
-6.58
-8.24
-12.40
-16.11
-16.66
-13.17
-7.15
-1.61
0.65
-1.29
-5.96
-10.33
-11.56
-8.65
-2.96
2.54
5.09
3.67
-0.32
-4.02
-4.77
-1.79
3.37
7.69
8.50
5.02
-1.04
-6.50
-8.52
-6.23
-1.25
3.25
4.43
1.42
-4.21
-9.36
-11.28
-9.13
-4.48
-0.33
0.67
-2.19
-7.27
-11.63
-12.79
-10.19
-5.51
-1.69
-1.19
-4.47
-9.74
-14.07
-15.21
-12.95
-9.27
-7.24
-9.20
-15.25
-23.06
-29.17
-30.95
-28.21
-23.33
-20.01
-21.20
-27.53
-36.84
-45.38
-49.91
-49.43
-45.71
-42.06
-41.43
-44.75
-50.40
-55.08
-55.49
-49.91
-38.68
-23.68
-7.05
9.89
26.71
43.16
57.99
68.90
73.34
69.98
60.14
48.34
40.88
43.19
56.99
79.15
102.88
120.61
128.49
126.12
116.20
102.74
89.03
76.30
63.74
49.89
34.26
18.22
4.44
-4.25
-7.02
-5.16
-2.04
-1.51
-5.78
-14.15
-23.43
-29.95
-31.47
-28.40
-23.41
-19.93
-20.09
-23.42
-27.29
-28.62
-25.89
-20.10
-14.21
-11.49
-13.59
-19.39
-25.50
-28.08
-25.09
-17.37
-8.23
-1.58
0.11
-2.87
-7.77
-11.11
-10.64
-6.49
-0.77
3.84
5.77
5.51
5.16
6.91
11.54
17.79
23.09
25.07
22.97
18.29
14.03
13.05
16.37
22.64
28.81
31.87
30.36
25.28
19.45
15.98
16.41
19.83
23.42
24.06
20.12
12.52
4.17
-1.77
-3.99
-3.97
-5.06
-10.41
-20.91
-34.35
-46.66
-54.20
-55.84
-53.41
-50.48
-50.04
-53.09
-58.23
-62.53
-62.98
-57.74
-46.79
-31.78
-15.38
-0.47
10.86
17.84
21.12
22.01
21.51
19.63
15.72
9.40
1.65
-5.10
-8.01
-5.55
1.28
9.15
14.22
14.23
9.83
4.11
0.77
2.01
7.24
13.42
17.02
16.04
11.14
5.18
1.45
1.75
5.32
9.35
10.78
8.28
3.13
-1.56
-2.75
0.64
6.91
12.49
14.00
10.34
3.52
-2.58
-4.41
-0.81
6.31
13.08
15.92
13.74
8.54
4.09
3.65
7.91
14.54
19.39
19.01
12.89
4.04
-2.43
-1.91
7.32
23.13
40.42
53.37
58.01
53.58
42.34
28.14
14.69
4.37
-2.02
-4.76
-4.46
-1.64
2.99
8.19
12.18
13.17
10.27
4.33
-1.86
-4.52
-0.74
9.53
22.68
32.48
32.64
20.01
-3.14
-28.95
-46.72
-47.17
-26.94
9.40
50.68
83.20
95.99
84.48
51.58
5.64
-43.11
-85.95
-117.49
-135.86
-141.41
-135.54
-119.90
-95.95
-65.11
-28.64
12.04
55.14
98.31
138.54
172.14
195.20
204.40
198.06
176.77
143.43
102.42
58.73
16.99
-18.90
-46.34
-64.12
-72.90
-75.47
-75.38
-76.50
-80.91
-87.41
-93.23
-96.88
-100.19
-107.76
-122.95
-143.95
-163.40
-173.54
-169.63
-153.62
-133.38
-117.40
-109.54
-106.86
-102.39
-90.42
-70.58
-47.78
-28.63
-17.76
-14.91
-15.57
-14.15
-7.17
4.97
18.93
30.61
37.20
38.19
35.52
32.24
31.05
32.88
36.66
40.33
42.01
41.06
38.24
35.36
34.07
35.02
37.54
40.03
40.85
39.23
35.50
30.86
26.68
23.79
22.19
21.25
20.31
19.12
17.92
17.19
17.13
17.43
17.43
16.56
14.75
12.54
10.93
10.63
11.67
13.30
14.31
13.40
9.76
3.66
-3.42
-9.30
-12.08
-11.14
-7.67
-4.22
-3.44
-6.72
-13.49
-21.55
-28.49
-32.93
-35.22
-36.95
-39.81
-44.66
-51.38
-59.48
-68.45
-78.01
-87.56
-95.45
-98.99
-95.23
-82.14
-59.92
-31.56
-2.16
22.72
38.82
44.31
39.99
28.79
14.60
1.17
-8.65
-13.18
-11.86
-4.93
6.74
21.45
36.44
48.16
53.21
50.13
40.63
29.65
23.64
27.53
42.09
63.27
83.81
96.60
97.91
88.88
74.40
60.56
51.87
49.75
52.87
58.42
63.63
66.44
65.59
60.10
49.29
33.22
13.57
-5.66
-19.00
-21.62
-12.17
5.72
24.22
34.95
32.98
19.28
-0.00
-16.90
-25.72
-25.54
-19.74
-13.41
-10.35
-11.30
-14.34
-16.49
-15.72
-11.85
-6.34
-1.42
1.01
0.14
-3.46
-8.21
-12.08
-13.65
-12.80
-10.78
-9.53
-10.53
-13.87
-17.98
-20.36
-18.97
-13.55
-5.93
0.74
3.51
1.30
-4.47
-10.55
-13.61
-11.98
-6.51
-0.11
3.93
3.72
-0.25
-5.42
-8.66
-8.10
-4.09
0.97
4.09
3.41
-0.65
-5.62
-8.42
-7.21
-2.48
3.21
6.66
5.91
1.46
-4.12
-7.65
-7.18
-3.11
2.10
5.45
5.14
1.59
-2.83
-5.33
-4.37
-0.58
3.61
5.48
3.67
-0.88
-5.49
-7.31
-5.04
0.26
5.68
8.13
6.17
0.80
-5.05
-8.19
-7.00
-2.28
3.25
6.54
5.94
2.11
-2.46
-4.97
-4.00
-0.27
3.72
5.31
3.29
-1.27
-5.69
-7.23
-4.82
0.29
5.19
7.05
4.72
-0.51
-5.72
-8.01
-6.16
-1.30
3.81
6.38
5.17
1.17
-3.06
-4.92
-3.36
0.58
4.36
5.54
3.23
-1.19
-4.98
-5.63
-2.48
2.84
7.24
8.02
4.52
-1.49
-6.78
-8.53
-5.93
-0.60
4.38
6.27
4.23
-0.29
-4.43
-5.67
-3.26
1.32
5.32
6.35
3.81
-0.75
-4.59
-5.41
-2.79
1.61
5.01
5.25
2.06
-2.75
-6.29
-6.43
-2.98
2.16
6.07
6.51
3.22
-1.89
-5.94
-6.65
-3.70
1.07
4.78
5.21
2.08
-2.74
-6.37
-6.63
-3.36
1.47
4.97
5.01
1.53
-3.36
-6.70
-6.46
-2.69
2.43
5.89
5.64
1.85
-3.25
-6.59
-6.14
-2.09
3.22
6.75
6.43
2.43
-2.87
-6.32
-5.89
-1.78
3.65
7.21
6.81
2.65
-2.84
-6.51
-6.22
-2.20
3.14
6.69
6.36
2.36
-2.94
-6.45
-6.15
-2.25
2.99
6.57
6.47
2.83
-2.13
-5.55
-5.52
-2.23
2.16
4.85
4.11
0.31
-4.27
-6.84
-5.81
-1.76
2.86
5.25
3.88
-0.48
-5.22
-7.44
-5.68
-0.77
4.58
7.34
5.95
1.24
-4.08
-6.94
-5.69
-1.07
4.30
7.41
6.58
2.42
-2.53
-5.36
-4.50
-0.56
4.03
6.43
5.14
0.94
-3.67
-5.93
-4.47
-0.23
4.13
5.83
3.63
-1.36
-6.25
-8.07
-5.58
0.04
5.83
8.65
7.07
2.15
-3.25
-6.14
-5.02
-0.84
3.74
5.95
4.49
0.36
-3.81
-5.41
-3.45
0.81
4.67
5.53
2.65
-2.39
-6.63
-7.44
-4.13
1.58
6.52
7.95
5.07
-0.46
-5.45
-7.09
-4.52
0.77
5.72
7.52
5.24
0.31
-4.32
-5.92
-3.53
1.42
6.06
7.69
5.35
0.42
-4.26
-6.10
-4.29
-0.19
3.47
4.29
1.73
-2.65
-6.15
-6.54
-3.51
1.18
4.76
5.07
1.85
-3.03
-6.69
-6.95
-3.56
1.59
5.59
6.22
3.18
-1.68
-5.47
-5.93
-2.76
2.19
6.00
6.40
3.11
-1.93
-5.71
-5.95
-2.44
2.77
6.62
6.80
3.13
-2.28
-6.31
-6.67
-3.18
2.06
6.01
6.41
3.15
-1.73
-5.23
-5.25
-1.76
3.22
6.76
6.77
3.23
-1.84
-5.55
-5.79
-2.55
2.17
5.50
5.35
1.68
-3.44
-7.05
-7.08
-3.45
1.73
5.51
5.79
2.50
-2.30
-5.71
-5.78
-2.63
1.70
4.45
3.86
0.30
-4.05
-6.46
-5.32
-1.16
3.66
6.38
5.40
1.31
-3.46
-6.14
-5.14
-1.07
3.63
6.13
4.93
0.74
-3.91
-6.13
-4.48
0.19
5.19
7.51
5.62
0.47
-5.12
-7.97
-6.42
-1.32
4.49
7.83
6.90
2.43
-2.85
-5.91
-5.09
-1.06
3.56
5.90
4.54
0.36
-4.01
-5.76
-3.75
0.89
5.40
6.97
4.50
-0.65
-5.50
-7.11
-4.33
1.44
7.06
9.43
7.17
1.55
-4.34
-7.37
-6.08
-1.53
3.40
5.78
4.29
0.01
-4.29
-5.84
-3.66
0.98
5.21
6.25
3.24
-2.28
-7.23
-8.68
-5.67
0.23
5.87
8.21
6.12
1.00
-4.12
-6.38
-4.67
-0.27
3.96
5.43
3.22
-1.28
-5.25
-6.25
-3.62
1.12
5.07
5.72
2.52
-2.83
-7.27
-8.13
-4.80
0.98
6.06
7.61
4.86
-0.48
-5.32
-6.86
-4.29
0.72
5.17
6.48
3.98
-0.62
-4.36
-4.93
-1.96
2.72
6.13
6.04
2.34
-2.93
-6.69
-6.69
-2.87
2.64
6.73
7.07
3.54
-1.75
-5.77
-6.23
-3.00
1.84
5.34
5.37
1.89
-2.92
-6.09
-5.59
-1.55
3.70
7.01
6.27
1.64
-4.41
-8.49
-8.29
-3.86
2.42
7.14
7.83
4.41
-0.92
-4.95
-5.38
-2.18
2.49
5.65
5.25
1.49
-3.34
-6.34
-5.68
-1.74
3.07
5.83
4.78
0.44
-4.64
-7.42
-6.13
-1.30
4.52
8.16
7.74
3.64
-1.68
-5.15
-4.94
-1.46
2.99
5.51
4.48
0.56
-3.82
-5.84
-4.10
0.47
5.16
7.06
4.76
-0.64
-6.14
-8.64
-6.59
-1.02
5.08
8.50
7.54
3.02
-2.27
-5.34
-4.63
-0.93
3.15
4.88
3.04
-1.29
-5.40
-6.60
-3.96
1.16
5.77
7.04
3.99
-1.84
-7.28
-9.24
-6.55
-0.60
5.50
8.59
7.26
2.65
-2.42
-5.01
-3.83
0.05
3.98
5.37
3.24
-1.07
-4.78
-5.44
-2.37
2.73
6.82
7.36
3.80
-1.98
-6.70
-7.70
-4.43
1.25
6.05
7.24
4.22
-1.23
-5.92
-7.14
-4.28
0.94
5.50
6.76
4.13
-0.71
-4.86
-5.93
-3.46
0.82
4.14
4.35
1.25
-3.22
-6.25
-5.83
-2.01
3.03
6.25
5.62
1.25
-4.47
-8.30
-7.98
-3.56
2.61
7.16
7.69
4.09
-1.47
-5.76
-6.43
-3.36
1.43
5.00
5.26
2.26
-1.95
-4.60
-3.87
-0.10
4.45
6.95
5.67
1.07
-4.36
-7.64
-6.91
-2.57
2.91
6.50
6.28
2.58
-2.20
-5.11
-4.39
-0.48
4.14
6.49
4.90
0.04
-5.40
-8.30
-6.95
-2.12
3.46
6.62
5.64
1.32
-3.63
-6.14
-4.65
-0.04
4.96
7.39
5.79
1.12
-3.85
-6.25
-4.73
-0.33
4.19
5.96
3.76
-1.22
-6.04
-7.74
-5.09
0.61
6.27
8.72
6.58
1.11
-4.56
-7.20
-5.42
-0.39
4.86
7.27
5.50
0.80
-3.92
-5.85
-3.95
0.40
4.31
5.19
2.29
-2.70
-6.82
-7.51
-4.21
1.28
5.83
6.84
3.73
-1.69
-6.23
-7.26
-4.12
1.42
6.22
7.56
4.69
-0.72
-5.58
-7.21
-4.84
-0.02
4.32
5.67
3.37
-0.99
-4.53
-4.94
-1.83
3.00
6.56
6.58
2.85
-2.62
-6.69
-7.11
-3.75
1.32
4.97
5.05
1.56
-3.32
-6.51
-5.98
-1.92
3.37
6.77
6.29
2.16
-3.24
-6.77
-6.41
-2.41
2.85
6.23
5.71
1.60
-3.68
-6.92
-6.16
-1.76
3.77
7.17
6.44
1.95
-3.72
-7.26
-6.65
-2.20
3.56
7.37
7.20
3.30
-1.90
-5.24
-4.78
-0.81
4.31
7.49
6.83
2.64
-2.68
-6.10
-5.74
-1.94
2.92
5.84
4.96
0.72
-4.41
-7.37
-6.35
-1.80
3.71
7.08
6.42
2.23
-2.89
-5.83
-4.81
-0.40
4.76
7.54
6.20
1.45
-3.95
-6.84
-5.54
-0.83
4.52
7.34
5.99
1.27
-4.04
-6.86
-5.64
-1.21
3.71
6.12
4.53
-0.17
-5.28
-7.87
-6.52
-2.09
2.79
5.31
4.13
0.15
-4.01
-5.70
-3.81
0.55
4.70
6.06
3.66
-1.13
-5.44
-6.64
-3.85
1.44
6.24
7.83
5.30
0.17
-4.54
-6.08
-3.57
1.46
6.00
7.27
4.39
-1.05
-5.95
-7.48
-4.74
0.70
5.72
7.40
4.83
-0.47
-5.42
-7.17
-4.85
0.01
4.39
5.55
2.74
-2.42
-6.84
-7.93
-5.03
0.15
4.52
5.57
2.75
-2.11
-5.98
-6.49
-3.26
1.77
5.60
5.95
2.64
-2.27
-5.77
-5.67
-1.94
3.26
6.90
6.80
3.01
-2.27
-5.95
-5.92
-2.27
2.77
6.13
5.73
1.73
-3.57
-7.08
-6.70
-2.61
2.86
6.56
6.33
2.27
-3.28
-7.08
-6.90
-2.75
3.06
7.26
7.49
3.70
-1.85
-5.83
-5.85
-1.84
3.96
8.25
8.61
4.91
-0.65
-4.87
-5.41
-2.17
2.76
6.34
6.37
2.83
-2.20
-5.76
-5.82
-2.46
2.25
5.41
5.11
1.50
-3.25
-6.31
-5.88
-2.28
2.26
4.93
4.07
0.24
-4.17
-6.30
-4.67
-0.07
4.82
7.04
5.10
-0.01
-5.38
-7.88
-5.98
-0.64
5.18
8.26
6.95
2.10
-3.47
-6.61
-5.65
-1.32
3.76
6.57
5.53
1.32
-3.50
-6.06
-4.91
-0.78
3.78
6.02
4.60
0.44
-3.84
-5.53
-3.44
1.30
5.96
7.79
5.66
0.80
-3.95
-5.81
-3.71
1.06
5.62
7.14
4.52
-0.92
-6.23
-8.50
-6.55
-1.62
3.37
5.48
3.49
-1.39
-6.21
-8.06
-5.75
-0.53
4.59
6.67
4.50
-0.59
-5.53
-7.34
-4.84
0.57
5.78
7.74
5.30
-0.14
-5.46
-7.63
-5.51
-0.41
4.70
6.95
5.19
0.67
-3.80
-5.57
-3.63
0.79
5.02
6.56
4.49
0.07
-4.10
-5.59
-3.60
0.59
4.41
5.46
3.05
-1.48
-5.45
-6.50
-3.99
0.62
4.57
5.50
2.80
-1.88
-5.73
-6.36
-3.25
1.81
5.88
6.49
3.21
-2.09
-6.30
-6.92
-3.57
1.82
6.04
6.54
2.92
-2.80
-7.34
-8.11
-4.62
1.10
5.82
6.89
3.86
-1.32
-5.46
-5.97
-2.52
2.89
6.98
7.23
3.35
-2.53
-7.02
-7.57
-3.83
2.03
6.63
7.37
3.91
-1.55
-5.71
-6.02
-2.30
3.30
7.44
7.59
3.59
-2.37
-6.90
-7.55
-4.03
1.48
5.76
6.32
2.92
-2.34
-6.34
-6.69
-3.22
2.04
6.03
6.45
3.15
-1.86
-5.51
-5.65
-2.12
2.98
6.69
6.83
3.31
-1.78
-5.53
-5.81
-2.64
1.99
5.17
4.90
1.29
-3.59
-6.79
-6.42
-2.56
2.58
6.11
6.08
2.65
-2.00
-5.09
-4.77
-1.38
2.91
5.37
4.34
0.37
-4.25
-6.71
-5.56
-1.46
3.09
5.27
3.58
-1.21
-6.41
-9.08
-7.56
-2.62
3.09
6.51
5.87
1.86
-2.95
-5.46
-4.02
0.71
6.04
8.88
7.53
2.68
-2.92
-6.15
-5.25
-0.90
4.22
7.03
5.81
1.32
-3.81
-6.47
-5.04
-0.30
5.05
7.90
6.63
1.97
-3.28
-6.09
-4.78
-0.13
5.10
7.82
6.27
1.28
-4.44
-7.69
-6.73
-2.24
3.14
6.24
5.36
1.05
-4.05
-6.94
-5.92
-1.58
3.53
6.52
5.73
1.79
-2.87
-5.44
-4.43
-0.56
3.75
5.75
4.12
-0.31
-4.96
-7.09
-5.45
-0.96
3.66
5.72
3.96
-0.48
-4.89
-6.55
-4.36
0.42
5.05
6.75
4.54
-0.31
-4.99
-6.81
-4.89
-0.47
3.64
4.98
2.73
-1.62
-5.28
-5.85
-2.69
2.45
6.65
7.30
3.88
-1.84
-6.70
-7.97
-5.00
0.54
5.42
6.94
4.24
-0.98
-5.61
-6.89
-3.93
1.60
6.65
8.31
5.69
0.27
-4.84
-6.71
-4.36
0.84
5.81
7.68
5.32
0.13
-4.88
-6.86
-4.69
0.27
5.13
7.03
4.96
0.20
-4.39
-6.12
-4.12
0.30
4.32
5.45
2.89
-1.87
-6.03
-7.15
-4.51
0.35
4.71
6.07
3.82
-0.60
-4.47
-5.50
-3.16
1.05
4.42
4.81
1.78
-2.90
-6.48
-6.72
-3.35
1.77
5.71
6.08
2.64
-2.70
-6.84
-7.37
-3.93
1.56
5.98
6.90
3.85
-1.21
-5.25
-5.77
-2.40
2.95
7.18
7.76
4.32
-1.23
-5.64
-6.42
-3.09
2.39
6.86
7.76
4.63
-0.61
-4.91
-5.83
-3.04
1.62
5.16
5.31
1.84
-3.31
-7.14
-7.47
-4.05
1.12
5.15
5.81
2.90
-1.70
-5.13
-5.29
-2.11
2.49
5.64
5.37
1.69
-3.21
-6.41
-5.90
-1.81
3.52
7.07
6.75
2.79
-2.46
-5.89
-5.49
-1.56
3.50
6.54
5.65
1.17
-4.31
-7.67
-6.91
-2.43
3.23
6.90
6.51
2.35
-3.14
-6.77
-6.50
-2.46
3.02
6.85
6.91
3.30
-1.73
-5.19
-5.06
-1.49
3.31
6.38
5.80
1.84
-3.18
-6.28
-5.63
-1.60
3.37
6.27
5.26
0.81
-4.53
-7.63
-6.61
-1.97
3.69
7.11
6.32
1.76
-3.94
-7.48
-6.81
-2.30
3.50
7.34
7.13
3.16
-2.18
-5.80
-5.77
-2.36
2.18
5.03
4.50
1.05
-3.03
-5.13
-3.88
-0.02
3.97
5.48
3.24
-1.67
-6.51
-8.37
-6.01
-0.52
5.15
7.88
6.16
1.01
-4.63
-7.56
-6.13
-1.22
4.37
7.47
6.43
2.04
-2.90
-5.35
-3.79
0.91
5.93
8.22
6.29
1.13
-4.38
-7.13
-5.64
-0.79
4.58
7.44
6.21
1.77
-3.24
-5.87
-4.63
-0.32
4.50
6.98
5.69
1.36
-3.51
-6.23
-5.43
-1.90
2.00
3.70
2.06
-1.94
-5.78
-6.97
-4.51
0.37
4.94
6.52
4.08
-1.10
-6.10
-8.09
-5.96
-0.96
3.96
5.91
3.75
-1.21
-5.96
-7.60
-5.04
0.36
5.50
7.45
5.09
-0.15
-5.14
-6.91
-4.34
1.19
6.60
8.88
6.79
1.65
-3.55
-5.81
-3.90
0.97
5.85
7.76
5.49
0.30
-4.80
-6.86
-4.70
0.36
5.24
6.98
4.44
-0.96
-6.12
-8.04
-5.63
-0.31
4.82
6.80
4.50
-0.66
-5.65
-7.53
-5.23
-0.06
4.96
6.94
4.73
-0.34
-5.31
-7.26
-5.05
0.06
5.11
7.19
5.11
0.11
-4.85
-6.90
-4.88
-0.04
4.74
6.61
4.49
-0.28
-4.80
-6.27
-3.72
1.46
6.29
7.96
5.51
0.34
-4.54
-6.40
-4.26
0.47
4.89
6.25
3.64
-1.51
-6.28
-7.98
-5.64
-0.69
4.04
5.80
3.63
-1.12
-5.59
-7.15
-4.86
-0.15
4.15
5.39
2.76
-2.24
-6.62
-7.73
-4.74
0.79
5.84
7.68
5.41
0.51
-4.04
-5.55
-3.12
1.80
6.31
7.75
5.26
0.27
-4.31
-5.84
-3.50
1.27
5.59
6.85
4.26
-0.65
-4.97
-6.08
-3.26
1.96
6.62
8.08
5.52
0.43
-4.31
-6.09
-4.11
0.27
4.31
5.59
3.36
-1.00
-4.88
-5.97
-3.69
0.56
4.16
4.93
2.29
-2.20
-5.93
-6.60
-3.73
1.15
5.29
6.38
3.83
-0.78
-4.74
-5.73
-3.28
1.07
4.57
5.09
2.27
-2.15
-5.49
-5.69
-2.65
1.77
4.80
4.49
0.86
-4.01
-7.25
-6.84
-2.88
2.46
6.17
6.11
2.26
-3.15
-7.04
-7.12
-3.33
2.19
6.28
6.60
3.00
-2.37
-6.33
-6.50
-2.67
3.07
7.56
8.39
5.26
0.16
-3.86
-4.52
-1.56
3.10
6.55
6.62
3.17
-1.83
-5.48
-5.71
-2.42
2.36
5.77
5.76
2.30
-2.57
-5.97
-5.95
-2.55
2.06
5.03
4.38
0.32
-4.88
-8.20
-7.66
-3.44
2.08
5.81
5.62
1.73
-3.54
-7.01
-6.57
-2.38
3.21
7.06
6.98
3.11
-2.23
-5.88
-5.71
-1.77
3.65
7.48
7.54
3.87
-1.36
-5.12
-5.33
-1.98
2.82
6.19
6.07
2.51
-2.43
-5.85
-5.83
-2.44
2.22
5.36
5.04
1.44
-3.34
-6.45
-6.07
-2.38
2.45
5.66
5.36
1.82
-2.82
-5.73
-5.14
-1.28
3.57
6.57
5.87
1.86
-3.15
-6.16
-5.39
-1.25
3.80
6.78
5.86
1.57
-3.57
-6.52
-5.60
-1.40
3.47
6.11
4.86
0.49
-4.44
-7.02
-5.78
-1.46
3.35
5.88
4.63
0.44
-4.19
-6.46
-5.03
-0.67
4.08
6.49
5.11
0.74
-4.14
-6.70
-5.48
-1.20
3.63
6.18
4.91
0.54
-4.45
-7.22
-6.23
-2.13
2.61
5.21
4.13
0.09
-4.49
-6.81
-5.40
-0.92
4.14
6.98
5.98
1.74
-3.29
-6.22
-5.39
-1.28
3.73
6.77
6.11
2.24
-2.46
-5.12
-4.13
-0.05
4.66
7.16
5.88
1.49
-3.44
-6.06
-4.86
-0.59
4.19
6.61
5.20
0.71
-4.27
-6.90
-5.66
-1.28
3.74
6.54
5.58
1.46
-3.37
-6.13
-5.29
-1.46
3.00
5.34
4.06
-0.13
-4.78
-7.09
-5.62
-1.12
3.86
6.47
5.23
0.87
-4.00
-6.53
-5.21
-0.83
4.10
6.71
5.53
1.33
-3.36
-5.74
-4.41
-0.17
4.43
6.61
5.00
0.48
-4.30
-6.50
-4.72
0.10
5.26
7.81
6.26
1.44
-3.94
-6.90
-5.92
-1.76
2.94
5.26
3.74
-0.79
-5.61
-7.82
-5.98
-1.01
4.33
7.08
5.74
1.21
-3.80
-6.32
-4.88
-0.34
4.61
7.06
5.53
0.87
-4.26
-6.97
-5.79
-1.48
3.37
5.92
4.69
0.46
-4.23
-6.55
-5.07
-0.53
4.51
7.24
6.16
2.02
-2.69
-5.20
-4.12
-0.24
3.97
5.78
3.91
-0.76
-5.57
-7.73
-5.87
-0.95
4.33
7.01
5.60
0.92
-4.30
-7.04
-5.66
-0.88
4.64
7.80
6.83
2.32
-3.09
-6.26
-5.37
-0.95
4.38
7.47
6.38
1.65
-4.12
-7.67
-7.05
-2.63
3.05
6.82
6.68
2.95
-2.00
-5.18
-4.75
-1.06
3.54
6.18
5.15
0.90
-4.14
-7.09
-6.26
-2.17
2.77
5.63
4.75
0.66
-4.12
-6.66
-5.33
-0.82
4.27
6.92
5.47
0.70
-4.71
-7.60
-6.29
-1.48
4.08
7.23
6.12
1.38
-4.31
-7.72
-6.95
-2.46
3.21
6.88
6.62
2.76
-2.25
-5.41
-4.84
-0.91
4.06
7.11
6.50
2.67
-2.07
-4.93
-4.35
-0.92
2.99
4.75
2.98
-1.44
-5.97
-7.79
-5.63
-0.48
4.83
7.29
5.41
0.17
-5.48
-8.34
-6.73
-1.47
4.55
8.02
7.12
2.48
-3.11
-6.42
-5.55
-1.10
4.34
7.60
6.81
2.50
-2.81
-6.04
-5.41
-1.37
3.60
6.58
5.79
1.73
-3.19
-6.06
-5.22
-1.18
3.65
6.35
5.28
0.96
-4.16
-7.17
-6.35
-2.24
2.79
5.78
5.00
0.95
-3.99
-6.92
-6.16
-2.24
2.44
5.03
3.91
-0.25
-4.91
-7.17
-5.55
-0.86
4.21
6.68
5.08
0.33
-4.78
-7.24
-5.57
-0.75
4.46
7.00
5.47
0.84
-4.09
-6.32
-4.46
0.48
5.66
8.09
6.26
1.19
-4.31
-7.15
-5.79
-1.08
4.21
7.01
5.66
0.92
-4.50
-7.50
-6.32
-1.62
4.05
7.56
7.10
3.11
-1.92
-5.02
-4.38
-0.45
4.38
7.21
6.22
1.90
-3.39
-6.69
-6.25
-2.45
2.41
5.45
4.91
1.14
-3.58
-6.45
-5.71
-1.75
3.19
6.30
5.83
2.15
-2.50
-5.33
-4.69
-0.99
3.52
6.06
5.04
0.96
-3.82
-6.50
-5.50
-1.42
3.35
5.98
4.91
0.74
-4.11
-6.84
-5.93
-1.96
2.75
5.50
4.78
1.09
-3.32
-5.90
-5.13
-1.51
2.87
5.47
4.74
1.08
-3.48
-6.32
-5.81
-2.14
2.60
5.76
5.46
1.87
-2.92
-6.07
-5.62
-1.71
3.50
6.98
6.67
2.70
-2.60
-6.11
-5.74
-1.65
3.76
7.33
6.90
2.72
-2.79
-6.39
-6.00
-1.86
3.58
7.08
6.58
2.36
-3.02
-6.40
-5.76
-1.51
3.77
6.91
5.94
1.40
-4.07
-7.22
-6.22
-1.64
3.81
6.89
5.80
1.15
-4.26
-7.26
-6.05
-1.41
3.91
6.70
5.29
0.48
-4.91
-7.67
-6.20
-1.32
4.07
6.81
5.22
0.19
-5.36
-8.17
-6.48
-1.13
4.98
8.44
7.37
2.42
-3.53
-7.09
-6.27
-1.59
4.20
7.80
7.15
2.71
-2.96
-6.62
-6.29
-2.32
2.85
6.18
5.75
1.94
-2.89
-5.86
-5.25
-1.57
2.81
5.06
3.64
-0.74
-5.53
-7.79
-5.99
-0.93
4.69
7.80
6.71
2.14
-3.25
-6.36
-5.46
-1.16
3.96
6.89
5.87
1.50
-3.70
-6.72
-5.85
-1.63
3.48
6.52
5.77
1.73
-3.14
-5.90
-4.84
-0.50
4.66
7.65
6.71
2.34
-2.99
-6.27
-5.72
-1.76
3.23
6.32
5.72
1.81
-3.12
-6.23
-5.82
-2.29
2.16
4.81
4.06
0.36
-4.04
-6.47
-5.40
-1.38
3.26
5.81
4.71
0.56
-4.22
-6.82
-5.69
-1.48
3.36
5.93
4.64
0.19
-4.82
-7.35
-5.80
-0.84
4.78
7.92
6.77
1.99
-3.66
-6.91
-5.87
-1.16
4.53
7.87
6.99
2.45
-2.99
-6.08
-4.98
-0.34
5.03
7.92
6.43
1.35
-4.47
-7.68
-6.43
-1.49
4.24
7.32
5.90
0.69
-5.32
-8.69
-7.51
-2.52
3.31
6.63
5.53
0.87
-4.45
-7.11
-5.44
-0.38
5.14
7.86
6.25
1.22
-4.23
-7.04
-5.69
-1.19
3.69
5.99
4.32
-0.24
-4.97
-6.99
-5.06
-0.20
4.80
7.10
5.39
0.65
-4.38
-6.90
-5.49
-1.07
3.78
6.30
5.09
1.02
-3.48
-5.71
-4.43
-0.42
3.87
5.84
4.26
-0.06
-4.59
-6.76
-5.24
-0.91
3.76
6.10
4.71
0.43
-4.28
-6.62
-5.19
-0.70
4.36
7.11
6.03
1.71
-3.33
-6.23
-5.30
-1.10
3.97
7.00
6.20
2.05
-3.11
-6.31
-5.79
-1.91
3.03
6.15
5.73
2.11
-2.42
-5.11
-4.35
-0.61
3.83
6.32
5.34
1.50
-2.89
-5.22
-4.11
-0.28
3.93
5.86
4.22
-0.22
-4.96
-7.27
-5.83
-1.49
3.15
5.30
3.56
-1.09
-5.87
-7.83
-5.59
-0.26
5.20
7.60
5.49
0.00
-5.73
-8.41
-6.53
-1.17
4.51
7.24
5.47
0.30
-5.13
-7.60
-5.56
-0.14
5.64
8.54
6.97
1.96
-3.59
-6.46
-5.10
-0.36
4.94
7.73
6.41
1.76
-3.48
-6.29
-5.06
-0.54
4.64
7.51
6.45
2.18
-2.77
-5.52
-4.55
-0.55
4.02
6.38
5.07
0.83
-3.86
-6.30
-5.10
-1.06
3.34
5.39
3.80
-0.54
-5.07
-7.10
-5.39
-0.99
3.45
5.21
3.17
-1.44
-5.84
-7.21
-4.57
0.72
5.63
7.23
4.44
-1.33
-6.88
-9.13
-6.76
-1.08
4.85
7.85
6.41
1.60
-3.71
-6.45
-5.17
-0.75
4.12
6.55
5.18
0.93
-3.55
-5.53
-3.75
0.71
5.16
6.86
4.62
-0.35
-5.20
-7.10
-4.87
0.28
5.44
7.63
5.57
0.42
-4.88
-7.28
-5.40
-0.31
5.12
7.83
6.34
1.62
-3.56
-6.19
-4.84
-0.40
4.42
6.73
5.07
0.33
-4.78
-7.36
-5.95
-1.38
3.65
6.23
4.78
0.12
-5.07
-7.80
-6.45
-1.77
3.62
6.68
5.76
1.57
-3.36
-6.03
-4.93
-0.81
3.73
5.77
3.90
-0.95
-5.96
-8.13
-6.01
-0.57
5.24
8.28
6.92
2.00
-3.60
-6.75
-5.73
-1.23
4.07
7.11
6.14
1.76
-3.44
-6.48
-5.59
-1.33
3.84
6.95
6.19
2.08
-2.96
-5.97
-5.23
-1.21
3.70
6.58
5.77
1.80
-2.95
-5.66
-4.85
-1.16
2.99
4.94
3.38
-0.81
-5.05
-6.68
-4.55
0.25
4.93
6.74
4.46
-0.72
-5.87
-8.08
-5.99
-0.74
4.82
7.65
6.25
1.60
-3.51
-6.07
-4.60
0.00
5.05
7.59
6.21
1.84
-2.85
-5.03
-3.46
0.85
5.11
6.53
3.92
-1.50
-6.74
-8.84
-6.54
-1.04
4.67
7.52
6.06
1.35
-3.75
-6.32
-4.97
-0.77
3.55
5.16
2.85
-2.12
-6.83
-8.36
-5.53
0.35
6.21
8.87
6.92
1.49
-4.40
-7.52
-6.30
-1.56
3.89
7.03
6.28
2.35
-2.23
-4.70
-3.71
-0.05
3.83
5.35
3.37
-1.11
-5.48
-7.10
-4.91
-0.08
4.59
6.29
3.86
-1.45
-6.65
-8.77
-6.50
-1.01
4.69
7.51
6.00
1.20
-3.98
-6.49
-4.88
-0.14
4.95
7.41
5.84
1.22
-3.70
-6.06
-4.52
-0.10
4.54
6.58
4.77
0.19
-4.46
-6.42
-4.54
0.08
4.68
6.52
4.45
-0.35
-5.07
-6.94
-4.84
0.04
4.85
6.76
4.58
-0.50
-5.61
-7.84
-5.97
-1.13
3.85
6.13
4.45
-0.10
-4.73
-6.62
-4.56
0.32
5.23
7.36
5.46
0.70
-4.10
-6.07
-3.97
1.00
5.97
7.94
5.64
0.25
-5.24
-7.73
-5.82
-0.63
4.87
7.55
5.90
0.95
-4.42
-7.13
-5.73
-1.17
3.76
6.12
4.54
0.02
-4.66
-6.64
-4.60
0.42
5.63
8.09
6.44
1.67
-3.47
-6.06
-4.74
-0.41
4.25
6.43
4.84
0.45
-4.07
-5.98
-4.16
0.28
4.59
6.07
3.73
-1.16
-5.71
-7.22
-4.78
0.18
4.72
6.12
3.51
-1.59
-6.15
-7.49
-4.77
0.44
5.12
6.55
3.90
-1.22
-5.76
-7.04
-4.24
1.05
5.76
7.13
4.30
-1.15
-6.11
-7.73
-5.07
0.37
5.47
7.32
4.88
-0.36
-5.34
-7.14
-4.77
0.27
4.90
6.25
3.37
-2.11
-6.98
-8.30
-5.12
0.93
6.58
8.81
6.54
1.26
-3.85
-5.83
-3.60
1.41
6.13
7.64
4.90
-0.62
-5.77
-7.62
-5.08
0.39
5.68
7.79
5.54
0.31
-4.88
-7.07
-5.12
-0.32
4.43
6.28
4.15
-0.66
-5.27
-6.95
-4.68
0.17
4.78
6.42
4.15
-0.63
-5.06
-6.47
-4.02
0.81
5.13
6.26
3.42
-1.77
-6.28
-7.34
-4.19
1.50
6.62
8.29
5.63
0.26
-4.70
-6.36
-3.85
1.31
6.05
7.52
4.79
-0.58
-5.56
-7.31
-4.89
0.23
5.09
6.86
4.61
-0.28
-4.93
-6.61
-4.46
0.15
4.39
5.65
3.13
-1.69
-6.00
-7.24
-4.71
0.09
4.38
5.64
3.23
-1.31
-5.17
-5.93
-3.05
1.84
5.90
6.68
3.68
-1.37
-5.55
-6.38
-3.40
1.65
5.84
6.68
3.71
-1.25
-5.28
-5.96
-2.91
2.04
5.92
6.33
2.89
-2.48
-6.75
-7.45
-4.13
1.32
5.85
6.88
3.86
-1.37
-5.73
-6.58
-3.34
2.21
6.96
8.22
5.28
-0.11
-4.86
-6.31
-3.73
1.19
5.50
6.58
3.74
-1.31
-5.63
-6.65
-3.75
1.42
5.92
7.15
4.41
-0.69
-5.28
-6.82
-4.61
-0.12
3.91
5.06
2.67
-1.73
-5.46
-6.21
-3.48
1.13
4.89
5.54
2.63
-2.13
-5.90
-6.38
-3.16
2.01
6.20
7.05
4.05
-1.05
-5.34
-6.42
-3.78
0.93
4.90
5.81
3.21
-1.30
-4.97
-5.56
-2.66
2.07
5.91
6.61
3.76
-0.99
-4.92
-5.81
-3.23
1.22
4.87
5.53
2.79
-1.71
-5.31
-5.87
-3.02
1.59
5.25
5.80
2.94
-1.64
-5.20
-5.62
-2.63
1.96
5.41
5.57
2.29
-2.55
-6.10
-6.26
-2.95
1.85
5.23
5.08
1.38
-3.77
-7.35
-7.21
-3.36
2.03
5.85
5.85
2.00
-3.48
-7.39
-7.42
-3.47
2.23
6.48
6.88
3.28
-2.10
-6.05
-6.21
-2.45
3.01
6.96
7.03
3.13
-2.48
-6.50
-6.56
-2.51
3.39
7.80
8.24
4.49
-1.31
-5.80
-6.51
-3.16
2.18
6.26
6.62
3.01
-2.46
-6.59
-6.92
-3.27
2.27
6.55
7.12
3.75
-1.43
-5.34
-5.62
-2.06
3.22
7.13
7.28
3.44
-2.32
-6.83
-7.71
-4.59
0.60
4.85
5.87
3.31
-1.04
-4.34
-4.50
-1.37
3.20
6.43
6.29
2.78
-2.14
-5.66
-5.73
-2.36
2.46
5.89
5.88
2.39
-2.55
-6.14
-6.32
-3.08
1.57
4.86
4.80
1.43
-3.16
-6.16
-5.71
-1.98
2.83
5.86
5.27
1.33
-3.66
-6.75
-6.15
-2.19
2.79
5.84
5.15
1.15
-3.83
-6.81
-6.05
-2.00
2.96
5.89
5.00
0.81
-4.24
-7.17
-6.19
-1.81
3.43
6.45
5.38
0.71
-4.92
-8.32
-7.50
-2.82
3.17
7.23
7.28
3.51
-1.66
-5.06
-4.63
-0.49
5.00
8.66
8.33
4.06
-1.89
-6.27
-6.79
-3.35
1.98
6.06
6.65
3.62
-1.06
-4.54
-4.78
-1.83
2.34
5.04
4.50
1.03
-3.19
-5.54
-4.47
-0.54
3.83
5.90
4.20
-0.55
-5.69
-8.25
-6.66
-1.62
4.14
7.48
6.64
2.17
-3.37
-6.80
-6.29
-2.25
2.94
6.25
5.79
1.95
-2.97
-6.05
-5.46
-1.61
3.20
6.13
5.41
1.51
-3.17
-5.80
-4.79
-0.72
3.83
6.00
4.30
-0.45
-5.50
-7.77
-5.76
-0.36
5.55
8.68
7.32
2.26
-3.67
-7.18
-6.40
-2.00
3.42
6.69
5.95
1.79
-3.25
-6.25
-5.49
-1.59
2.92
5.22
3.83
-0.50
-5.14
-7.25
-5.52
-0.87
4.00
6.22
4.52
-0.05
-4.72
-6.65
-4.63
0.14
4.85
6.64
4.34
-0.71
-5.53
-7.19
-4.48
1.27
6.92
9.40
7.34
1.92
-3.77
-6.58
-5.10
-0.35
4.74
7.16
5.53
0.92
-3.86
-5.94
-4.11
0.47
5.07
6.91
4.89
0.21
-4.35
-6.08
-3.97
0.73
5.19
6.72
4.26
-0.89
-5.86
-7.85
-5.72
-0.67
4.46
6.80
5.08
0.38
-4.54
-6.87
-5.40
-1.16
3.15
4.84
2.78
-1.86
-6.29
-7.84
-5.47
-0.47
4.31
6.16
4.06
-0.69
-5.27
-7.01
-4.94
-0.31
4.16
5.92
4.04
-0.23
-4.21
-5.40
-2.92
1.97
6.53
8.17
5.91
1.00
-3.77
-5.71
-3.73
0.95
5.56
7.32
5.18
0.43
-4.06
-5.53
-3.04
1.94
6.40
7.54
4.50
-1.09
-6.07
-7.61
-4.91
0.36
5.03
6.35
3.57
-1.57
-5.99
-7.10
-4.32
0.60
4.70
5.52
2.60
-2.28
-6.20
-6.86
-3.88
0.98
4.87
5.54
2.62
-2.10
-5.82
-6.31
-3.21
1.74
5.70
6.40
3.42
-1.53
-5.56
-6.35
-3.42
1.59
5.83
6.90
4.23
-0.59
-4.79
-5.97
-3.49
1.10
5.03
5.93
3.18
-1.63
-5.61
-6.36
-3.35
1.72
5.82
6.41
2.98
-2.56
-7.06
-7.92
-4.67
0.70
4.99
5.66
2.39
-2.82
-6.78
-7.15
-3.74
1.45
5.43
5.97
2.97
-1.61
-4.92
-4.89
-1.42
3.54
7.18
7.44
4.15
-0.82
-4.59
-4.96
-1.68
3.44
7.46
8.02
4.76
-0.47
-4.66
-5.38
-2.20
2.93
6.90
7.23
3.59
-1.97
-6.19
-6.62
-3.05
2.32
6.18
6.09
2.01
-3.67
-7.61
-7.50
-3.45
2.01
5.58
5.10
0.88
-4.54
-7.86
-7.11
-2.74
2.70
6.02
5.32
1.08
-4.12
-7.29
-6.61
-2.59
2.32
5.25
4.53
0.70
-3.88
-6.38
-5.27
-1.11
3.79
6.68
5.91
1.95
-2.95
-6.07
-5.71
-2.16
2.44
5.38
4.89
1.21
-3.53
-6.45
-5.72
-1.56
3.83
7.47
7.31
3.50
-1.68
-5.22
-5.05
-1.34
3.61
6.75
6.13
2.02
-3.18
-6.35
-5.59
-1.33
3.92
7.01
5.99
1.33
-4.29
-7.67
-6.85
-2.28
3.42
6.99
6.48
2.33
-2.91
-6.12
-5.42
-1.30
3.74
6.67
5.69
1.29
-3.99
-7.11
-6.31
-2.08
3.10
6.17
5.30
1.02
-4.13
-7.07
-5.90
-1.17
4.52
7.95
7.14
2.55
-3.14
-6.65
-5.99
-1.66
3.73
6.93
6.07
1.76
-3.33
-6.08
-4.79
-0.24
4.84
7.34
5.68
0.77
-4.55
-7.17
-5.57
-0.76
4.38
6.76
4.94
0.01
-5.01
-7.02
-4.73
0.61
5.89
7.96
5.57
0.11
-5.24
-7.41
-5.17
0.02
5.03
6.84
4.36
-0.94
-5.93
-7.68
-5.19
0.00
4.82
6.40
3.84
-1.29
-5.90
-7.27
-4.58
0.58
5.20
6.63
4.09
-0.88
-5.37
-6.78
-4.39
0.39
4.76
6.14
3.72
-1.08
-5.42
-6.68
-3.97
1.27
6.06
7.62
5.01
-0.28
-5.19
-6.86
-4.40
0.53
4.83
5.78
2.73
-2.52
-6.76
-7.37
-3.89
1.77
6.47
7.66
4.82
-0.24
-4.57
-5.80
-3.43
0.96
4.61
5.28
2.53
-2.01
-5.59
-5.96
-2.66
2.58
6.83
7.65
4.54
-0.70
-5.02
-5.85
-2.69
2.58
6.82
7.45
3.99
-1.58
-6.03
-6.87
-3.74
1.36
5.28
5.61
2.16
-2.97
-6.65
-6.69
-3.01
2.24
5.97
6.01
2.37
-2.79
-6.48
-6.56
-3.00
2.10
5.80
5.99
2.63
-2.27
-5.78
-5.80
-2.30
2.67
6.19
6.16
2.55
-2.53
-6.08
-6.01
-2.35
2.79
6.44
6.45
2.83
-2.28
-5.91
-5.95
-2.37
2.73
6.36
6.34
2.63
-2.66
-6.49
-6.65
-3.02
2.30
6.28
6.72
3.56
-1.15
-4.52
-4.53
-1.36
2.87
5.37
4.38
0.26
-4.66
-7.55
-6.78
-2.85
1.88
4.62
3.71
-0.29
-4.99
-7.60
-6.55
-2.31
2.80
5.99
5.61
2.08
-2.39
-5.13
-4.51
-0.92
3.50
6.11
5.36
1.68
-2.76
-5.36
-4.56
-0.84
3.57
6.02
4.99
1.07
-3.40
-5.67
-4.28
0.05
4.80
7.14
5.59
0.99
-3.97
-6.32
-4.58
0.31
5.56
8.13
6.47
1.51
-3.93
-6.77
-5.47
-0.94
4.13
6.74
5.37
0.90
-3.98
-6.38
-4.88
-0.39
4.39
6.53
4.62
-0.34
-5.51
-7.91
-6.10
-1.09
4.19
6.69
4.97
0.11
-4.90
-7.02
-4.93
0.12
5.10
6.98
4.59
-0.67
-5.70
-7.54
-5.17
-0.10
4.65
6.29
3.96
-0.79
-4.99
-6.09
-3.42
1.41
5.55
6.57
3.88
-0.91
-5.02
-6.14
-3.72
0.73
4.54
5.45
2.91
-1.58
-5.37
-6.21
-3.51
1.24
5.35
6.43
3.78
-1.16
-5.63
-7.10
-4.74
0.08
4.57
6.09
3.76
-0.99
-5.23
-6.29
-3.37
1.97
6.63
7.86
4.90
-0.48
-5.04
-6.03
-2.84
2.62
7.03
7.70
4.19
-1.44
-5.83
-6.45
-3.01
2.31
6.23
6.30
2.41
-3.18
-7.25
-7.48
-3.80
1.57
5.48
5.68
2.11
-3.08
-6.87
-7.11
-3.74
1.21
4.78
4.88
1.47
-3.37
-6.68
-6.35
-2.36
3.20
7.24
7.54
4.02
-1.19
-5.04
-5.31
-1.93
2.95
6.29
5.96
2.11
-2.98
-6.31
-5.90
-2.04
2.91
5.92
5.12
1.00
-3.96
-6.75
-5.62
-1.08
4.32
7.51
6.67
2.32
-3.01
-6.23
-5.49
-1.25
3.98
7.04
6.02
1.45
-4.04
-7.21
-6.19
-1.50
4.09
7.24
6.03
1.17
-4.42
-7.36
-5.82
-0.63
5.21
8.30
6.80
1.61
-4.25
-7.44
-6.24
-1.50
3.93
6.84
5.55
0.87
-4.45
-7.37
-6.34
-2.12
2.71
5.28
4.05
-0.23
-5.01
-7.42
-5.99
-1.48
3.59
6.36
5.25
0.93
-4.07
-6.83
-5.73
-1.36
3.84
6.97
6.32
2.40
-2.35
-5.03
-3.99
0.18
4.99
7.56
6.25
1.73
-3.41
-6.18
-4.95
-0.45
4.65
7.34
6.02
1.51
-3.49
-5.98
-4.51
-0.04
4.58
6.38
4.06
-1.20
-6.35
-8.37
-5.98
-0.52
4.82
6.96
4.72
-0.49
-5.48
-7.23
-4.65
0.78
5.84
7.53
4.85
-0.59
-5.58
-7.24
-4.66
0.51
5.10
6.25
3.23
-2.17
-6.70
-7.63
-4.37
1.24
5.93
6.99
3.81
-1.73
-6.39
-7.50
-4.47
0.97
5.73
7.19
4.62
-0.36
-4.82
-6.18
-3.74
1.04
5.39
6.78
4.45
-0.15
-4.27
-5.44
-3.00
1.56
5.51
6.43
3.65
-1.32
-5.68
-6.97
-4.57
0.04
4.15
5.39
3.09
-1.36
-5.33
-6.52
-4.28
0.04
3.94
5.20
3.23
-0.60
-3.80
-4.23
-1.40
3.17
6.84
7.42
4.50
-0.24
-3.99
-4.48
-1.41
3.34
6.74
6.45
2.28
-3.60
-7.94
-8.29
-4.47
1.27
5.61
6.06
2.43
-3.02
-7.05
-7.31
-3.69
1.65
5.60
5.93
2.57
-2.37
-5.91
-5.97
-2.54
2.36
5.88
5.98
2.65
-2.16
-5.63
-5.73
-2.43
2.28
5.57
5.38
1.70
-3.39
-6.89
-6.67
-2.77
2.58
6.26
6.06
2.07
-3.35
-6.94
-6.52
-2.21
3.60
7.69
7.80
4.01
-1.43
-5.39
-5.68
-2.28
2.67
6.17
6.11
2.49
-2.59
-6.16
-6.18
-2.73
1.98
4.97
4.32
0.35
-4.52
-7.24
-5.99
-1.30
4.26
7.54
6.68
2.23
-3.17
-6.39
-5.54
-1.11
4.38
7.82
7.22
2.97
-2.46
-5.92
-5.39
-1.23
4.09
7.40
6.67
2.28
-3.27
-6.86
-6.57
-2.86
1.76
4.31
3.15
-1.01
-5.52
-7.47
-5.42
-0.27
5.22
7.97
6.42
1.45
-4.12
-7.10
-5.83
-1.06
4.41
7.34
5.96
1.01
-4.68
-7.80
-6.58
-1.80
3.68
6.69
5.57
1.23
-3.54
-5.74
-4.01
0.60
5.27
7.12
4.94
-0.05
-4.97
-6.96
-4.81
0.31
5.50
7.77
5.76
0.59
-4.79
-7.23
-5.29
-0.03
5.58
8.31
6.64
1.61
-3.78
-6.36
-4.71
0.03
4.89
6.83
4.54
-0.72
-6.02
-8.39
-6.67
-2.08
2.55
4.49
2.67
-1.63
-5.68
-6.87
-4.26
0.84
5.64
7.48
5.40
0.75
-3.62
-5.01
-2.47
2.57
7.14
8.41
5.39
-0.36
-5.65
-7.51
-4.97
0.29
5.03
6.35
3.44
-1.90
-6.41
-7.28
-3.92
1.77
6.46
7.50
4.41
-0.81
-4.94
-5.47
-2.00
3.54
8.07
9.08
6.10
0.94
-3.39
-4.48
-1.83
2.92
7.01
8.24
6.26
2.76
0.30
0.53
3.08
5.61
5.36
0.94
-6.58
-14.05
-18.04
-16.74
-10.97
-3.71
1.56
2.73
0.14
-3.85
-6.31
-5.51
-1.75
2.85
5.65
5.00
1.16
-3.76
-7.02
-6.79
-3.22
1.62
4.95
4.91
1.65
-2.74
-5.50
-4.79
-0.86
4.11
7.26
6.72
2.79
-2.23
-5.35
-4.74
-0.70
4.44
7.70
7.11
2.92
-2.62
-6.51
-6.75
-3.42
1.38
4.90
5.23
2.42
-1.69
-4.67
-4.88
-2.42
0.95
2.98
2.18
-1.27
-5.73
-9.10
-10.11
-8.89
-6.90
-5.95
-7.12
-10.13
-13.56
-15.70
-15.69
-13.95
-11.90
-10.92
-11.39
-12.31
-11.86
-8.67
-2.83
3.74
8.24
8.52
4.61
-0.93
-4.13
-1.63
7.49
21.17
35.16
44.95
47.70
43.45
34.97
26.70
23.04
26.56
36.88
50.60
62.92
70.03
71.13
69.33
69.89
77.23
91.95
109.98
124.42
129.19
121.79
103.68
78.66
50.44
21.56
-6.28
-31.29
-51.25
-64.43
-70.55
-71.18
-68.89
-66.00
-63.76
-62.32
-61.34
-60.53
-59.75
-58.64
-56.57
-52.98
-48.18
-43.22
-39.42
-37.40
-36.53
-35.49
-33.33
-30.08
-26.50
-23.46
-20.92
-18.05
-13.84
-7.85
-0.66
6.22
11.13
13.05
12.19
10.05
8.79
10.28
15.21
22.63
30.33
36.01
38.37
37.70
35.59
33.99
34.20
36.51
40.28
44.26
46.64
44.93
36.07
17.82
-9.76
-42.53
-72.47
-89.97
-88.02
-65.87
-30.40
6.23
31.64
38.09
25.20
-0.87
-30.20
-53.02
-62.49
-56.04
-35.47
-6.50
22.29
41.43
43.35
25.55
-7.57
-45.22
-74.06
-83.82
-72.00
-45.04
-14.95
6.57
13.41
7.20
-5.19
-16.20
-21.83
-22.73
-22.25
-22.94
-24.58
-24.64
-20.48
-11.50
0.38
11.75
19.83
23.63
23.90
22.25
20.30
19.24
19.70
21.53
23.76
24.79
22.92
17.45
9.27
0.69
-5.61
-8.01
-6.78
-3.95
-2.23
-3.69
-8.91
-16.76
-24.95
-31.06
-33.60
-32.55
-29.23
-25.52
-23.04
-22.51
-23.59
-25.17
-25.92
-24.78
-21.50
-16.67
-11.48
-7.13
-4.28
-2.88
-2.29
-1.76
-0.86
0.27
1.13
1.30
0.93
0.82
2.00
5.02
9.49
14.26
17.82
19.13
17.96
14.83
10.80
6.96
4.16
2.75
2.64
3.44
4.74
6.26
7.81
9.24
10.30
10.65
10.00
8.30
5.86
3.29
1.33
0.48
0.75
1.56
2.04
1.42
-0.47
-3.14
-5.60
-6.93
-6.73
-5.30
-3.49
-2.11
-1.58
-1.75
-2.02
-1.88
-1.23
-0.36
0.20
0.13
-0.51
-1.24
-1.48
-0.90
0.41
1.92
2.96
3.00
2.02
0.50
-0.79
-1.23
-0.63
0.59
1.64
1.78
0.78
-0.91
-2.37
-2.72
-1.61
0.55
2.79
4.12
4.06
2.86
1.31
0.23
0.05
0.55
1.10
1.06
0.21
-1.09
-2.08
-2.08
-0.94
0.84
2.34
2.72
1.73
-0.15
-1.96
-2.82
-2.42
-1.20
-0.04
0.22
-0.72
-2.43
-4.02
-4.64
-3.93
-2.22
-0.35
0.85
0.93
0.07
-1.10
-1.86
-1.87
-1.25
-0.50
-0.11
-0.22
-0.52
-0.44
0.43
2.03
3.80
4.98
5.09
4.24
3.14
2.72
3.55
5.48
7.62
8.80
8.19
5.80
2.47
-0.57
-2.34
-2.58
-1.82
-0.95
-0.67
-1.13
-1.93
-2.44
-2.26
-1.48
-0.57
-0.09
-0.35
-1.20
-2.13
-2.54
-2.04
-0.73
0.83
1.88
1.81
0.56
-1.35
-3.01
-3.63
-2.99
-1.55
-0.18
0.38
-0.03
-0.88
-1.34
-0.85
0.55
2.20
3.25
3.20
2.20
0.94
0.27
0.67
2.03
3.66
4.69
4.55
3.24
1.46
0.18
0.13
1.33
3.07
4.27
4.09
2.47
0.17
-1.67
-2.20
-1.36
0.19
1.49
1.85
1.27
0.33
-0.21
0.07
1.04
2.01
2.24
1.30
-0.58
-2.60
-3.77
-3.43
-1.66
0.72
2.55
2.89
1.60
-0.59
-2.54
-3.24
-2.45
-0.75
0.77
1.22
0.40
-1.14
-2.42
-2.72
-1.89
-0.35
1.31
2.77
4.12
5.69
7.61
9.54
10.79
10.82
9.79
8.66
8.75
11.00
15.20
19.96
23.34
23.98
22.00
19.06
17.65
19.76
25.88
34.70
43.79
50.83
54.48
54.42
51.33
46.33
40.77
35.96
32.42
28.81
21.25
3.90
-28.49
-77.07
-136.55
-195.51
-239.96
-258.56
-246.83
-208.55
-153.54
-93.56
-38.43
6.04
37.87
57.61
66.92
67.80
62.51
53.57
43.73
35.45
30.35
28.84
30.18
32.61
34.20
33.60
30.47
25.63
20.52
16.54
14.56
14.65
16.14
18.07
19.44
19.53
18.06
15.24
11.78
8.68
6.89
6.98
8.79
11.44
13.55
13.81
11.67
7.60
3.05
-0.25
-1.14
0.36
2.95
4.61
3.66
-0.29
-6.02
-11.15
-13.30
-11.24
-5.62
1.25
6.63
8.46
6.49
2.09
-2.60
-5.65
-6.06
-3.32
3.18
13.82
27.82
42.40
53.25
56.46
50.93
39.56
28.08
22.04
23.67
30.69
38.00
40.98
38.45
33.15
30.09
33.57
44.84
61.69
79.14
90.80
90.20
72.04
34.30
-20.02
-82.26
-139.92
-180.58
-196.12
-185.81
-156.09
-117.41
-79.87
-49.89
-29.28
-16.74
-10.26
-8.80
-12.31
-20.52
-31.67
-42.24
-48.32
-47.46
-39.94
-28.71
-18.05
-11.38
-9.77
-11.72
-14.06
-13.84
-9.66
-2.11
6.82
14.83
20.40
23.18
23.83
23.53
23.32
23.72
24.58
25.16
24.52
22.02
17.72
12.47
7.53
4.07
2.64
3.12
4.90
7.36
10.08
12.88
15.60
18.01
19.72
20.42
20.04
18.79
17.04
15.08
12.97
10.55
7.62
4.20
0.70
-2.18
-3.69
-3.47
-1.80
0.45
2.15
2.38
0.94
-1.58
-4.17
-5.90
-6.39
-5.89
-4.99
-4.18
-3.53
-2.74
-1.39
0.63
2.99
5.09
6.36
6.59
6.08
5.39
5.06
5.27
5.79
6.15
5.94
5.10
3.96
3.10
3.05
3.96
5.50
7.01
7.87
7.81
7.08
6.32
6.15
6.88
8.32
9.92
11.10
11.61
11.60
11.54
11.84
12.66
13.76
14.69
15.08
14.83
14.18
13.54
13.19
13.10
12.86
11.91
9.90
6.94
3.73
1.21
0.18
0.86
2.77
4.98
6.55
7.02
6.61
6.03
6.03
6.95
8.52
10.11
11.10
11.25
10.86
10.63
11.24
13.05
15.85
19.04
21.84
23.71
24.53
24.55
24.26
24.06
24.23
24.89
26.19
28.20
31.06
34.63
38.39
41.51
43.18
43.03
41.39
39.01
36.47
33.35
27.95
17.64
-0.12
-26.44
-60.14
-97.60
-133.58
-162.58
-180.29
-184.59
-175.86
-156.81
-131.68
-105.27
-81.90
-64.70
-55.09
-52.69
-55.29
-59.35
-60.63
-55.55
-42.25
-21.52
3.29
27.39
46.23
56.98
59.34
55.18
47.48
39.13
32.17
27.57
25.43
25.23
26.14
27.24
27.90
28.03
28.07
28.69
30.29
32.57
34.54
34.94
32.81
28.16
21.91
15.51
10.42
7.65
7.57
9.88
13.86
18.45
22.34
23.84
21.33
13.70
1.08
-14.60
-29.79
-40.59
-44.52
-41.75
-35.09
-28.71
-25.90
-27.58
-31.91
-35.59
-35.61
-30.71
-21.78
-11.18
-1.47
5.63
9.53
10.75
10.36
9.47
8.90
9.01
9.78
10.99
12.58
14.74
17.83
21.78
25.95
29.29
30.64
29.37
25.62
20.26
14.38
9.00
4.76
1.78
-0.17
-1.49
-2.52
-3.41
-4.13
-4.58
-4.66
-4.44
-4.11
-3.90
-3.87
-3.89
-3.70
-3.19
-2.55
-2.30
-3.05
-5.09
-8.17
-11.50
-14.15
-15.46
-15.38
-14.42
-13.21
-12.21
-11.38
-10.32
-8.67
-6.42
-4.05
-2.28
-1.69
-2.36
-3.79
-5.13
-5.64
-5.12
-4.01
-3.17
-3.42
-4.99
-7.34
-9.40
-10.12
-9.14
-6.90
-4.40
-2.53
-1.55
-0.99
-0.14
1.36
3.10
4.04
3.10
-0.04
-4.67
-9.22
-12.03
-12.17
-9.92
-6.53
-3.54
-2.00
-1.97
-2.67
-2.95
-2.00
0.23
3.17
5.95
7.85
8.67
8.73
8.67
9.19
10.78
13.59
17.34
21.31
24.60
26.34
26.08
24.05
21.16
18.72
17.85
19.06
21.85
24.84
26.28
24.76
19.80
12.42
4.97
0.44
1.36
8.61
20.68
33.71
42.52
42.34
30.76
8.94
-18.51
-44.94
-64.05
-72.16
-69.54
-60.33
-50.91
-47.49
-53.65
-69.09
-89.51
-107.86
-116.86
-111.53
-91.56
-62.13
-32.38
-12.19
-7.97
-20.21
-43.63
-69.91
-91.15
-102.41
-101.82
-89.32
-64.92
-28.17
20.59
78.17
137.19
187.21
217.85
222.46
200.99
160.47
112.84
70.85
43.67
33.90
37.30
45.11
48.22
41.43
25.29
5.47
-10.37
-16.39
-11.15
1.92
16.52
26.49
28.66
23.61
14.71
5.81
-0.61
-4.35
-6.94
-10.32
-15.41
-21.47
-26.64
-28.95
-27.17
-21.61
-14.09
-7.19
-3.22
-3.10
-5.82
-8.84
-9.24
-5.34
2.27
10.79
16.56
16.90
11.55
2.78
-5.71
-10.54
-10.21
-5.54
0.91
6.23
8.45
7.23
3.73
-0.20
-3.00
-4.03
-3.83
-3.75
-5.29
-9.42
-15.92
-23.39
-29.62
-32.37
-30.33
-23.82
-14.82
-6.17
-0.50
0.88
-1.69
-6.62
-12.03
-16.53
-19.55
-20.81
-19.57
-14.69
-5.52
6.66
17.89
22.52
16.23
-1.14
-24.30
-44.44
-53.24
-47.27
-30.14
-10.95
0.30
-2.41
-18.40
-41.59
-64.02
-79.58
-85.62
-82.16
-69.58
-46.85
-12.04
35.50
92.37
149.99
196.05
218.30
209.68
172.03
116.89
61.55
22.55
8.68
16.91
33.78
42.51
31.85
2.30
-34.38
-61.96
-69.28
-56.49
-34.94
-20.16
-22.57
-41.87
-67.84
-86.67
-88.37
-71.36
-41.64
-8.26
22.00
47.10
68.67
88.24
103.98
110.29
100.41
71.49
28.03
-18.36
-53.74
-68.54
-62.47
-44.72
-28.86
-25.45
-36.37
-54.69
-69.42
-72.26
-62.05
-44.30
-27.27
-17.03
-14.57
-16.66
-19.02
-19.29
-18.00
-17.38
-19.13
-22.86
-26.04
-25.44
-19.13
-7.59
6.25
18.51
25.88
27.10
23.30
17.24
12.01
9.77
10.95
14.40
18.12
20.26
19.98
17.67
14.65
12.45
12.02
13.31
15.32
16.74
16.62
14.84
12.11
9.47
7.69
6.85
6.45
5.82
4.70
3.37
2.45
2.40
3.06
3.68
3.37
1.75
-0.73
-2.95
-3.86
-3.14
-1.46
-0.08
-0.12
-1.88
-4.66
-7.19
-8.35
-7.84
-6.23
-4.62
-4.00
-4.71
-6.32
-7.89
-8.43
-7.46
-5.17
-2.34
0.07
1.38
1.60
1.31
1.32
2.17
3.81
5.65
6.87
6.92
5.82
4.17
2.74
2.02
1.99
2.12
1.75
0.56
-1.17
-2.65
-2.99
-1.65
1.14
4.54
7.50
9.27
9.79
9.65
9.65
10.34
11.66
13.10
14.02
14.09
13.55
13.08
13.39
14.81
17.09
19.51
21.19
21.58
20.68
18.98
17.20
15.80
14.72
13.41
11.13
7.49
2.72
-2.39
-6.90
-10.27
-12.66
-14.82
-17.62
-21.52
-26.22
-30.84
-34.33
-35.98
-35.71
-34.02
-31.63
-29.20
-26.99
-24.94
-22.76
-20.26
-17.47
-14.70
-12.40
-10.84
-10.00
-9.50
-8.82
-7.66
-6.08
-4.58
-3.77
-3.96
-4.96
-6.07
-6.46
-5.58
-3.50
-0.85
1.55
3.11
3.81
4.09
4.56
5.51
6.73
7.60
7.52
6.33
4.48
2.83
2.14
2.56
3.59
4.30
3.98
2.54
0.67
-0.63
-0.58
0.86
3.04
4.90
5.65
5.07
3.65
2.25
1.59
1.92
2.92
3.95
4.46
4.24
3.56
2.95
2.90
3.53
4.58
5.48
5.73
5.20
4.17
3.24
2.95
3.50
4.61
5.72
6.31
6.21
5.71
5.41
5.78
6.91
8.35
9.39
9.44
8.44
6.98
5.97
6.18
7.72
9.93
11.69
11.97
10.32
7.15
3.36
-0.03
-2.47
-4.03
-5.27
-6.84
-9.10
-11.91
-14.76
-17.05
-18.47
-19.15
-19.56
-20.16
-21.14
-22.23
-22.91
-22.76
-21.75
-20.32
-19.11
-18.51
-18.39
-18.13
-16.92
-14.29
-10.38
-5.97
-2.16
0.21
0.93
0.52
-0.03
0.20
1.54
3.61
5.54
6.52
6.28
5.31
4.50
4.63
5.88
7.73
9.22
9.62
8.72
7.03
5.37
4.48
4.63
5.51
6.50
6.97
6.63
5.67
4.59
3.96
4.07
4.89
6.08
7.29
8.35
9.36
10.52
11.84
12.91
12.96
11.21
7.36
1.99
-3.47
-7.32
-8.37
-6.53
-2.95
0.62
2.68
2.79
1.66
0.69
1.06
3.03
5.80
7.97
8.38
6.87
4.39
2.57
2.80
5.49
9.77
13.73
15.23
12.84
6.52
-2.34
-11.40
-18.34
-21.80
-21.81
-19.49
-16.26
-13.02
-9.81
-6.16
-1.86
2.52
5.68
6.42
4.67
1.80
0.05
1.17
5.28
10.63
14.66
15.40
12.66
7.92
3.22
-0.11
-2.11
-3.89
-6.59
-10.46
-14.63
-17.61
-18.31
-16.59
-13.40
-10.22
-8.36
-8.41
-10.05
-12.34
-14.19
-14.89
-14.37
-13.06
-11.57
-10.15
-8.49
-5.88
-1.76
3.82
9.91
15.05
17.94
18.13
16.26
13.72
11.87
11.40
12.06
12.93
13.11
12.28
10.87
9.78
9.83
11.23
13.47
15.58
16.69
16.41
15.05
13.34
12.02
11.43
11.38
11.37
10.88
9.68
7.88
5.78
3.62
1.48
-0.83
-3.62
-7.11
-11.24
-15.58
-19.40
-21.99
-23.01
-22.68
-21.77
-21.22
-21.71
-23.27
-25.23
-26.51
-26.13
-23.60
-19.13
-13.39
-7.24
-1.37
3.81
8.17
11.68
14.17
15.32
14.72
12.15
7.84
2.68
-2.05
-4.96
-5.12
-2.45
2.35
8.17
13.93
18.98
23.09
26.07
27.45
26.46
22.50
15.75
7.51
0.00
-4.47
-4.51
-0.35
6.31
13.10
17.89
19.76
18.98
16.63
13.89
11.58
10.09
9.53
10.02
11.69
14.49
17.73
19.89
18.82
12.72
1.14
-14.25
-29.98
-41.94
-47.03
-44.44
-35.81
-24.33
-13.25
-4.64
0.91
3.85
4.80
4.11
1.75
-2.19
-7.04
-11.60
-14.39
-14.22
-10.61
-4.23
3.24
9.40
11.94
9.60
2.73
-6.61
-15.50
-21.47
-23.57
-22.64
-20.57
-19.12
-18.93
-19.32
-18.96
-16.76
-12.50
-7.06
-1.80
1.85
3.01
1.54
-1.94
-6.11
-9.33
-10.02
-7.17
-0.83
7.67
15.96
21.35
21.70
16.31
6.13
-6.53
-18.88
-28.65
-34.66
-36.92
-36.14
-33.24
-28.91
-23.65
-17.92
-12.19
-6.97
-2.66
0.39
1.92
1.66
-0.38
-3.73
-7.28
-9.65
-9.82
-7.66
-4.04
-0.35
2.26
3.50
3.92
4.40
5.56
7.32
9.08
10.19
10.41
10.12
10.11
11.04
13.08
15.74
18.05
19.06
18.31
16.10
13.36
11.27
10.68
11.73
13.77
15.79
16.83
16.47
14.94
12.92
11.11
9.86
9.06
8.32
7.25
5.83
4.36
3.39
3.28
4.04
5.24
6.29
6.68
6.31
5.49
4.75
4.54
4.98
5.82
6.64
7.10
7.23
7.35
7.92
9.27
11.40
13.92
