1539435407.00
64.000000
-0.00
-0.00
-0.00
-0.00
-0.00
-0.00
-0.00
-0.00
-0.00
-0.00
0.00
0.01
0.01
-0.00
-0.03
-0.05
-0.05
0.00
0.13
0.36
0.66
1.01
1.38
1.72
2.05
2.39
2.78
3.24
3.83
4.49
5.15
5.74
6.21
6.57
6.88
7.27
7.82
8.65
9.68
10.78
11.80
12.64
13.35
14.09
15.13
16.66
18.94
21.74
24.76
27.60
30.04
32.14
34.26
36.96
40.68
45.88
52.17
58.88
65.22
70.65
75.20
79.51
84.57
91.23
100.21
110.95
122.34
133.06
142.15
149.55
156.15
163.82
171.88
182.94
197.56
215.31
234.25
250.82
260.48
258.96
243.62
214.41
174.31
127.22
77.08
26.43
-24.09
-75.18
-127.78
-181.83
-235.53
-285.06
-326.09
-354.66
-368.55
-368.10
-355.97
-336.17
-312.59
-288.00
-263.67
-240.06
-217.52
-196.72
-178.45
-163.07
-150.09
-138.29
-126.31
-113.22
-99.10
-84.81
-71.63
-60.53
-51.81
-45.01
-39.18
-33.36
-26.97
-20.04
-13.08
-6.81
-1.77
1.92
4.53
6.55
8.51
10.71
13.21
15.81
18.16
19.96
21.02
21.36
21.20
20.87
20.67
20.76
21.08
21.41
21.48
21.13
20.36
19.31
18.24
17.35
16.76
16.44
16.27
16.08
15.76
15.24
14.61
13.94
13.35
12.86
12.44
12.00
11.54
11.09
10.73
10.53
10.51
10.58
10.60
10.45
10.09
9.55
8.92
8.31
7.80
7.46
7.30
7.31
7.43
7.54
7.49
7.21
6.70
6.09
5.57
5.29
5.29
5.50
5.79
6.03
6.19
6.28
6.32
6.27
6.08
5.67
5.09
4.49
4.07
3.96
4.12
4.40
4.59
4.53
4.21
3.73
3.25
2.89
2.70
2.67
2.75
2.85
2.90
2.84
2.63
2.30
1.93
1.65
1.55
1.68
1.94
2.19
2.27
2.09
1.70
1.23
0.82
0.58
0.54
0.63
0.75
0.79
0.72
0.51
0.20
-0.15
-0.48
-0.75
-0.91
-0.96
-0.90
-0.77
-0.59
-0.43
-0.27
-0.14
-0.04
0.04
0.08
0.12
0.19
0.31
0.51
0.79
1.09
1.33
1.44
1.39
1.24
1.07
0.99
1.05
1.25
1.53
1.81
2.06
2.27
2.43
2.54
2.55
2.44
2.20
1.87
1.53
1.27
1.15
1.17
1.29
1.47
1.68
1.90
2.07
2.12
1.99
1.71
1.39
1.18
1.19
1.39
1.68
1.87
1.86
1.68
1.47
1.37
1.44
1.62
1.76
1.75
1.58
1.33
1.16
1.12
1.22
1.34
1.34
1.17
0.84
0.46
0.19
0.11
0.25
0.55
0.88
1.15
1.30
1.37
1.39
1.44
1.49
1.53
1.49
1.34
1.12
0.89
0.73
0.68
0.71
0.77
0.78
0.73
0.63
0.52
0.46
0.50
0.65
0.87
1.07
1.19
1.20
1.11
0.98
0.86
0.78
0.75
0.71
0.66
0.59
0.56
0.61
0.74
0.92
1.07
1.16
1.17
1.12
1.04
0.94
0.81
0.65
0.42
0.12
-0.21
-0.48
-0.59
-0.51
-0.23
0.13
0.42
0.53
0.43
0.24
0.09
0.11
0.25
0.41
0.42
0.25
-0.03
-0.25
-0.27
-0.07
0.26
0.57
0.76
0.81
0.80
0.82
0.91
1.04
1.16
1.22
1.21
1.16
1.06
0.90
0.66
0.38
0.13
-0.02
-0.01
0.11
0.27
0.38
0.39
0.32
0.23
0.17
0.12
0.06
-0.05
-0.19
-0.32
-0.38
-0.31
-0.13
0.12
0.36
0.51
0.51
0.37
0.13
-0.16
-0.41
-0.55
-0.57
-0.48
-0.30
-0.07
0.18
0.43
0.66
0.85
0.96
0.96
0.83
0.59
0.30
0.08
0.04
0.22
0.56
0.91
1.10
1.03
0.74
0.38
0.10
0.02
0.15
0.41
0.68
0.91
1.07
1.18
1.20
1.08
0.78
0.33
-0.19
-0.65
-0.94
-1.00
-0.87
-0.64
-0.35
-0.06
0.19
0.38
0.47
0.42
0.28
0.12
0.04
0.06
0.17
0.27
0.29
0.23
0.13
0.07
0.11
0.22
0.35
0.43
0.45
0.44
0.44
0.47
0.50
0.46
0.33
0.12
-0.09
-0.24
-0.28
-0.26
-0.21
-0.19
-0.17
-0.13
-0.02
0.15
0.31
0.39
0.33
0.19
0.04
-0.01
0.05
0.18
0.29
0.29
0.17
-0.03
-0.22
-0.34
-0.33
-0.21
-0.04
0.11
0.17
0.07
-0.19
-0.54
-0.87
-1.03
-0.96
-0.64
-0.18
0.30
0.69
0.92
0.98
0.91
0.72
0.48
0.22
0.02
-0.08
-0.05
0.08
0.25
0.41
0.53
0.63
0.73
0.87
1.03
1.16
1.19
1.06
0.77
0.36
-0.07
-0.43
-0.66
-0.71
-0.61
-0.39
-0.12
0.13
0.31
0.36
0.28
0.12
-0.05
-0.13
-0.11
-0.01
0.09
0.11
0.03
-0.09
-0.15
-0.08
0.16
0.48
0.76
0.87
0.76
0.48
0.15
-0.08
-0.15
-0.12
-0.09
-0.21
-0.51
-0.92
-1.26
-1.34
-1.07
-0.48
0.23
0.84
1.14
1.10
0.79
0.37
-0.03
-0.33
-0.51
-0.60
-0.61
-0.50
-0.25
0.12
0.54
0.86
0.94
0.75
0.38
-0.02
-0.26
-0.28
-0.11
0.10
0.20
0.12
-0.08
-0.26
-0.28
-0.11
0.19
0.47
0.60
0.53
0.31
0.04
-0.19
-0.30
-0.31
-0.21
-0.05
0.16
0.38
0.57
0.70
0.71
0.61
0.41
0.18
-0.04
-0.20
-0.27
-0.26
-0.17
-0.06
-0.01
-0.09
-0.33
-0.68
-1.04
-1.31
-1.38
-1.25
-0.98
-0.66
-0.38
-0.14
0.06
0.26
0.44
0.54
0.53
0.38
0.18
0.03
0.02
0.19
0.48
0.79
1.00
1.04
0.90
0.63
0.30
0.01
-0.20
-0.30
-0.32
-0.27
-0.18
-0.08
0.01
0.07
0.05
-0.09
-0.31
-0.56
-0.74
-0.73
-0.51
-0.15
0.21
0.43
0.44
0.27
0.06
-0.07
-0.03
0.15
0.41
0.63
0.77
0.79
0.75
0.67
0.55
0.40
0.23
0.07
-0.03
-0.05
-0.01
0.03
-0.01
-0.14
-0.29
-0.36
-0.27
-0.05
0.22
0.36
0.29
0.02
-0.33
-0.59
-0.66
-0.54
-0.30
-0.05
0.16
0.31
0.40
0.43
0.36
0.19
-0.04
-0.22
-0.24
-0.08
0.19
0.43
0.54
0.47
0.27
0.04
-0.17
-0.33
-0.43
-0.50
-0.52
-0.52
-0.48
-0.41
-0.29
-0.12
0.10
0.32
0.48
0.54
0.49
0.36
0.20
0.03
-0.15
-0.35
-0.55
-0.69
-0.71
-0.63
-0.48
-0.34
-0.24
-0.14
0.03
0.28
0.58
0.79
0.83
0.68
0.44
0.26
0.27
0.49
0.81
1.07
1.14
0.96
0.59
0.17
-0.18
-0.39
-0.48
-0.50
-0.51
-0.54
-0.57
-0.56
-0.47
-0.30
-0.06
0.18
0.37
0.44
0.37
0.17
-0.12
-0.44
-0.70
-0.85
-0.86
-0.72
-0.49
-0.24
-0.05
0.05
0.06
0.03
0.03
0.09
0.18
0.25
0.27
0.23
0.19
0.22
0.33
0.48
0.60
0.64
0.60
0.50
0.35
0.16
-0.08
-0.32
-0.50
-0.53
-0.41
-0.17
0.06
0.15
0.05
-0.17
-0.39
-0.49
-0.40
-0.17
0.09
0.28
0.31
0.20
0.02
-0.12
-0.13
-0.02
0.15
0.27
0.29
0.23
0.18
0.21
0.34
0.47
0.49
0.30
-0.06
-0.45
-0.71
-0.75
-0.61
-0.41
-0.25
-0.18
-0.16
-0.12
-0.04
0.06
0.12
0.12
0.12
0.17
0.32
0.52
0.66
0.65
0.45
0.17
-0.05
-0.10
0.01
0.15
0.18
0.02
-0.30
-0.61
-0.76
-0.68
-0.42
-0.08
0.19
0.34
0.34
0.25
0.10
-0.06
-0.18
-0.23
-0.17
0.01
0.25
0.49
0.64
0.63
0.46
0.18
-0.15
-0.42
-0.58
-0.57
-0.39
-0.10
0.23
0.49
0.60
0.50
0.25
-0.04
-0.22
-0.19
0.06
0.43
0.72
0.79
0.54
0.03
-0.58
-1.08
-1.32
-1.21
-0.82
-0.29
0.20
0.49
0.48
0.17
-0.31
-0.82
-1.18
-1.30
-1.15
-0.84
-0.48
-0.20
-0.06
-0.05
-0.09
-0.08
0.04
0.30
0.64
0.98
1.22
1.32
1.27
1.11
0.88
0.62
0.33
0.05
-0.20
-0.36
-0.38
-0.26
-0.04
0.18
0.35
0.43
0.46
0.48
0.50
0.49
0.39
0.20
-0.02
-0.21
-0.28
-0.24
-0.15
-0.08
-0.07
-0.11
-0.13
-0.11
-0.07
-0.07
-0.15
-0.28
-0.35
-0.27
-0.00
0.38
0.73
0.89
0.78
0.45
0.02
-0.37
-0.64
-0.77
-0.81
-0.84
-0.92
-1.03
-1.12
-1.10
-0.87
-0.45
0.07
0.52
0.77
0.76
0.54
0.24
-0.01
-0.15
-0.17
-0.14
-0.09
0.02
0.22
0.50
0.77
0.91
0.82
0.51
0.08
-0.30
-0.50
-0.46
-0.24
0.06
0.31
0.43
0.38
0.16
-0.20
-0.58
-0.86
-0.93
-0.75
-0.37
0.08
0.46
0.66
0.68
0.58
0.45
0.35
0.30
0.26
0.19
0.09
-0.04
-0.16
-0.24
-0.30
-0.36
-0.44
-0.50
-0.51
-0.45
-0.36
-0.29
-0.30
-0.41
-0.58
-0.75
-0.86
-0.89
-0.84
-0.71
-0.49
-0.16
0.25
0.66
0.92
0.92
0.68
0.32
0.05
0.01
0.21
0.54
0.83
0.94
0.83
0.54
0.18
-0.15
-0.40
-0.54
-0.57
-0.51
-0.37
-0.19
-0.01
0.18
0.41
0.69
0.96
1.14
1.13
0.89
0.49
0.08
-0.19
-0.24
-0.11
0.07
0.20
0.24
0.23
0.20
0.21
0.23
0.24
0.24
0.25
0.30
0.39
0.46
0.45
0.32
0.10
-0.17
-0.41
-0.57
-0.67
-0.72
-0.77
-0.82
-0.82
-0.74
-0.54
-0.26
0.05
0.29
0.41
0.40
0.35
0.32
0.40
0.56
0.70
0.70
0.50
0.09
-0.39
-0.81
-1.05
-1.09
-0.99
-0.83
-0.67
-0.51
-0.32
-0.09
0.18
0.39
0.46
0.34
0.09
-0.17
-0.28
-0.18
0.08
0.37
0.52
0.48
0.32
0.17
0.14
0.27
0.46
0.59
0.59
0.46
0.30
0.16
0.06
-0.05
-0.22
-0.47
-0.72
-0.88
-0.89
-0.71
-0.38
-0.00
0.29
0.41
0.35
0.18
0.03
0.04
0.23
0.55
0.86
1.04
1.04
0.90
0.72
0.53
0.31
0.01
-0.38
-0.80
-1.14
-1.29
-1.21
-0.96
-0.66
-0.40
-0.21
-0.11
-0.06
-0.06
-0.10
-0.18
-0.27
-0.34
-0.37
-0.34
-0.27
-0.21
-0.19
-0.23
-0.34
-0.50
-0.69
-0.85
-0.92
-0.85
-0.62
-0.26
0.16
0.54
0.79
0.84
0.67
0.33
-0.07
-0.39
-0.52
-0.40
-0.12
0.19
0.38
0.40
0.28
0.15
0.15
0.32
0.61
0.89
1.03
0.96
0.70
0.35
0.02
-0.20
-0.26
-0.17
-0.00
0.15
0.24
0.24
0.17
0.08
-0.02
-0.12
-0.23
-0.32
-0.33
-0.18
0.13
0.57
0.99
1.23
1.18
0.82
0.28
-0.26
-0.62
-0.68
-0.49
-0.16
0.14
0.34
0.41
0.42
0.46
0.53
0.62
0.64
0.52
0.24
-0.19
-0.68
-1.11
-1.37
-1.41
-1.22
-0.88
-0.50
-0.17
0.05
0.19
0.28
0.33
0.36
0.34
0.27
0.15
0.04
-0.04
-0.08
-0.10
-0.14
-0.18
-0.21
-0.20
-0.14
-0.05
0.01
0.02
-0.05
-0.19
-0.35
-0.50
-0.58
-0.56
-0.43
-0.19
0.10
0.36
0.53
0.55
0.43
0.23
0.03
-0.09
-0.08
0.03
0.21
0.36
0.46
0.49
0.47
0.42
0.34
0.23
0.07
-0.14
-0.41
-0.67
-0.87
-0.96
-0.89
-0.68
-0.37
-0.03
0.29
0.52
0.64
0.66
0.57
0.42
0.25
0.08
-0.08
-0.22
-0.35
-0.44
-0.43
-0.28
-0.02
0.29
0.52
0.54
0.33
-0.03
-0.38
-0.55
-0.50
-0.27
-0.02
0.12
0.08
-0.08
-0.26
-0.36
-0.36
-0.27
-0.15
-0.02
0.09
0.21
0.34
0.42
0.43
0.34
0.17
-0.01
-0.09
-0.04
0.12
0.34
0.50
0.55
0.49
0.35
0.25
0.24
0.37
0.59
0.79
0.87
0.75
0.45
0.02
-0.40
-0.72
-0.87
-0.84
-0.68
-0.47
-0.30
-0.26
-0.38
-0.62
-0.85
-0.93
-0.74
-0.33
0.18
0.58
0.73
0.60
0.32
0.07
-0.02
0.07
0.29
0.51
0.65
0.68
0.62
0.55
0.49
0.46
0.46
0.46
0.44
0.38
0.25
0.02
-0.28
-0.62
-0.89
-1.03
-0.97
-0.71
-0.32
0.05
0.30
0.36
0.26
0.11
0.02
0.05
0.16
0.25
0.22
0.05
-0.20
-0.44
-0.57
-0.55
-0.42
-0.27
-0.17
-0.12
-0.11
-0.08
0.01
0.16
0.34
0.51
0.62
0.61
0.51
0.31
0.10
-0.07
-0.19
-0.25
-0.31
-0.39
-0.49
-0.57
-0.59
-0.53
-0.40
-0.23
-0.07
0.08
0.20
0.29
0.32
0.28
0.15
-0.03
-0.19
-0.27
-0.26
-0.18
-0.12
-0.10
-0.14
-0.15
-0.07
0.10
0.32
0.47
0.47
0.32
0.08
-0.15
-0.27
-0.29
-0.26
-0.24
-0.27
-0.33
-0.37
-0.34
-0.23
-0.04
0.18
0.40
0.62
0.84
1.05
1.21
1.26
1.16
0.88
0.47
0.02
-0.37
-0.60
-0.63
-0.51
-0.30
-0.09
0.04
0.07
-0.02
-0.20
-0.43
-0.65
-0.78
-0.77
-0.61
-0.36
-0.10
0.08
0.11
0.02
-0.14
-0.28
-0.32
-0.22
0.00
0.29
0.56
0.70
0.63
0.32
-0.18
-0.70
-1.08
-1.17
-0.95
-0.49
0.04
0.47
0.67
0.61
0.31
-0.11
-0.54
-0.84
-0.92
-0.70
-0.21
0.47
1.16
1.67
1.87
1.70
1.26
0.72
0.28
0.06
0.05
0.16
0.22
0.15
-0.07
-0.34
-0.56
-0.64
-0.62
-0.57
-0.52
-0.51
-0.47
-0.39
-0.24
-0.12
-0.09
-0.20
-0.43
-0.66
-0.77
-0.66
-0.33
0.14
0.61
0.96
1.12
1.13
1.04
0.90
0.73
0.49
0.17
-0.15
-0.39
-0.44
-0.32
-0.13
-0.04
-0.17
-0.48
-0.84
-1.03
-0.94
-0.61
-0.19
0.15
0.30
0.29
0.22
0.20
0.27
0.42
0.56
0.58
0.44
0.17
-0.15
-0.41
-0.52
-0.49
-0.38
-0.30
-0.31
-0.42
-0.56
-0.65
-0.64
-0.51
-0.31
-0.13
0.00
0.08
0.12
0.13
0.11
0.05
-0.02
-0.06
-0.04
0.08
0.26
0.44
0.54
0.51
0.36
0.16
0.01
-0.02
0.06
0.20
0.34
0.41
0.41
0.39
0.39
0.45
0.55
0.66
0.72
0.67
0.47
0.16
-0.20
-0.51
-0.67
-0.61
-0.35
0.04
0.45
0.75
0.87
0.80
0.56
0.22
-0.16
-0.51
-0.75
-0.83
-0.71
-0.44
-0.12
0.14
0.25
0.18
-0.03
-0.30
-0.55
-0.71
-0.72
-0.60
-0.36
-0.09
0.12
0.18
0.05
-0.22
-0.49
-0.62
-0.55
-0.29
0.04
0.28
0.39
0.38
0.32
0.28
0.27
0.28
0.27
0.20
0.10
0.00
-0.06
-0.06
-0.02
0.05
0.11
0.13
0.06
-0.11
-0.35
-0.57
-0.68
-0.64
-0.45
-0.20
-0.01
0.06
0.03
-0.06
-0.10
-0.05
0.08
0.22
0.30
0.30
0.21
0.07
-0.06
-0.14
-0.17
-0.18
-0.22
-0.28
-0.32
-0.27
-0.07
0.28
0.69
1.03
1.19
1.09
0.77
0.32
-0.14
-0.50
-0.69
-0.72
-0.61
-0.42
-0.21
-0.03
0.07
0.10
0.06
0.00
-0.05
-0.07
-0.06
-0.02
0.04
0.11
0.18
0.21
0.21
0.16
0.11
0.09
0.13
0.24
0.37
0.48
0.52
0.49
0.40
0.27
0.14
0.03
-0.03
-0.06
-0.04
0.02
0.08
0.13
0.11
-0.00
-0.23
-0.52
-0.77
-0.87
-0.75
-0.44
-0.05
0.25
0.35
0.24
-0.01
-0.25
-0.40
-0.43
-0.43
-0.43
-0.48
-0.53
-0.51
-0.39
-0.15
0.12
0.38
0.56
0.68
0.73
0.72
0.61
0.38
0.01
-0.41
-0.77
-0.92
-0.79
-0.45
-0.04
0.29
0.45
0.47
0.42
0.38
0.36
0.34
0.30
0.32
0.46
0.79
1.23
1.59
1.67
1.36
0.75
0.09
-0.37
-0.48
-0.28
0.03
0.24
0.24
0.08
-0.16
-0.37
-0.50
-0.60
-0.70
-0.85
-1.01
-1.15
-1.20
-1.15
-1.00
-0.79
-0.56
-0.36
-0.21
-0.08
0.08
0.30
0.56
0.81
0.96
0.94
0.75
0.45
0.15
-0.11
-0.31
-0.46
-0.56
-0.57
-0.47
-0.25
0.01
0.18
0.18
-0.01
-0.30
-0.56
-0.69
-0.66
-0.53
-0.39
-0.27
-0.16
-0.06
0.06
0.18
0.27
0.31
0.35
0.41
0.52
0.62
0.66
0.57
0.34
0.03
-0.26
-0.42
-0.42
-0.25
-0.01
0.23
0.39
0.45
0.43
0.37
0.32
0.31
0.35
0.40
0.41
0.35
0.22
0.07
-0.03
-0.04
0.00
0.03
-0.02
-0.16
-0.34
-0.45
-0.42
-0.24
0.01
0.25
0.38
0.42
0.39
0.35
0.31
0.24
0.10
-0.12
-0.38
-0.61
-0.73
-0.73
-0.65
-0.55
-0.51
-0.54
-0.60
-0.63
-0.55
-0.35
-0.09
0.14
0.29
0.32
0.26
0.16
0.06
-0.03
-0.10
-0.16
-0.17
-0.14
-0.05
0.04
0.12
0.16
0.18
0.21
0.23
0.22
0.16
0.04
-0.11
-0.22
-0.22
-0.11
0.10
0.33
0.52
0.62
0.61
0.49
0.31
0.14
0.07
0.15
0.38
0.66
0.85
0.84
0.58
0.17
-0.27
-0.58
-0.68
-0.55
-0.26
0.09
0.40
0.56
0.54
0.37
0.14
-0.06
-0.17
-0.24
-0.34
-0.50
-0.68
-0.77
-0.67
-0.37
0.02
0.33
0.40
0.23
-0.08
-0.37
-0.52
-0.50
-0.38
-0.24
-0.10
0.06
0.27
0.54
0.82
1.03
1.09
0.95
0.66
0.31
0.01
-0.14
-0.17
-0.14
-0.15
-0.23
-0.36
-0.47
-0.47
-0.36
-0.20
-0.11
-0.15
-0.30
-0.46
-0.52
-0.43
-0.25
-0.07
0.00
-0.07
-0.22
-0.40
-0.51
-0.55
-0.49
-0.35
-0.17
0.02
0.18
0.26
0.23
0.13
-0.00
-0.10
-0.12
-0.07
-0.02
-0.00
-0.06
-0.14
-0.18
-0.12
0.05
0.29
0.51
0.65
0.67
0.62
0.54
0.45
0.37
0.27
0.14
-0.00
-0.11
-0.14
-0.09
-0.00
0.07
0.09
0.04
-0.06
-0.15
-0.22
-0.25
-0.26
-0.23
-0.14
0.05
0.32
0.62
0.89
1.03
1.00
0.81
0.49
0.10
-0.32
-0.73
-1.04
-1.20
-1.19
-1.03
-0.82
-0.64
-0.54
-0.51
-0.47
-0.35
-0.14
0.12
0.36
0.52
0.60
0.62
0.61
0.59
0.56
0.50
0.41
0.29
0.15
0.04
-0.03
-0.02
0.08
0.24
0.39
0.49
0.49
0.40
0.23
0.02
-0.19
-0.37
-0.51
-0.59
-0.62
-0.58
-0.50
-0.39
-0.25
-0.11
0.04
0.21
0.41
0.60
0.77
0.85
0.82
0.69
0.52
0.35
0.24
0.18
0.14
0.05
-0.09
-0.25
-0.39
-0.50
-0.64
-0.84
-1.10
-1.36
-1.49
-1.39
-1.07
-0.61
-0.20
0.04
0.08
-0.00
-0.10
-0.13
-0.09
-0.02
-0.02
-0.12
-0.30
-0.50
-0.60
-0.52
-0.22
0.24
0.74
1.10
1.20
1.04
0.72
0.42
0.25
0.24
0.31
0.34
0.28
0.15
0.08
0.13
0.29
0.47
0.53
0.37
0.03
-0.36
-0.64
-0.71
-0.54
-0.22
0.10
0.31
0.36
0.25
0.06
-0.14
-0.27
-0.31
-0.30
-0.30
-0.34
-0.40
-0.41
-0.31
-0.08
0.21
0.48
0.62
0.64
0.59
0.54
0.55
0.62
0.67
0.66
0.56
0.40
0.25
0.14
0.10
0.11
0.13
0.12
0.07
-0.01
-0.08
-0.09
0.01
0.20
0.39
0.49
0.41
0.13
-0.26
-0.62
-0.85
-0.92
-0.87
-0.79
-0.77
-0.81
-0.83
-0.78
-0.63
-0.42
-0.20
-0.02
0.11
0.21
0.27
0.26
0.12
-0.16
-0.51
-0.81
-0.93
-0.81
-0.48
-0.07
0.30
0.52
0.58
0.54
0.46
0.38
0.27
0.13
-0.06
-0.23
-0.29
-0.18
0.09
0.41
0.60
0.54
0.22
-0.25
-0.65
-0.84
-0.79
-0.58
-0.34
-0.15
-0.01
0.15
0.37
0.66
0.95
1.16
1.23
1.14
0.95
0.71
0.48
0.26
0.08
-0.07
-0.18
-0.24
-0.24
-0.17
-0.06
0.08
0.23
0.34
0.40
0.40
0.31
0.13
-0.10
-0.34
-0.52
-0.61
-0.63
-0.62
-0.64
-0.66
-0.63
-0.48
-0.22
0.04
0.18
0.09
-0.20
-0.53
-0.72
-0.65
-0.34
0.05
0.35
0.45
0.38
0.26
0.18
0.22
0.35
0.49
0.57
0.60
0.59
0.59
0.60
0.61
0.55
0.41
0.20
-0.05
-0.28
-0.47
-0.59
-0.63
-0.61
-0.54
-0.45
-0.38
-0.34
-0.33
-0.27
-0.11
0.17
0.50
0.74
0.75
0.49
0.05
-0.36
-0.54
-0.41
-0.02
0.46
0.83
0.96
0.84
0.57
0.29
0.09
-0.01
-0.07
-0.12
-0.17
-0.20
-0.15
-0.03
0.12
0.19
0.09
-0.18
-0.57
-0.95
-1.21
-1.27
-1.13
-0.85
-0.50
-0.17
0.05
0.13
0.07
-0.06
-0.18
-0.23
-0.19
-0.08
0.06
0.25
0.50
0.81
1.12
1.28
1.16
0.72
0.07
-0.55
-0.88
-0.85
-0.52
-0.13
0.10
0.06
-0.17
-0.41
-0.54
-0.52
-0.42
-0.35
-0.35
-0.37
-0.29
-0.07
0.26
0.57
0.73
0.65
0.40
0.10
-0.12
-0.19
-0.18
-0.18
-0.25
-0.37
-0.45
-0.39
-0.18
0.12
0.41
0.61
0.72
0.78
0.82
0.82
0.74
0.54
0.26
-0.01
-0.17
-0.16
-0.01
0.21
0.43
0.61
0.72
0.75
0.68
0.47
0.16
-0.21
-0.52
-0.69
-0.70
-0.58
-0.41
-0.24
-0.11
-0.04
-0.03
-0.06
-0.13
-0.20
-0.22
-0.15
-0.01
0.13
0.17
0.09
-0.11
-0.33
-0.48
-0.52
-0.47
-0.38
-0.28
-0.17
-0.02
0.19
0.45
0.68
0.80
0.79
0.65
0.44
0.22
0.04
-0.11
-0.23
-0.36
-0.49
-0.59
-0.64
-0.58
-0.43
-0.21
-0.00
0.13
0.16
0.09
-0.03
-0.13
-0.16
-0.12
-0.02
0.08
0.14
0.14
0.08
-0.02
-0.14
-0.23
-0.26
-0.21
-0.09
0.04
0.12
0.11
0.01
-0.11
-0.21
-0.23
-0.18
-0.12
-0.10
-0.15
-0.21
-0.23
-0.15
0.03
0.24
0.42
0.51
0.48
0.38
0.26
0.17
0.16
0.25
0.42
0.63
0.79
0.84
0.73
0.47
0.12
-0.27
-0.64
-0.96
-1.21
-1.36
-1.35
-1.12
-0.66
-0.03
0.60
1.05
1.19
1.00
0.58
0.11
-0.26
-0.44
-0.41
-0.23
0.03
0.27
0.44
0.54
0.56
0.53
0.46
0.36
0.24
0.11
0.02
0.00
0.06
0.16
0.21
0.13
-0.08
-0.37
-0.63
-0.74
-0.70
-0.55
-0.40
-0.32
-0.32
-0.35
-0.37
-0.32
-0.22
-0.10
-0.00
0.02
-0.01
-0.06
-0.09
-0.06
0.00
0.04
0.01
-0.11
-0.24
-0.29
-0.17
0.10
0.44
0.71
0.79
0.63
0.30
-0.10
-0.44
-0.64
-0.68
-0.60
-0.44
-0.28
-0.15
-0.04
0.08
0.23
0.39
0.51
0.53
0.41
0.21
0.01
-0.09
-0.06
0.05
0.11
0.07
-0.10
-0.31
-0.44
-0.40
-0.17
0.17
0.52
0.75
0.81
0.72
0.52
0.30
0.12
0.02
0.02
0.09
0.21
0.32
0.36
0.30
0.14
-0.10
-0.33
-0.48
-0.50
-0.40
-0.23
-0.07
0.03
0.01
-0.09
-0.24
-0.37
-0.44
-0.42
-0.34
-0.21
-0.08
0.06
0.23
0.44
0.67
0.84
0.89
0.77
0.53
0.27
0.11
0.13
0.26
0.37
0.33
0.06
-0.34
-0.69
-0.82
-0.64
-0.23
0.20
0.42
0.32
-0.04
-0.47
-0.79
-0.90
-0.85
-0.77
-0.73
-0.75
-0.75
-0.63
-0.37
-0.02
0.27
0.39
0.33
0.14
-0.06
-0.17
-0.14
-0.03
0.09
0.17
0.20
0.22
0.28
0.40
0.57
0.74
0.81
0.74
0.51
0.15
-0.23
-0.51
-0.61
-0.49
-0.21
0.08
0.27
0.26
0.07
-0.20
-0.45
-0.58
-0.58
-0.47
-0.29
-0.07
0.19
0.46
0.68
0.74
0.57
0.16
-0.36
-0.81
-1.03
-0.95
-0.62
-0.18
0.20
0.45
0.55
0.58
0.59
0.63
0.69
0.72
0.70
0.61
0.46
0.30
0.18
0.14
0.18
0.28
0.37
0.36
0.20
-0.08
-0.37
-0.57
-0.57
-0.39
-0.10
0.18
0.33
0.31
0.14
-0.11
-0.33
-0.45
-0.44
-0.30
-0.08
0.15
0.32
0.39
0.34
0.16
-0.12
-0.46
-0.78
-1.00
-1.04
-0.89
-0.60
-0.27
-0.01
0.11
0.07
-0.04
-0.12
-0.11
0.03
0.22
0.38
0.40
0.25
-0.00
-0.26
-0.40
-0.37
-0.22
-0.03
0.11
0.17
0.18
0.19
0.20
0.19
0.09
-0.10
-0.34
-0.53
-0.58
-0.47
-0.27
-0.09
-0.02
-0.05
-0.13
-0.17
-0.15
-0.12
-0.13
-0.20
-0.29
-0.28
-0.09
0.25
0.65
0.96
1.08
0.97
0.72
0.43
0.21
0.13
0.16
0.28
0.44
0.60
0.73
0.82
0.83
0.74
0.52
0.19
-0.19
-0.53
-0.72
-0.68
-0.38
0.10
0.63
1.01
1.12
0.91
0.44
-0.13
-0.65
-0.97
-1.09
-1.05
-0.94
-0.82
-0.72
-0.66
-0.63
-0.61
-0.59
-0.54
-0.41
-0.19
0.08
0.34
0.52
0.60
0.58
0.50
0.37
0.22
0.05
-0.13
-0.25
-0.28
-0.19
-0.02
0.18
0.33
0.40
0.41
0.36
0.28
0.17
0.02
-0.16
-0.34
-0.45
-0.47
-0.39
-0.27
-0.18
-0.17
-0.22
-0.27
-0.24
-0.12
0.07
0.24
0.32
0.27
0.16
0.06
0.07
0.22
0.45
0.64
0.67
0.51
0.17
-0.24
-0.60
-0.82
-0.85
-0.74
-0.52
-0.27
-0.02
0.16
0.27
0.29
0.24
0.17
0.11
0.09
0.13
0.20
0.29
0.37
0.45
0.48
0.46
0.37
0.24
0.10
-0.00
-0.03
0.00
0.05
0.06
0.02
-0.09
-0.24
-0.39
-0.52
-0.62
-0.68
-0.67
-0.57
-0.34
-0.03
0.30
0.51
0.53
0.34
0.04
-0.26
-0.44
-0.44
-0.31
-0.16
-0.04
0.02
0.05
0.12
0.27
0.47
0.67
0.81
0.86
0.79
0.64
0.44
0.23
0.01
-0.19
-0.38
-0.58
-0.75
-0.85
-0.85
-0.74
-0.57
-0.37
-0.17
0.03
0.27
0.57
0.90
1.17
1.30
1.19
0.85
0.37
-0.14
-0.55
-0.77
-0.78
-0.62
-0.36
-0.13
-0.01
-0.02
-0.10
-0.13
-0.06
0.13
0.36
0.50
0.48
0.30
0.06
-0.15
-0.25
-0.24
-0.17
-0.15
-0.21
-0.35
-0.46
-0.46
-0.28
0.07
0.48
0.80
0.90
0.72
0.30
-0.22
-0.69
-0.99
-1.07
-0.95
-0.70
-0.40
-0.15
0.01
0.08
0.12
0.18
0.28
0.39
0.44
0.35
0.14
-0.10
-0.25
-0.22
-0.01
0.30
0.58
0.71
0.68
0.52
0.28
0.03
-0.20
-0.36
-0.41
-0.32
-0.09
0.19
0.43
0.54
0.49
0.33
0.17
0.06
0.01
-0.03
-0.13
-0.33
-0.58
-0.76
-0.80
-0.69
-0.50
-0.36
-0.31
-0.35
-0.36
-0.26
-0.02
0.30
0.57
0.68
0.58
0.32
-0.00
-0.30
-0.50
-0.63
-0.69
-0.72
-0.73
-0.66
-0.50
-0.21
0.17
0.58
0.90
1.04
0.95
0.67
0.32
0.00
-0.19
-0.22
-0.11
0.08
0.33
0.57
0.77
0.88
0.85
0.66
0.35
0.00
-0.28
-0.41
-0.36
-0.20
-0.03
0.03
-0.07
-0.30
-0.57
-0.81
-0.98
-1.12
-1.23
-1.29
-1.22
-0.92
-0.35
0.39
1.12
1.63
1.74
1.45
0.89
0.30
-0.13
-0.28
-0.19
0.03
0.26
0.40
0.47
0.52
0.59
0.68
0.74
0.67
0.42
0.01
-0.45
-0.84
-1.04
-1.02
-0.82
-0.51
-0.19
0.04
0.11
0.03
-0.20
-0.50
-0.78
-0.96
-0.99
-0.87
-0.66
-0.43
-0.23
-0.08
0.03
0.15
0.29
0.47
0.64
0.77
0.84
0.83
0.78
0.72
0.66
0.60
0.51
0.38
0.20
0.00
-0.17
-0.26
-0.23
-0.10
0.06
0.20
0.24
0.19
0.09
-0.01
-0.06
-0.05
-0.05
-0.09
-0.20
-0.31
-0.36
-0.31
-0.17
-0.03
0.03
-0.02
-0.18
-0.38
-0.54
-0.58
-0.49
-0.30
-0.06
0.18
0.38
0.52
0.60
0.62
0.60
0.54
0.47
0.39
0.31
0.23
0.13
-0.01
-0.16
-0.31
-0.43
-0.49
-0.48
-0.41
-0.30
-0.21
-0.19
-0.27
-0.43
-0.65
-0.84
-0.97
-0.99
-0.89
-0.67
-0.33
0.08
0.50
0.86
1.05
1.04
0.88
0.67
0.53
0.51
0.58
0.63
0.59
0.46
0.30
0.20
0.18
0.18
0.13
-0.02
-0.25
-0.50
-0.68
-0.75
-0.71
-0.59
-0.40
-0.19
-0.00
0.13
0.14
0.03
-0.17
-0.35
-0.40
-0.27
0.02
0.37
0.66
0.80
0.78
0.61
0.35
0.07
-0.20
-0.40
-0.51
-0.50
-0.40
-0.24
-0.11
-0.06
-0.11
-0.25
-0.43
-0.55
-0.53
-0.34
-0.00
0.38
0.68
0.79
0.68
0.41
0.11
-0.09
-0.13
-0.03
0.15
0.29
0.36
0.35
0.28
0.17
0.03
-0.11
-0.26
-0.35
-0.35
-0.25
-0.06
0.13
0.28
0.34
0.31
0.25
0.22
0.23
0.28
0.29
0.20
-0.03
-0.34
-0.62
-0.75
-0.67
-0.40
-0.06
0.21
0.34
0.33
0.25
0.17
0.12
0.10
0.08
0.06
0.03
0.00
-0.04
-0.10
-0.18
-0.23
-0.22
-0.12
0.02
0.12
0.08
-0.13
-0.42
-0.69
-0.84
-0.85
-0.75
-0.63
-0.50
-0.35
-0.14
0.13
0.43
0.67
0.78
0.74
0.60
0.44
0.35
0.35
0.40
0.45
0.45
0.41
0.34
0.22
0.04
-0.21
-0.51
-0.79
-0.97
-0.97
-0.81
-0.51
-0.18
0.14
0.42
0.64
0.76
0.76
0.59
0.29
-0.06
-0.33
-0.43
-0.33
-0.11
0.09
0.17
0.09
-0.10
-0.34
-0.52
-0.62
-0.63
-0.58
-0.48
-0.36
-0.25
-0.19
-0.20
-0.28
-0.37
-0.38
-0.24
0.05
0.40
0.71
0.89
0.89
0.75
0.52
0.27
0.04
-0.11
-0.13
-0.01
0.23
0.51
0.70
0.76
0.67
0.51
0.36
0.26
0.20
0.11
-0.02
-0.19
-0.32
-0.34
-0.21
0.04
0.35
0.62
0.78
0.80
0.67
0.43
0.13
-0.19
-0.50
-0.75
-0.94
-1.02
-0.97
-0.76
-0.41
0.04
0.49
0.81
0.92
0.79
0.47
0.08
-0.28
-0.52
-0.65
-0.69
-0.69
-0.68
-0.63
-0.52
-0.34
-0.11
0.10
0.23
0.26
0.23
0.23
0.29
0.44
0.62
0.75
0.79
0.74
0.64
0.50
0.35
0.17
-0.04
-0.26
-0.43
-0.54
-0.59
-0.59
-0.57
-0.55
-0.49
-0.37
-0.19
0.00
0.12
0.12
0.01
-0.14
-0.20
-0.13
0.06
0.27
0.37
0.31
0.11
-0.13
-0.28
-0.26
-0.08
0.19
0.43
0.54
0.48
0.27
-0.01
-0.27
-0.42
-0.43
-0.33
-0.17
-0.03
0.07
0.14
0.20
0.26
0.30
0.26
0.15
-0.02
-0.16
-0.25
-0.28
-0.33
-0.43
-0.60
-0.76
-0.83
-0.78
-0.64
-0.50
-0.40
-0.34
-0.26
-0.07
0.23
0.57
0.85
0.99
0.97
0.83
0.62
0.37
0.08
-0.22
-0.48
-0.63
-0.60
-0.42
-0.18
-0.00
0.06
0.02
0.01
0.12
0.37
0.64
0.78
0.66
0.31
-0.10
-0.32
-0.22
0.17
0.65
0.98
1.00
0.73
0.33
-0.02
-0.20
-0.22
-0.18
-0.22
-0.35
-0.53
-0.65
-0.62
-0.43
-0.18
-0.02
-0.05
-0.28
-0.58
-0.78
-0.75
-0.49
-0.11
0.21
0.36
0.34
0.23
0.13
0.08
0.08
0.08
0.07
0.10
0.21
0.41
0.64
0.77
0.72
0.46
0.05
-0.37
-0.67
-0.78
-0.73
-0.57
-0.39
-0.25
-0.16
-0.12
-0.09
-0.08
-0.10
-0.13
-0.17
-0.17
-0.11
0.04
0.23
0.39
0.45
0.36
0.16
-0.04
-0.15
-0.08
0.16
0.46
0.68
0.73
0.58
0.32
0.09
-0.03
-0.03
0.04
0.11
0.14
0.17
0.21
0.28
0.34
0.33
0.21
0.01
-0.20
-0.31
-0.28
-0.13
0.03
0.11
0.06
-0.10
-0.28
-0.41
-0.46
-0.46
-0.48
-0.51
-0.53
-0.46
-0.26
0.02
0.25
0.29
0.09
-0.29
-0.68
-0.90
-0.86
-0.59
-0.21
0.12
0.35
0.47
0.56
0.66
0.76
0.79
0.69
0.45
0.12
-0.21
-0.48
-0.62
-0.65
-0.60
-0.51
-0.41
-0.30
-0.16
0.02
0.23
0.45
0.63
0.73
0.72
0.59
0.38
0.12
-0.15
-0.39
-0.59
-0.71
-0.71
-0.58
-0.33
-0.01
0.29
0.49
0.58
0.58
0.56
0.55
0.57
0.56
0.44
0.14
-0.29
-0.76
-1.09
-1.17
-0.96
-0.53
-0.00
0.46
0.74
0.77
0.54
0.10
-0.44
-0.94
-1.27
-1.32
-1.06
-0.55
0.08
0.69
1.15
1.38
1.36
1.14
0.78
0.38
0.05
-0.16
-0.22
-0.16
-0.04
0.07
0.12
0.11
0.05
-0.03
-0.10
-0.16
-0.18
-0.15
-0.04
0.12
0.28
0.34
0.27
0.07
-0.19
-0.39
-0.47
-0.40
-0.21
0.02
0.24
0.43
0.59
0.72
0.79
0.76
0.61
0.37
0.08
-0.14
-0.21
-0.10
0.12
0.34
0.39
0.23
-0.12
-0.52
-0.81
-0.91
-0.82
-0.62
-0.42
-0.29
-0.22
-0.17
-0.09
0.05
0.19
0.26
0.21
0.04
-0.20
-0.38
-0.43
-0.30
-0.06
0.20
0.39
0.50
0.56
0.63
0.69
0.72
0.66
0.49
0.29
0.11
0.01
-0.06
-0.17
-0.36
-0.58
-0.71
-0.63
-0.34
0.04
0.36
0.50
0.45
0.32
0.22
0.21
0.25
0.24
0.13
-0.10
-0.37
-0.63
-0.82
-0.94
-0.99
-0.98
-0.90
-0.76
-0.60
-0.44
-0.29
-0.14
0.04
0.23
0.40
0.48
0.44
0.31
0.15
0.03
-0.02
-0.04
-0.09
-0.18
-0.30
-0.39
-0.39
-0.28
-0.09
0.14
0.37
0.59
0.78
0.94
1.04
1.04
0.94
0.74
0.50
0.25
0.04
-0.12
-0.25
-0.35
-0.44
-0.49
-0.49
-0.42
-0.33
-0.25
-0.26
-0.35
-0.48
-0.55
-0.50
-0.31
0.01
0.35
0.63
0.80
0.80
0.65
0.36
-0.00
-0.33
-0.51
-0.47
-0.23
0.08
0.30
0.28
0.02
-0.37
-0.70
-0.78
-0.58
-0.21
0.16
0.38
0.41
0.31
0.22
0.22
0.33
0.47
0.52
0.44
0.23
-0.05
-0.33
-0.56
-0.74
-0.87
-0.94
-0.92
-0.79
-0.59
-0.39
-0.25
-0.22
-0.24
-0.22
-0.10
0.13
0.40
0.64
0.80
0.89
0.99
1.11
1.21
1.20
1.04
0.70
0.28
-0.10
-0.36
-0.47
-0.47
-0.45
-0.42
-0.38
-0.30
-0.19
-0.07
-0.02
-0.07
-0.21
-0.37
-0.44
-0.35
-0.10
0.22
0.49
0.57
0.45
0.19
-0.11
-0.33
-0.42
-0.40
-0.32
-0.22
-0.16
-0.11
-0.07
-0.04
-0.04
-0.12
-0.28
-0.52
-0.74
-0.87
-0.82
-0.60
-0.24
0.15
0.44
0.57
0.55
0.43
0.30
0.24
0.26
0.34
0.47
0.59
0.68
0.73
0.70
0.62
0.49
0.34
0.21
0.15
0.18
0.30
0.49
0.72
0.92
1.00
0.89
0.55
0.05
-0.48
-0.85
-0.93
-0.72
-0.31
0.12
0.42
0.52
0.43
0.28
0.13
0.04
-0.04
-0.17
-0.39
-0.66
-0.88
-0.96
-0.82
-0.48
-0.04
0.36
0.60
0.64
0.51
0.29
0.06
-0.12
-0.25
-0.34
-0.41
-0.47
-0.53
-0.57
-0.61
-0.62
-0.61
-0.56
-0.49
-0.41
-0.35
-0.31
-0.30
-0.29
-0.30
-0.31
-0.32
-0.29
-0.17
0.07
0.42
0.77
0.98
0.96
0.69
0.28
-0.11
-0.32
-0.30
-0.07
0.21
0.44
0.53
0.49
0.36
0.22
0.11
0.06
0.05
0.05
0.03
-0.04
-0.12
-0.18
-0.18
-0.09
0.04
0.14
0.10
-0.10
-0.41
-0.71
-0.87
-0.81
-0.56
-0.23
0.05
0.16
0.09
-0.14
-0.41
-0.60
-0.63
-0.45
-0.10
0.30
0.62
0.74
0.65
0.42
0.18
0.08
0.17
0.39
0.62
0.72
0.65
0.48
0.32
0.28
0.36
0.47
0.48
0.32
0.02
-0.29
-0.45
-0.39
-0.15
0.13
0.30
0.28
0.12
-0.08
-0.22
-0.29
-0.31
-0.36
-0.46
-0.56
-0.58
-0.48
-0.25
0.04
0.31
0.48
0.56
0.53
0.41
0.22
-0.00
-0.21
-0.33
-0.31
-0.15
0.09
0.31
0.42
0.38
0.18
-0.12
-0.47
-0.80
-1.05
-1.18
-1.14
-0.93
-0.58
-0.14
0.28
0.56
0.61
0.42
0.04
-0.38
-0.70
-0.80
-0.64
-0.28
0.18
0.64
0.99
1.17
1.16
0.98
0.70
0.39
0.12
-0.06
-0.12
-0.06
0.11
0.35
0.61
0.82
0.89
0.78
0.52
0.21
-0.00
-0.05
0.04
0.17
0.22
0.12
-0.11
-0.41
-0.70
-0.94
-1.14
-1.28
-1.34
-1.23
-0.92
-0.46
0.01
0.30
0.30
-0.01
-0.46
-0.85
-0.99
-0.80
-0.35
0.21
0.72
1.03
1.09
0.90
0.56
0.17
-0.16
-0.35
-0.38
-0.30
-0.18
-0.08
-0.03
-0.01
-0.00
0.02
0.07
0.15
0.26
0.40
0.56
0.72
0.83
0.83
0.73
0.53
0.28
0.01
-0.24
-0.48
-0.71
-0.91
-1.06
-1.13
-1.06
-0.85
-0.51
-0.11
0.25
0.49
0.55
0.47
0.29
0.12
0.04
0.11
0.31
0.56
0.77
0.82
0.66
0.32
-0.10
-0.43
-0.57
-0.53
-0.37
-0.20
-0.08
0.03
0.19
0.39
0.55
0.51
0.20
-0.29
-0.73
-0.83
-0.47
0.24
1.01
1.50
1.51
1.11
0.50
-0.06
-0.43
-0.62
-0.70
-0.75
-0.76
-0.68
-0.49
-0.22
0.03
0.16
0.14
-0.00
-0.18
-0.29
-0.29
-0.19
-0.01
0.17
0.32
0.42
0.46
0.46
0.41
0.34
0.27
0.21
0.19
0.23
0.30
0.37
0.40
0.36
0.27
0.16
0.10
0.06
0.02
-0.07
-0.24
-0.46
-0.63
-0.69
-0.63
-0.47
-0.28
-0.11
0.04
0.18
0.29
0.36
0.32
0.14
-0.13
-0.42
-0.62
-0.70
-0.66
-0.55
-0.43
-0.32
-0.19
-0.03
0.17
0.39
0.55
0.62
0.59
0.50
0.39
0.29
0.19
0.04
-0.18
-0.46
-0.74
-0.96
-1.09
-1.12
-1.05
-0.92
-0.72
-0.49
-0.29
-0.16
-0.13
-0.18
-0.19
-0.07
0.23
0.65
1.04
1.26
1.23
0.97
0.59
0.20
-0.07
-0.15
-0.03
0.24
0.59
0.90
1.06
1.01
0.76
0.37
-0.07
-0.45
-0.70
-0.79
-0.71
-0.50
-0.21
0.10
0.34
0.48
0.48
0.35
0.12
-0.15
-0.39
-0.54
-0.57
-0.48
-0.35
-0.24
-0.23
-0.29
-0.36
-0.33
-0.16
0.15
0.51
0.81
0.97
0.96
0.80
0.53
0.21
-0.13
-0.44
-0.69
-0.81
-0.78
-0.59
-0.30
0.02
0.27
0.39
0.32
0.10
-0.20
-0.47
-0.63
-0.60
-0.41
-0.12
0.20
0.46
0.63
0.68
0.61
0.41
0.15
-0.11
-0.30
-0.34
-0.24
-0.05
0.14
0.30
0.43
0.57
0.73
0.90
0.96
0.84
0.48
-0.05
-0.60
-1.04
-1.24
-1.21
-1.00
-0.68
-0.35
-0.04
0.20
0.35
0.40
0.35
0.19
-0.00
-0.19
-0.31
-0.35
-0.30
-0.19
-0.07
0.02
0.03
-0.07
-0.24
-0.39
-0.42
-0.28
0.00
0.27
0.41
0.35
0.15
-0.04
-0.09
0.02
0.23
0.41
0.43
0.29
0.07
-0.14
-0.25
-0.28
-0.31
-0.41
-0.59
-0.80
-0.86
-0.66
-0.18
0.48
1.09
1.42
1.38
1.05
0.63
0.31
0.19
0.21
0.22
0.11
-0.12
-0.33
-0.36
-0.14
0.26
0.68
0.91
0.87
0.57
0.18
-0.18
-0.40
-0.49
-0.53
-0.59
-0.69
-0.80
-0.88
-0.88
-0.80
-0.65
-0.48
-0.32
-0.23
-0.26
-0.41
-0.65
-0.87
-0.92
-0.70
-0.21
0.43
1.02
1.38
1.43
1.19
0.80
0.36
-0.03
-0.33
-0.53
-0.61
-0.54
-0.31
0.05
0.47
0.81
0.95
0.86
0.56
0.19
-0.12
-0.27
-0.23
-0.08
0.11
0.28
0.42
0.55
0.68
0.77
0.76
0.60
0.27
-0.15
-0.55
-0.81
-0.86
-0.69
-0.38
-0.03
0.23
0.30
0.18
-0.11
-0.46
-0.78
-0.97
-1.01
-0.91
-0.70
-0.46
-0.24
-0.11
-0.10
-0.19
-0.34
-0.44
-0.39
-0.18
0.15
0.49
0.72
0.75
0.54
0.17
-0.23
-0.51
-0.58
-0.41
-0.06
0.32
0.60
0.69
0.61
0.42
0.24
0.12
0.08
0.12
0.22
0.34
0.50
0.67
0.82
0.92
0.93
0.84
0.66
0.45
0.25
0.10
0.02
0.02
0.09
0.22
0.34
0.41
0.36
0.18
-0.09
-0.38
-0.60
-0.71
-0.71
-0.66
-0.64
-0.68
-0.75
-0.79
-0.76
-0.64
-0.49
-0.37
-0.34
-0.38
-0.45
-0.45
-0.33
-0.09
0.21
0.48
0.64
0.66
0.54
0.35
0.14
-0.04
-0.15
-0.20
-0.19
-0.16
-0.15
-0.18
-0.24
-0.29
-0.28
-0.20
-0.09
-0.02
-0.04
-0.17
-0.34
-0.43
-0.37
-0.20
0.01
0.11
0.05
-0.10
-0.22
-0.17
0.09
0.45
0.72
0.73
0.45
0.03
-0.33
-0.43
-0.23
0.15
0.51
0.68
0.61
0.41
0.21
0.16
0.24
0.39
0.48
0.47
0.37
0.28
0.31
0.46
0.66
0.79
0.72
0.41
-0.08
-0.59
-0.95
-1.08
-0.99
-0.77
-0.57
-0.44
-0.39
-0.33
-0.21
-0.02
0.16
0.26
0.23
0.11
0.02
0.06
0.25
0.49
0.64
0.56
0.27
-0.13
-0.48
-0.66
-0.64
-0.50
-0.33
-0.22
-0.17
-0.12
-0.06
0.04
0.12
0.14
0.08
-0.01
-0.07
-0.08
-0.02
0.09
0.21
0.29
0.34
0.34
0.31
0.24
0.17
0.11
0.08
0.07
0.06
0.02
-0.05
-0.15
-0.25
-0.32
-0.36
-0.39
-0.41
-0.40
-0.28
-0.02
0.37
0.77
1.02
0.99
0.68
0.23
-0.15
-0.29
-0.17
0.07
0.25
0.23
-0.00
-0.34
-0.64
-0.82
-0.88
-0.86
-0.79
-0.66
-0.44
-0.12
0.22
0.46
0.51
0.37
0.15
0.01
0.07
0.30
0.59
0.76
0.69
0.40
0.01
-0.31
-0.43
-0.34
-0.09
0.18
0.39
0.48
0.48
0.40
0.25
0.02
-0.28
-0.60
-0.85
-0.91
-0.72
-0.33
0.11
0.42
0.46
0.20
-0.25
-0.69
-0.93
-0.87
-0.50
0.03
0.56
0.95
1.14
1.18
1.11
0.99
0.80
0.50
0.12
-0.25
-0.46
-0.43
-0.17
0.15
0.38
0.40
0.24
0.03
-0.12
-0.16
-0.16
-0.19
-0.31
-0.45
-0.53
-0.48
-0.35
-0.22
-0.19
-0.29
-0.44
-0.50
-0.42
-0.20
0.01
0.09
-0.03
-0.32
-0.63
-0.83
-0.83
-0.65
-0.40
-0.19
-0.09
-0.09
-0.12
-0.09
0.05
0.28
0.50
0.63
0.60
0.44
0.23
0.04
-0.06
-0.09
-0.09
-0.08
-0.06
0.01
0.13
0.27
0.37
0.39
0.34
0.24
0.16
0.14
0.16
0.19
0.19
0.15
0.09
0.03
-0.01
-0.03
-0.04
-0.05
-0.07
-0.08
-0.05
0.05
0.22
0.42
0.61
0.71
0.67
0.50
0.27
0.08
-0.01
-0.03
-0.02
-0.07
-0.19
-0.36
-0.48
-0.49
-0.41
-0.27
-0.14
-0.05
0.01
0.11
0.25
0.39
0.46
0.36
0.09
-0.26
-0.55
-0.66
-0.54
-0.26
0.03
0.22
0.27
0.21
0.13
0.08
0.04
-0.03
-0.15
-0.26
-0.30
-0.19
0.06
0.37
0.62
0.71
0.62
0.40
0.14
-0.02
-0.03
0.15
0.43
0.69
0.79
0.65
0.30
-0.12
-0.45
-0.57
-0.46
-0.23
-0.05
-0.03
-0.19
-0.44
-0.69
-0.84
-0.90
-0.89
-0.84
-0.74
-0.55
-0.28
0.05
0.31
0.39
0.24
-0.07
-0.39
-0.55
-0.47
-0.19
0.13
0.35
0.44
0.44
0.45
0.52
0.62
0.65
0.54
0.28
-0.03
-0.28
-0.38
-0.32
-0.17
-0.03
0.02
-0.07
-0.29
-0.59
-0.86
-0.98
-0.87
-0.51
-0.01
0.47
0.79
0.88
0.79
0.63
0.52
0.48
0.49
0.47
0.39
0.24
0.05
-0.14
-0.31
-0.44
-0.46
-0.35
-0.08
0.27
0.60
0.80
0.81
0.67
0.47
0.31
0.18
0.07
-0.07
-0.24
-0.40
-0.50
-0.49
-0.40
-0.28
-0.23
-0.28
-0.44
-0.64
-0.81
-0.90
-0.87
-0.72
-0.50
-0.27
-0.11
-0.06
-0.17
-0.39
-0.66
-0.87
-0.93
-0.80
-0.50
-0.13
0.23
0.48
0.61
0.62
0.59
0.54
0.51
0.51
0.57
0.68
0.86
1.08
1.29
1.41
1.36
1.10
0.69
0.25
-0.07
-0.20
-0.12
0.07
0.26
0.34
0.28
0.12
-0.06
-0.22
-0.33
-0.43
-0.55
-0.68
-0.79
-0.80
-0.68
-0.43
-0.12
0.17
0.35
0.40
0.35
0.25
0.17
0.11
0.06
-0.02
-0.13
-0.25
-0.32
-0.30
-0.16
0.05
0.26
0.43
0.49
0.43
0.28
0.06
-0.16
-0.36
-0.49
-0.54
-0.52
-0.45
-0.35
-0.24
-0.10
0.06
0.24
0.41
0.52
0.55
0.48
0.35
0.19
0.03
-0.15
-0.36
-0.60
-0.82
-0.95
-0.91
-0.70
-0.39
-0.08
0.13
0.20
0.15
0.06
-0.02
-0.07
-0.08
-0.06
-0.01
0.07
0.15
0.21
0.21
0.14
0.02
-0.12
-0.18
-0.14
0.02
0.21
0.35
0.37
0.27
0.11
-0.02
-0.07
-0.06
-0.04
-0.09
-0.25
-0.49
-0.70
-0.81
-0.73
-0.48
-0.14
0.22
0.50
0.68
0.76
0.77
0.74
0.66
0.51
0.30
0.05
-0.17
-0.29
-0.29
-0.22
-0.15
-0.12
-0.17
-0.26
-0.33
-0.36
-0.34
-0.27
-0.16
-0.01
0.19
0.39
0.55
0.60
0.49
0.26
-0.02
-0.23
-0.30
-0.20
0.04
0.38
0.73
1.06
1.31
1.42
1.33
1.04
0.60
0.13
-0.22
-0.37
-0.35
-0.26
-0.23
-0.35
-0.58
-0.83
-0.97
-0.95
-0.77
-0.53
-0.33
-0.25
-0.27
-0.35
-0.40
-0.38
-0.29
-0.18
-0.11
-0.10
-0.11
-0.09
-0.00
0.16
0.33
0.40
0.33
0.11
-0.17
-0.37
-0.36
-0.09
0.39
0.95
1.41
1.64
1.59
1.29
0.84
0.37
-0.04
-0.36
-0.57
-0.67
-0.65
-0.50
-0.25
0.01
0.15
0.08
-0.19
-0.58
-0.90
-1.01
-0.87
-0.52
-0.12
0.21
0.39
0.46
0.47
0.47
0.47
0.45
0.38
0.27
0.15
0.02
-0.11
-0.24
-0.38
-0.49
-0.52
-0.46
-0.33
-0.15
0.02
0.15
0.22
0.20
0.08
-0.12
-0.36
-0.55
-0.57
-0.40
-0.10
0.22
0.40
0.38
0.18
-0.13
-0.45
-0.74
-0.96
-1.09
-1.07
-0.86
-0.45
0.06
0.51
0.73
0.67
0.40
0.06
-0.18
-0.26
-0.22
-0.14
-0.09
-0.06
0.01
0.17
0.42
0.66
0.79
0.77
0.65
0.50
0.38
0.31
0.25
0.16
0.05
-0.01
0.02
0.13
0.27
0.34
0.29
0.13
-0.05
-0.19
-0.24
-0.24
-0.28
-0.39
-0.57
-0.75
-0.87
-0.89
-0.85
-0.79
-0.74
-0.67
-0.55
-0.35
-0.06
0.26
0.50
0.58
0.45
0.17
-0.15
-0.38
-0.42
-0.25
0.10
0.49
0.82
1.00
1.00
0.83
0.54
0.22
-0.06
-0.21
-0.18
0.03
0.37
0.71
0.92
0.90
0.62
0.17
-0.30
-0.61
-0.63
-0.35
0.16
0.71
1.11
1.23
1.07
0.75
0.43
0.25
0.27
0.44
0.64
0.75
0.70
0.49
0.16
-0.22
-0.58
-0.86
-1.02
-1.05
-0.97
-0.81
-0.61
-0.41
-0.23
-0.09
-0.02
-0.05
-0.17
-0.39
-0.64
-0.84
-0.92
-0.85
-0.66
-0.44
-0.30
-0.30
-0.43
-0.62
-0.74
-0.70
-0.49
-0.15
0.21
0.50
0.67
0.73
0.71
0.62
0.48
0.27
0.01
-0.24
-0.40
-0.42
-0.26
-0.01
0.22
0.33
0.29
0.18
0.09
0.12
0.23
0.36
0.37
0.24
0.00
-0.25
-0.43
-0.53
-0.58
-0.64
-0.67
-0.61
-0.37
0.07
0.64
1.15
1.43
1.38
0.99
0.38
-0.28
-0.81
-1.06
-0.99
-0.64
-0.11
0.38
0.70
0.75
0.57
0.28
0.04
-0.07
-0.03
0.09
0.17
0.14
0.00
-0.13
-0.16
-0.00
0.30
0.64
0.88
0.97
0.92
0.81
0.71
0.63
0.52
0.31
-0.02
-0.39
-0.68
-0.73
-0.50
-0.06
0.43
0.77
0.81
0.55
0.11
-0.32
-0.56
-0.57
-0.43
-0.32
-0.33
-0.47
-0.65
-0.72
-0.62
-0.42
-0.27
-0.28
-0.47
-0.71
-0.83
-0.73
-0.40
0.04
0.41
0.59
0.57
0.40
0.19
0.04
-0.04
-0.07
-0.12
-0.21
-0.36
-0.48
-0.49
-0.35
-0.06
0.28
0.56
0.71
0.71
0.64
0.58
0.59
0.64
0.63
0.47
0.13
-0.33
-0.76
-1.01
-1.03
-0.84
-0.55
-0.29
-0.16
-0.17
-0.28
-0.41
-0.49
-0.47
-0.38
-0.25
-0.16
-0.11
-0.08
-0.02
0.15
0.43
0.76
1.01
1.08
0.97
0.72
0.47
0.30
0.22
0.18
0.12
0.01
-0.12
-0.21
-0.24
-0.24
-0.26
-0.33
-0.45
-0.55
-0.58
-0.53
-0.42
-0.32
-0.25
-0.22
-0.16
-0.02
0.22
0.52
0.78
0.92
0.90
0.78
0.64
0.57
0.59
0.61
0.57
0.39
0.13
-0.13
-0.27
-0.27
-0.20
-0.19
-0.32
-0.60
-0.92
-1.16
-1.22
-1.12
-0.94
-0.76
-0.61
-0.51
-0.41
-0.31
-0.22
-0.14
-0.09
-0.04
0.02
0.09
0.14
0.16
0.18
0.24
0.37
0.55
0.71
0.76
0.69
0.57
0.51
0.59
0.78
0.95
0.95
0.71
0.28
-0.18
-0.50
-0.60
-0.51
-0.35
-0.21
-0.15
-0.12
-0.08
0.03
0.21
0.38
0.50
0.49
0.34
0.08
-0.21
-0.44
-0.54
-0.52
-0.43
-0.38
-0.45
-0.64
-0.86
-1.01
-0.98
-0.74
-0.33
0.15
0.59
0.92
1.08
1.06
0.88
0.60
0.31
0.08
-0.01
0.01
0.08
0.14
0.13
0.06
-0.04
-0.12
-0.15
-0.11
-0.01
0.13
0.27
0.39
0.45
0.43
0.33
0.17
-0.01
-0.20
-0.39
-0.57
-0.72
-0.80
-0.78
-0.66
-0.48
-0.28
-0.10
0.06
0.21
0.35
0.46
0.48
0.41
0.26
0.10
-0.01
-0.02
0.07
0.18
0.24
0.20
0.04
-0.20
-0.42
-0.55
-0.54
-0.42
-0.23
-0.06
0.05
0.07
0.04
0.02
0.04
0.11
0.18
0.21
0.17
0.09
0.01
-0.02
0.02
0.11
0.17
0.14
0.02
-0.18
-0.36
-0.48
-0.52
-0.51
-0.50
-0.51
-0.51
-0.46
-0.29
-0.02
0.32
0.63
0.85
0.92
0.83
0.64
0.42
0.26
0.22
0.30
0.42
0.47
0.37
0.12
-0.18
-0.38
-0.38
-0.17
0.14
0.40
0.50
0.38
0.09
-0.23
-0.48
-0.55
-0.43
-0.18
0.08
0.22
0.17
-0.06
-0.38
-0.65
-0.74
-0.59
-0.28
0.06
0.30
0.35
0.26
0.14
0.15
0.33
0.62
0.83
0.81
0.48
-0.06
-0.61
-0.96
-1.01
-0.82
-0.51
-0.25
-0.09
-0.01
0.04
0.11
0.16
0.17
0.13
0.08
0.10
0.21
0.40
0.57
0.66
0.61
0.46
0.29
0.16
0.09
0.05
0.01
-0.06
-0.15
-0.21
-0.24
-0.24
-0.22
-0.20
-0.17
-0.16
-0.20
-0.32
-0.52
-0.76
-0.93
-0.93
-0.71
-0.32
0.12
0.48
0.69
0.78
0.78
0.74
0.66
0.54
0.37
0.19
0.04
-0.08
-0.16
-0.22
-0.27
-0.28
-0.23
-0.12
0.01
0.12
0.15
0.13
0.10
0.15
0.31
0.52
0.68
0.70
0.57
0.32
0.06
-0.15
-0.27
-0.36
-0.44
-0.53
-0.57
-0.52
-0.36
-0.11
0.15
0.32
0.37
0.26
0.06
-0.20
-0.43
-0.58
-0.62
-0.52
-0.27
0.06
0.40
0.63
0.68
0.52
0.17
-0.24
-0.59
-0.77
-0.73
-0.48
-0.15
0.13
0.25
0.16
-0.09
-0.40
-0.66
-0.76
-0.66
-0.38
0.01
0.45
0.84
1.11
1.22
1.17
0.98
0.69
0.34
-0.02
-0.38
-0.67
-0.84
-0.82
-0.59
-0.16
0.34
0.77
0.98
0.90
0.56
0.10
-0.31
-0.57
-0.64
-0.58
-0.50
-0.45
-0.43
-0.42
-0.39
-0.34
-0.34
-0.41
-0.54
-0.66
-0.67
-0.51
-0.26
-0.01
0.13
0.11
-0.02
-0.18
-0.31
-0.34
-0.26
-0.08
0.18
0.45
0.67
0.80
0.80
0.71
0.59
0.46
0.34
0.22
0.06
-0.11
-0.22
-0.20
-0.03
0.22
0.45
0.57
0.55
0.42
0.26
0.15
0.10
0.09
0.08
0.01
-0.10
-0.20
-0.23
-0.13
0.09
0.34
0.50
0.45
0.16
-0.30
-0.77
-1.04
-1.01
-0.71
-0.26
0.18
0.46
0.58
0.57
0.50
0.41
0.25
0.01
-0.28
-0.53
-0.62
-0.49
-0.18
0.16
0.37
0.35
0.12
-0.18
-0.42
-0.52
-0.49
-0.38
-0.23
-0.08
0.09
0.28
0.48
0.65
0.76
0.77
0.68
0.51
0.28
0.03
-0.17
-0.30
-0.33
-0.29
-0.22
-0.16
-0.11
-0.05
0.08
0.26
0.48
0.65
0.71
0.63
0.41
0.11
-0.21
-0.46
-0.60
-0.62
-0.54
-0.45
-0.44
-0.53
-0.68
-0.80
-0.79
-0.64
-0.40
-0.15
0.06
0.24
0.42
0.62
0.78
0.77
0.52
0.04
-0.52
-0.95
-1.06
-0.81
-0.31
0.25
0.69
0.88
0.84
0.64
0.41
0.27
0.26
0.36
0.47
0.52
0.43
0.25
0.05
-0.06
-0.03
0.10
0.23
0.25
0.15
-0.06
-0.26
-0.38
-0.41
-0.37
-0.33
-0.31
-0.31
-0.28
-0.20
-0.07
0.07
0.20
0.29
0.36
0.42
0.49
0.55
0.55
0.46
0.28
0.07
-0.11
-0.20
-0.20
-0.13
-0.04
0.06
0.16
0.27
0.35
0.36
0.22
-0.06
-0.39
-0.67
-0.77
-0.68
-0.47
-0.26
-0.14
-0.10
-0.11
-0.12
-0.15
-0.21
-0.32
-0.47
-0.59
-0.62
-0.53
-0.33
-0.07
0.21
0.44
0.60
0.66
0.59
0.43
0.23
0.08
-0.02
-0.07
-0.12
-0.19
-0.29
-0.37
-0.40
-0.37
-0.31
-0.24
-0.18
-0.10
0.05
0.27
0.49
0.60
0.51
0.20
-0.25
-0.70
-0.99
-1.05
-0.87
-0.55
-0.20
0.08
0.28
0.39
0.43
0.42
0.37
0.29
0.23
0.24
0.35
0.53
0.70
0.78
0.73
0.57
0.35
0.16
0.05
0.01
0.05
0.12
0.20
0.24
0.21
0.07
-0.15
-0.41
-0.61
-0.72
-0.71
-0.64
-0.58
-0.57
-0.59
-0.62
-0.59
-0.51
-0.39
-0.28
-0.17
-0.04
0.15
0.41
0.68
0.87
0.88
0.68
0.33
-0.07
-0.41
-0.62
-0.70
-0.67
-0.55
-0.35
-0.08
0.23
0.53
0.74
0.84
0.82
0.74
0.65
0.60
0.57
0.55
0.49
0.32
0.04
-0.34
-0.76
-1.10
-1.29
-1.26
-1.03
-0.68
-0.26
0.15
0.50
0.75
0.84
0.73
0.42
-0.04
-0.55
-0.96
-1.16
-1.10
-0.78
-0.30
0.24
0.74
1.10
1.27
1.23
1.05
0.82
0.66
0.61
0.68
0.77
0.78
0.63
0.32
-0.06
-0.36
-0.49
-0.45
-0.31
-0.23
-0.27
-0.41
-0.57
-0.66
-0.67
-0.64
-0.61
-0.60
-0.55
-0.37
-0.07
0.28
0.52
0.54
0.32
-0.02
-0.29
-0.40
-0.32
-0.14
0.04
0.17
0.26
0.35
0.43
0.46
0.37
0.16
-0.10
-0.27
-0.26
-0.08
0.14
0.23
0.12
-0.16
-0.46
-0.65
-0.68
-0.61
-0.52
-0.44
-0.30
-0.03
0.40
0.87
1.17
1.14
0.76
0.18
-0.35
-0.63
-0.59
-0.35
-0.07
0.08
0.05
-0.11
-0.31
-0.44
-0.44
-0.34
-0.16
0.04
0.23
0.38
0.48
0.52
0.47
0.30
0.05
-0.20
-0.32
-0.24
0.03
0.38
0.66
0.73
0.56
0.22
-0.16
-0.43
-0.52
-0.43
-0.22
0.03
0.21
0.27
0.17
-0.06
-0.38
-0.69
-0.88
-0.88
-0.67
-0.28
0.18
0.60
0.87
0.99
0.95
0.80
0.54
0.19
-0.22
-0.62
-0.89
-0.96
-0.79
-0.48
-0.16
0.06
0.15
0.17
0.18
0.23
0.28
0.29
0.26
0.22
0.22
0.30
0.38
0.41
0.33
0.18
0.06
0.04
0.11
0.19
0.17
-0.01
-0.31
-0.62
-0.84
-0.92
-0.87
-0.75
-0.59
-0.39
-0.16
0.09
0.33
0.50
0.58
0.57
0.55
0.56
0.63
0.73
0.80
0.80
0.72
0.59
0.44
0.30
0.19
0.10
-0.01
-0.12
-0.24
-0.36
-0.47
-0.56
-0.62
-0.61
-0.51
-0.33
-0.06
0.25
0.53
0.72
0.77
0.64
0.35
-0.02
-0.36
-0.56
-0.55
-0.36
-0.07
0.18
0.29
0.23
0.05
-0.14
-0.26
-0.32
-0.35
-0.44
-0.63
-0.86
-1.05
-1.11
-1.00
-0.79
-0.55
-0.37
-0.26
-0.20
-0.14
-0.08
-0.06
-0.11
-0.26
-0.45
-0.60
-0.61
-0.46
-0.18
0.12
0.36
0.49
0.52
0.48
0.44
0.42
0.45
0.53
0.66
0.80
0.94
1.03
1.03
0.92
0.69
0.39
0.09
-0.12
-0.21
-0.17
-0.07
0.03
0.09
0.09
0.07
0.04
0.03
0.03
0.02
0.02
0.03
0.09
0.22
0.38
0.52
0.59
0.55
0.41
0.21
0.03
-0.09
-0.10
-0.05
-0.01
-0.05
-0.22
-0.45
-0.68
-0.82
-0.86
-0.84
-0.84
-0.88
-0.93
-0.92
-0.81
-0.60
-0.38
-0.20
-0.08
-0.01
0.09
0.24
0.42
0.55
0.58
0.51
0.39
0.30
0.28
0.32
0.36
0.30
0.11
-0.16
-0.40
-0.51
-0.42
-0.15
0.19
0.51
0.73
0.82
0.80
0.68
0.48
0.22
-0.08
-0.39
-0.64
-0.79
-0.79
-0.66
-0.42
-0.14
0.11
0.26
0.26
0.14
-0.05
-0.20
-0.22
-0.07
0.17
0.40
0.51
0.44
0.27
0.10
0.06
0.18
0.39
0.56
0.54
0.29
-0.12
-0.56
-0.86
-0.96
-0.87
-0.65
-0.40
-0.17
0.06
0.29
0.52
0.69
0.71
0.50
0.08
-0.45
-0.92
-1.17
-1.12
-0.80
-0.33
0.15
0.52
0.70
0.67
0.48
0.20
-0.05
-0.19
-0.17
-0.03
0.14
0.28
0.33
0.32
0.31
0.34
0.42
0.50
0.52
0.44
0.29
0.11
-0.01
-0.05
0.01
0.14
0.27
0.35
0.33
0.22
0.02
-0.19
-0.34
-0.36
-0.20
0.10
0.43
0.66
0.63
0.33
-0.15
-0.63
-0.93
-0.95
-0.73
-0.39
-0.07
0.17
0.34
0.48
0.58
0.57
0.34
-0.12
-0.73
-1.29
-1.62
-1.60
-1.30
-0.86
-0.45
-0.17
-0.04
0.02
0.09
0.22
0.40
0.56
0.64
0.61
0.50
0.34
0.18
0.05
-0.06
-0.14
-0.18
-0.18
-0.11
0.02
0.16
0.27
0.31
0.29
0.23
0.17
0.10
0.05
0.05
0.14
0.36
0.68
0.99
1.14
1.02
0.62
0.08
-0.44
-0.79
-0.93
-0.90
-0.75
-0.53
-0.29
-0.09
0.01
-0.05
-0.26
-0.53
-0.71
-0.68
-0.39
0.08
0.56
0.88
0.92
0.68
0.24
-0.21
-0.52
-0.53
-0.27
0.19
0.64
0.91
0.91
0.68
0.33
0.00
-0.23
-0.36
-0.44
-0.50
-0.54
-0.51
-0.41
-0.25
-0.08
0.01
-0.02
-0.15
-0.33
-0.44
-0.41
-0.23
0.01
0.22
0.32
0.29
0.14
-0.06
-0.26
-0.43
-0.52
-0.52
-0.39
-0.16
0.16
0.49
0.73
0.81
0.72
0.52
0.33
0.23
0.29
0.50
0.78
1.04
1.21
1.22
1.05
0.71
0.23
-0.33
-0.90
-1.34
-1.54
-1.43
-1.01
-0.43
0.15
0.53
0.62
0.43
0.07
-0.31
-0.57
-0.64
-0.55
-0.35
-0.17
-0.08
-0.12
-0.23
-0.35
-0.39
-0.33
-0.18
-0.00
0.15
0.27
0.35
0.39
0.43
0.44
0.45
0.45
0.47
0.51
0.57
0.58
0.51
0.34
0.12
-0.09
-0.24
-0.34
-0.40
-0.47
-0.52
-0.49
-0.33
-0.05
0.25
0.45
0.42
0.14
-0.28
-0.68
-0.93
-0.97
-0.86
-0.70
-0.58
-0.55
-0.58
-0.61
-0.59
-0.51
-0.37
-0.22
-0.11
-0.05
-0.03
0.00
0.12
0.35
0.68
1.02
1.26
1.29
1.11
0.76
0.39
0.09
-0.05
-0.05
0.04
0.17
0.31
0.41
0.44
0.37
0.19
-0.08
-0.36
-0.56
-0.59
-0.44
-0.15
0.15
0.37
0.44
0.36
0.20
0.05
-0.01
0.04
0.17
0.32
0.39
0.34
0.19
0.03
-0.06
-0.03
0.12
0.29
0.40
0.38
0.22
-0.03
-0.31
-0.56
-0.74
-0.85
-0.88
-0.83
-0.69
-0.48
-0.23
0.02
0.22
0.35
0.39
0.36
0.23
0.04
-0.19
-0.38
-0.46
-0.40
-0.22
0.02
0.21
0.32
0.33
0.30
0.28
0.30
0.33
0.30
0.18
-0.05
-0.30
-0.47
-0.49
-0.33
-0.05
0.28
0.53
0.63
0.53
0.29
-0.01
-0.28
-0.43
-0.46
-0.43
-0.40
-0.43
-0.47
-0.45
-0.30
-0.03
0.29
0.52
0.58
0.48
0.32
0.24
0.28
0.40
0.48
0.41
0.13
-0.29
-0.71
-0.99
-1.05
-0.91
-0.63
-0.33
-0.08
0.10
0.21
0.29
0.38
0.45
0.52
0.56
0.58
0.62
0.69
0.77
0.84
0.83
0.72
0.51
0.20
-0.17
-0.52
-0.78
-0.91
-0.90
-0.75
-0.55
-0.35
-0.23
-0.21
-0.26
-0.32
-0.34
-0.31
-0.21
-0.07
0.08
0.23
0.36
0.44
0.45
0.39
0.28
0.15
0.04
-0.04
-0.07
-0.08
-0.07
-0.07
-0.08
-0.13
-0.21
-0.30
-0.36
-0.35
-0.22
-0.01
0.22
0.38
0.41
0.31
0.11
-0.10
-0.27
-0.35
-0.35
-0.28
-0.16
-0.03
0.07
0.11
0.06
-0.08
-0.28
-0.48
-0.60
-0.56
-0.36
-0.03
0.34
0.68
0.93
1.10
1.18
1.19
1.09
0.87
0.53
0.12
-0.23
-0.46
-0.53
-0.47
-0.36
-0.28
-0.22
-0.20
-0.20
-0.24
-0.34
-0.49
-0.64
-0.68
-0.52
-0.15
0.33
0.74
0.92
0.79
0.43
0.00
-0.32
-0.43
-0.33
-0.08
0.20
0.44
0.61
0.68
0.65
0.48
0.19
-0.19
-0.57
-0.82
-0.86
-0.68
-0.35
-0.01
0.22
0.28
0.19
0.01
-0.17
-0.30
-0.35
-0.30
-0.15
0.07
0.29
0.42
0.38
0.18
-0.09
-0.29
-0.33
-0.20
-0.01
0.12
0.11
-0.02
-0.18
-0.25
-0.19
-0.03
0.14
0.26
0.32
0.38
0.48
0.63
0.74
0.69
0.41
-0.09
-0.67
-1.12
-1.28
-1.10
-0.69
-0.22
0.13
0.33
0.42
0.47
0.53
0.54
0.43
0.18
-0.15
-0.39
-0.43
-0.21
0.17
0.57
0.83
0.89
0.75
0.50
0.21
-0.06
-0.32
-0.56
-0.76
-0.89
-0.94
-0.92
-0.84
-0.76
-0.70
-0.67
-0.63
-0.53
-0.31
0.03
0.45
0.84
1.08
1.10
0.91
0.58
0.26
0.06
0.02
0.12
0.26
0.34
0.32
0.22
0.07
-0.08
-0.22
-0.33
-0.39
-0.43
-0.45
-0.49
-0.57
-0.67
-0.76
-0.77
-0.68
-0.46
-0.15
0.20
0.53
0.81
1.00
1.09
1.06
0.93
0.70
0.39
0.04
-0.31
-0.57
-0.70
-0.64
-0.43
-0.16
0.06
0.14
0.08
-0.06
-0.20
-0.30
-0.37
-0.42
-0.42
-0.29
0.02
0.50
1.01
1.34
1.33
0.93
0.30
-0.35
-0.78
-0.85
-0.60
-0.14
0.33
0.68
0.81
0.75
0.56
0.34
0.18
0.09
0.03
-0.05
-0.19
-0.36
-0.48
-0.48
-0.33
-0.11
0.05
0.04
-0.14
-0.40
-0.61
-0.66
-0.54
-0.30
-0.04
0.17
0.30
0.35
0.36
0.32
0.24
0.13
0.03
-0.04
-0.05
-0.06
-0.12
-0.24
-0.40
-0.50
-0.44
-0.21
0.14
0.45
0.58
0.45
0.12
-0.28
-0.58
-0.67
-0.56
-0.35
-0.16
-0.10
-0.16
-0.31
-0.45
-0.51
-0.44
-0.27
-0.05
0.14
0.24
0.24
0.19
0.15
0.15
0.21
0.32
0.42
0.52
0.62
0.73
0.83
0.88
0.79
0.54
0.18
-0.18
-0.42
-0.48
-0.38
-0.22
-0.11
-0.11
-0.19
-0.27
-0.26
-0.10
0.16
0.42
0.57
0.55
0.34
0.03
-0.29
-0.51
-0.56
-0.47
-0.32
-0.21
-0.20
-0.30
-0.43
-0.49
-0.42
-0.26
-0.09
-0.01
-0.06
-0.19
-0.32
-0.35
-0.27
-0.11
0.06
0.17
0.20
0.17
0.12
0.08
0.11
0.23
0.44
0.71
0.94
1.02
0.89
0.57
0.19
-0.09
-0.15
0.02
0.34
0.64
0.79
0.73
0.52
0.26
0.04
-0.10
-0.17
-0.22
-0.25
-0.23
-0.15
-0.00
0.16
0.27
0.24
0.08
-0.19
-0.48
-0.72
-0.89
-0.95
-0.92
-0.78
-0.51
-0.15
0.28
0.66
0.87
0.85
0.59
0.19
-0.24
-0.58
-0.76
-0.79
-0.71
-0.56
-0.37
-0.18
0.00
0.15
0.26
0.31
0.28
0.16
-0.07
-0.37
-0.67
-0.83
-0.74
-0.36
0.25
0.89
1.34
1.42
1.10
0.50
-0.18
-0.69
-0.89
-0.73
-0.28
0.26
0.69
0.84
0.67
0.29
-0.15
-0.48
-0.61
-0.58
-0.45
-0.30
-0.16
-0.04
0.06
0.09
0.01
-0.18
-0.42
-0.61
-0.67
-0.56
-0.34
-0.11
0.04
0.06
-0.01
-0.12
-0.18
-0.15
-0.01
0.23
0.51
0.77
0.95
1.01
0.96
0.84
0.68
0.52
0.37
0.22
0.08
-0.05
-0.12
-0.09
0.05
0.30
0.58
0.81
0.89
0.76
0.43
-0.02
-0.43
-0.71
-0.80
-0.75
-0.65
-0.58
-0.54
-0.51
-0.44
-0.32
-0.20
-0.14
-0.18
-0.29
-0.40
-0.46
-0.42
-0.32
-0.22
-0.19
-0.21
-0.27
-0.31
-0.28
-0.19
-0.08
0.01
0.06
0.10
0.20
0.36
0.58
0.77
0.87
0.81
0.60
0.28
-0.05
-0.33
-0.48
-0.47
-0.30
-0.03
0.24
0.41
0.44
0.33
0.16
0.01
-0.09
-0.13
-0.17
-0.23
-0.30
-0.31
-0.23
-0.05
0.17
0.37
0.47
0.48
0.42
0.30
0.12
-0.14
-0.45
-0.75
-0.96
-1.01
-0.87
-0.57
-0.19
0.21
0.53
0.73
0.75
0.58
0.26
-0.09
-0.34
-0.41
-0.29
-0.07
0.12
0.18
0.12
0.03
0.02
0.16
0.44
0.76
1.00
1.08
0.97
0.70
0.35
-0.03
-0.34
-0.55
-0.60
-0.47
-0.22
0.09
0.35
0.49
0.50
0.42
0.27
0.08
-0.15
-0.41
-0.65
-0.80
-0.79
-0.62
-0.35
-0.11
0.01
0.01
-0.08
-0.17
-0.23
-0.27
-0.28
-0.27
-0.20
-0.06
0.12
0.30
0.40
0.40
0.29
0.13
-0.03
-0.17
-0.27
-0.33
-0.31
-0.17
0.08
0.35
0.53
0.51
0.25
-0.11
-0.42
-0.51
-0.33
0.02
0.35
0.50
0.39
0.09
-0.25
-0.48
-0.52
-0.40
-0.21
-0.06
-0.00
-0.01
-0.04
-0.05
-0.03
-0.03
-0.07
-0.20
-0.35
-0.48
-0.51
-0.41
-0.21
-0.01
0.09
0.00
-0.23
-0.51
-0.68
-0.61
-0.28
0.21
0.69
0.97
0.99
0.82
0.60
0.47
0.51
0.65
0.79
0.81
0.69
0.45
0.16
-0.13
-0.37
-0.52
-0.56
-0.44
-0.14
0.26
0.66
0.90
0.90
0.66
0.28
-0.11
-0.43
-0.62
-0.73
-0.76
-0.75
-0.66
-0.45
-0.14
0.23
0.53
0.67
0.60
0.37
0.09
-0.12
-0.18
-0.10
0.04
0.15
0.15
0.07
-0.01
-0.01
0.07
0.19
0.26
0.24
0.14
0.02
-0.05
-0.05
-0.00
-0.00
-0.09
-0.29
-0.50
-0.64
-0.66
-0.57
-0.44
-0.36
-0.35
-0.38
-0.38
-0.31
-0.15
0.03
0.20
0.34
0.45
0.52
0.55
0.47
0.28
0.02
-0.20
-0.26
-0.15
0.06
0.24
0.25
0.06
-0.27
-0.60
-0.83
-0.89
-0.78
-0.56
-0.28
0.00
0.23
0.39
0.46
0.43
0.31
0.08
-0.21
-0.52
-0.77
-0.89
-0.84
-0.63
-0.37
-0.14
-0.00
0.06
0.12
0.21
0.34
0.45
0.53
0.57
0.61
0.68
0.77
0.80
0.71
0.50
0.23
0.01
-0.09
-0.07
0.01
0.10
0.15
0.18
0.21
0.23
0.21
0.13
0.03
-0.06
-0.07
-0.00
0.09
0.15
0.14
0.10
0.09
0.15
0.28
0.41
0.46
0.40
0.24
0.07
-0.06
-0.11
-0.12
-0.13
-0.19
-0.32
-0.47
-0.60
-0.69
-0.79
-0.93
-1.15
-1.41
-1.62
-1.63
-1.38
-0.88
-0.25
0.31
0.69
0.86
0.93
1.02
1.20
1.40
1.50
1.36
0.95
0.38
-0.14
-0.42
-0.38
-0.09
0.32
0.63
0.74
0.61
0.35
0.09
-0.04
0.03
0.24
0.46
0.53
0.37
0.03
-0.38
-0.70
-0.83
-0.77
-0.59
-0.38
-0.23
-0.17
-0.20
-0.31
-0.47
-0.65
-0.77
-0.78
-0.66
-0.45
-0.26
-0.16
-0.20
-0.31
-0.35
-0.23
0.07
0.42
0.68
0.70
0.49
0.17
-0.06
-0.08
0.14
0.48
0.76
0.84
0.72
0.50
0.33
0.29
0.34
0.38
0.31
0.10
-0.18
-0.44
-0.61
-0.67
-0.67
-0.64
-0.64
-0.64
-0.61
-0.51
-0.31
-0.02
0.30
0.57
0.73
0.74
0.63
0.48
0.35
0.29
0.28
0.29
0.25
0.15
0.01
-0.11
-0.17
-0.17
-0.12
-0.09
-0.12
-0.21
-0.35
-0.46
-0.47
-0.32
-0.03
0.34
0.65
0.81
0.80
0.67
0.52
0.42
0.41
0.44
0.44
0.37
0.24
0.10
0.01
0.01
0.08
0.17
0.24
0.28
0.32
0.35
0.38
0.36
0.21
-0.07
-0.45
-0.84
-1.10
-1.16
-1.00
-0.71
-0.40
-0.18
-0.12
-0.20
-0.36
-0.56
-0.77
-0.97
-1.15
-1.29
-1.35
-1.29
-1.10
-0.80
-0.45
-0.11
0.15
0.34
0.47
0.55
0.59
0.57
0.47
0.32
0.18
0.17
0.36
0.71
1.12
1.40
1.41
1.14
0.70
0.26
-0.04
-0.15
-0.13
-0.08
-0.06
-0.08
-0.10
-0.08
-0.02
0.06
0.10
0.10
0.06
0.02
0.00
0.02
0.08
0.15
0.24
0.31
0.35
0.37
0.33
0.25
0.12
-0.04
-0.22
-0.37
-0.46
-0.47
-0.42
-0.39
-0.39
-0.44
-0.48
-0.44
-0.27
-0.03
0.17
0.24
0.13
-0.12
-0.39
-0.55
-0.56
-0.44
-0.27
-0.11
-0.00
0.05
0.09
0.15
0.22
0.32
0.41
0.47
0.47
0.42
0.35
0.28
0.26
0.27
0.24
0.13
-0.08
-0.33
-0.50
-0.51
-0.33
-0.07
0.16
0.26
0.21
0.10
0.03
0.05
0.13
0.17
0.10
-0.11
-0.39
-0.60
-0.63
-0.43
-0.02
0.48
0.93
1.19
1.16
0.85
0.35
-0.19
-0.60
-0.79
-0.76
-0.59
-0.41
-0.30
-0.29
-0.34
-0.34
-0.26
-0.08
0.14
0.29
0.31
0.21
0.04
-0.10
-0.16
-0.11
0.03
0.21
0.39
0.53
0.60
0.58
0.48
0.29
0.04
-0.20
-0.39
-0.48
-0.47
-0.39
-0.30
-0.24
-0.22
-0.22
-0.23
-0.23
-0.21
-0.18
-0.17
-0.17
-0.18
-0.21
-0.25
-0.34
-0.46
-0.60
-0.73
-0.78
-0.73
-0.56
-0.32
-0.05
0.19
0.36
0.47
0.50
0.46
0.39
0.33
0.31
0.36
0.42
0.45
0.36
0.14
-0.12
-0.30
-0.29
-0.07
0.30
0.67
0.91
0.94
0.82
0.61
0.39
0.18
-0.02
-0.20
-0.31
-0.30
-0.17
0.04
0.20
0.21
0.02
-0.33
-0.70
-0.96
-1.02
-0.85
-0.54
-0.17
0.14
0.32
0.35
0.27
0.11
-0.04
-0.12
-0.08
0.09
0.36
0.65
0.92
1.10
1.16
1.12
0.99
0.78
0.50
0.16
-0.21
-0.49
-0.61
-0.52
-0.31
-0.10
-0.03
-0.12
-0.29
-0.40
-0.34
-0.12
0.14
0.30
0.29
0.16
0.05
0.07
0.25
0.49
0.66
0.63
0.37
-0.07
-0.58
-1.01
-1.25
-1.26
-1.03
-0.63
-0.16
0.29
0.65
0.86
0.94
0.87
0.67
0.37
0.02
-0.31
-0.52
-0.57
-0.46
-0.26
-0.08
0.00
-0.05
-0.19
-0.33
-0.40
-0.36
-0.26
-0.16
-0.12
-0.14
-0.20
-0.24
-0.22
-0.13
-0.04
0.01
-0.04
-0.18
-0.33
-0.41
-0.36
-0.22
-0.05
0.05
0.07
0.06
0.09
0.21
0.37
0.48
0.42
0.19
-0.11
-0.29
-0.22
0.11
0.56
0.91
1.01
0.82
0.45
0.03
-0.32
-0.54
-0.66
-0.68
-0.58
-0.36
-0.02
0.35
0.62
0.67
0.49
0.19
-0.09
-0.21
-0.14
0.04
0.18
0.20
0.05
-0.18
-0.39
-0.51
-0.49
-0.34
-0.11
0.19
0.49
0.76
0.90
0.87
0.65
0.31
-0.03
-0.27
-0.35
-0.30
-0.20
-0.13
-0.15
-0.26
-0.42
-0.58
-0.71
-0.79
-0.81
-0.73
-0.54
-0.29
-0.04
0.13
0.14
0.04
-0.10
-0.15
-0.05
0.18
0.40
0.49
0.37
0.11
-0.15
-0.29
-0.26
-0.14
-0.03
-0.03
-0.10
-0.17
-0.13
0.05
0.32
0.55
0.62
0.50
0.24
-0.03
-0.20
-0.21
-0.08
0.12
0.32
0.49
0.60
0.65
0.63
0.53
0.34
0.10
-0.13
-0.28
-0.30
-0.20
-0.04
0.13
0.24
0.28
0.30
0.31
0.33
0.33
0.29
0.18
0.04
-0.13
-0.31
-0.49
-0.65
-0.76
-0.78
-0.67
-0.41
-0.04
0.35
0.66
0.81
0.74
0.49
0.12
-0.27
-0.55
-0.67
-0.63
-0.47
-0.28
-0.13
-0.07
-0.08
-0.13
-0.19
-0.23
-0.22
-0.14
0.01
0.23
0.49
0.73
0.89
0.92
0.81
0.56
0.23
-0.13
-0.44
-0.66
-0.74
-0.71
-0.59
-0.47
-0.37
-0.33
-0.36
-0.41
-0.45
-0.44
-0.36
-0.22
-0.04
0.15
0.32
0.47
0.58
0.62
0.58
0.43
0.21
-0.05
-0.24
-0.32
-0.27
-0.15
-0.04
-0.01
-0.09
-0.24
-0.43
-0.57
-0.63
-0.60
-0.48
-0.32
-0.16
-0.04
0.03
0.07
0.12
0.19
0.27
0.32
0.34
0.33
0.34
0.37
0.41
0.42
0.36
0.20
0.02
-0.11
-0.11
0.04
0.28
0.54
0.74
0.83
0.82
0.73
0.57
0.33
0.02
-0.33
-0.67
-0.91
-1.00
-0.90
-0.65
-0.33
-0.05
0.14
0.22
0.25
0.27
0.33
0.44
0.57
0.68
0.70
0.62
0.40
0.05
-0.35
-0.72
-0.94
-0.95
-0.75
-0.45
-0.20
-0.12
-0.21
-0.36
-0.44
-0.36
-0.13
0.14
0.31
0.30
0.15
-0.04
-0.17
-0.19
-0.11
-0.02
0.02
0.02
0.02
0.08
0.20
0.35
0.46
0.46
0.35
0.16
-0.02
-0.12
-0.11
0.01
0.16
0.27
0.26
0.13
-0.09
-0.32
-0.48
-0.55
-0.54
-0.48
-0.43
-0.40
-0.36
-0.24
-0.01
0.29
0.58
0.76
0.75
0.54
0.17
-0.25
-0.58
-0.74
-0.70
-0.50
-0.21
0.07
0.30
0.43
0.47
0.42
0.30
0.15
-0.01
-0.11
-0.14
-0.09
-0.01
0.04
0.01
-0.11
-0.24
-0.30
-0.24
-0.05
0.19
0.38
0.47
0.43
0.34
0.24
0.18
0.14
0.10
0.03
-0.07
-0.16
-0.17
-0.11
0.01
0.13
0.21
0.24
0.25
0.27
0.33
0.40
0.45
0.44
0.36
0.26
0.20
0.20
0.23
0.23
0.15
-0.01
-0.21
-0.41
-0.56
-0.65
-0.67
-0.66
-0.60
-0.50
-0.38
-0.26
-0.16
-0.11
-0.12
-0.14
-0.18
-0.20
-0.21
-0.19
-0.17
-0.19
-0.30
-0.50
-0.74
-0.94
-0.96
-0.74
-0.31
0.21
0.69
1.02
1.15
1.13
1.01
0.84
0.65
0.48
0.34
0.27
0.29
0.40
0.54
0.65
0.67
0.60
0.45
0.29
0.13
-0.02
-0.16
-0.29
-0.40
-0.43
-0.40
-0.29
-0.14
-0.01
0.09
0.15
0.18
0.20
0.19
0.11
-0.06
-0.32
-0.61
-0.87
-1.00
-0.97
-0.80
-0.53
-0.26
-0.04
0.09
0.14
0.15
0.16
0.19
0.22
0.19
0.09
-0.08
-0.23
-0.29
-0.21
-0.00
0.24
0.42
0.46
0.37
0.22
0.07
0.01
0.03
0.11
0.20
0.25
0.22
0.14
0.03
-0.05
-0.05
0.03
0.12
0.13
0.02
-0.22
-0.51
-0.74
-0.79
-0.62
-0.29
0.11
0.43
0.60
0.59
0.46
0.34
0.31
0.42
0.60
0.73
0.72
0.58
0.38
0.22
0.14
0.11
0.06
-0.07
-0.24
-0.36
-0.34
-0.19
0.02
0.15
0.08
-0.18
-0.53
-0.80
-0.88
-0.77
-0.55
-0.36
-0.29
-0.36
-0.45
-0.46
-0.34
-0.10
0.14
0.31
0.37
0.36
0.32
0.27
0.18
0.03
-0.20
-0.46
-0.69
-0.84
-0.90
-0.85
-0.69
-0.41
-0.04
0.38
0.74
0.95
0.95
0.80
0.59
0.39
0.24
0.09
-0.07
-0.25
-0.38
-0.40
-0.27
-0.06
0.12
0.19
0.11
-0.03
-0.14
-0.12
0.04
0.26
0.45
0.50
0.41
0.20
-0.05
-0.28
-0.45
-0.54
-0.53
-0.43
-0.26
-0.07
0.04
0.01
-0.20
-0.51
-0.79
-0.87
-0.67
-0.22
0.31
0.75
0.98
0.99
0.89
0.81
0.83
0.93
1.02
1.01
0.85
0.58
0.30
0.12
0.07
0.11
0.14
0.09
-0.06
-0.25
-0.36
-0.32
-0.11
0.20
0.50
0.69
0.68
0.48
0.13
-0.30
-0.72
-1.07
-1.27
-1.30
-1.20
-1.03
-0.88
-0.80
-0.78
-0.73
-0.58
-0.27
0.15
0.55
0.80
0.80
0.57
0.20
-0.14
-0.31
-0.26
-0.02
0.32
0.63
0.83
0.86
0.75
0.54
0.35
0.24
0.25
0.34
0.42
0.37
0.15
-0.21
-0.60
-0.90
-1.04
-1.02
-0.92
-0.79
-0.66
-0.48
-0.23
0.06
0.30
0.39
0.27
-0.02
-0.33
-0.52
-0.48
-0.22
0.19
0.59
0.87
0.95
0.86
0.65
0.40
0.17
-0.02
-0.19
-0.36
-0.54
-0.72
-0.86
-0.93
-0.90
-0.78
-0.59
-0.37
-0.14
0.08
0.26
0.37
0.37
0.28
0.11
-0.05
-0.14
-0.08
0.14
0.45
0.79
1.06
1.23
1.26
1.17
0.98
0.71
0.41
0.14
-0.06
-0.12
-0.05
0.14
0.36
0.52
0.57
0.49
0.30
0.09
-0.09
-0.24
-0.36
-0.49
-0.64
-0.80
-0.91
-0.93
-0.84
-0.67
-0.47
-0.31
-0.21
-0.14
-0.09
-0.03
0.06
0.16
0.23
0.26
0.24
0.17
0.07
-0.01
-0.04
0.01
0.11
0.23
0.32
0.35
0.30
0.20
0.07
-0.09
-0.23
-0.35
-0.41
-0.39
-0.30
-0.16
-0.05
-0.01
-0.08
-0.26
-0.48
-0.69
-0.81
-0.80
-0.68
-0.48
-0.26
-0.08
0.05
0.11
0.15
0.17
0.21
0.27
0.34
0.42
0.48
0.50
0.44
0.31
0.11
-0.13
-0.35
-0.50
-0.54
-0.46
-0.28
-0.04
0.19
0.39
0.58
0.75
0.92
1.03
1.05
0.97
0.85
0.76
0.75
0.80
0.82
0.71
0.43
0.06
-0.28
-0.45
-0.46
-0.37
-0.29
-0.27
-0.27
-0.24
-0.15
-0.09
-0.15
-0.35
-0.64
-0.85
-0.87
-0.63
-0.24
0.16
0.42
0.50
0.44
0.31
0.18
0.05
-0.12
-0.35
-0.60
-0.80
-0.88
-0.80
-0.60
-0.34
-0.08
0.10
0.21
0.24
0.24
0.20
0.12
0.02
-0.07
-0.06
0.09
0.36
0.65
0.83
0.79
0.53
0.16
-0.14
-0.24
-0.11
0.16
0.41
0.51
0.40
0.13
-0.20
-0.48
-0.63
-0.63
-0.53
-0.40
-0.33
-0.39
-0.56
-0.75
-0.84
-0.74
-0.46
-0.10
0.21
0.33
0.25
0.06
-0.11
-0.16
-0.09
0.04
0.14
0.18
0.18
0.20
0.27
0.37
0.42
0.36
0.19
-0.05
-0.26
-0.37
-0.35
-0.25
-0.12
-0.01
0.10
0.20
0.31
0.42
0.50
0.49
0.33
-0.00
-0.46
-0.90
-1.15
-1.08
-0.71
-0.16
0.37
0.68
0.73
0.58
0.37
0.23
0.19
0.20
0.20
0.17
0.14
0.13
0.16
0.20
0.21
0.19
0.16
0.14
0.14
0.15
0.16
0.16
0.17
0.18
0.18
0.13
0.04
-0.08
-0.20
-0.24
-0.21
-0.15
-0.12
-0.18
-0.30
-0.39
-0.36
-0.17
0.08
0.28
0.29
0.11
-0.14
-0.30
-0.19
0.17
0.65
1.02
1.09
0.82
0.34
-0.17
-0.55
-0.75
-0.83
-0.89
-0.97
-1.05
-1.04
-0.89
-0.58
-0.20
0.15
0.38
0.48
0.50
0.51
0.56
0.62
0.63
0.50
0.23
-0.11
-0.35
-0.37
-0.11
0.32
0.72
0.89
0.72
0.27
-0.30
-0.76
-0.97
-0.91
-0.67
-0.38
-0.12
0.09
0.25
0.39
0.49
0.48
0.32
0.04
-0.28
-0.52
-0.59
-0.45
-0.18
0.10
0.28
0.30
0.18
0.02
-0.09
-0.07
0.09
0.32
0.56
0.73
0.80
0.76
0.63
0.43
0.16
-0.13
-0.38
-0.53
-0.54
-0.40
-0.18
0.04
0.18
0.22
0.18
0.10
-0.00
-0.12
-0.26
-0.41
-0.54
-0.63
-0.67
-0.67
-0.68
-0.71
-0.74
-0.72
-0.59
-0.33
-0.01
0.30
0.49
0.55
0.51
0.44
0.42
0.48
0.62
0.78
0.87
0.84
0.65
0.32
-0.10
-0.53
-0.89
-1.14
-1.25
-1.23
-1.12
-0.95
-0.73
-0.50
-0.24
0.02
0.29
0.52
0.71
0.85
0.92
0.94
0.92
0.88
0.85
0.87
0.95
1.04
1.10
1.05
0.83
0.45
-0.03
-0.51
-0.86
-1.04
-1.01
-0.83
-0.55
-0.24
0.05
0.30
0.47
0.52
0.45
0.26
0.00
-0.25
-0.42
-0.47
-0.40
-0.26
-0.09
0.05
0.15
0.19
0.16
0.02
-0.21
-0.47
-0.66
-0.72
-0.64
-0.49
-0.43
-0.54
-0.80
-1.07
-1.16
-0.95
-0.46
0.11
0.58
0.80
0.77
0.64
0.55
0.60
0.71
0.76
0.65
0.36
0.01
-0.23
-0.26
-0.11
0.12
0.27
0.29
0.20
0.13
0.16
0.32
0.50
0.58
0.47
0.18
-0.19
-0.54
-0.77
-0.88
-0.88
-0.85
-0.79
-0.70
-0.52
-0.26
0.05
0.30
0.39
0.28
0.01
-0.26
-0.41
-0.35
-0.13
0.16
0.37
0.43
0.36
0.27
0.26
0.38
0.58
0.76
0.86
0.83
0.74
0.67
0.67
0.74
0.79
0.71
0.44
-0.01
-0.54
-0.97
-1.17
-1.05
-0.67
-0.16
0.32
0.61
0.64
0.43
0.06
-0.34
-0.66
-0.82
-0.81
-0.67
-0.49
-0.35
-0.29
-0.32
-0.41
-0.50
-0.58
-0.64
-0.67
-0.65
-0.52
-0.30
-0.00
0.27
0.42
0.38
0.17
-0.10
-0.31
-0.37
-0.28
-0.10
0.07
0.16
0.18
0.19
0.25
0.39
0.58
0.77
0.89
0.93
0.88
0.76
0.60
0.40
0.19
-0.00
-0.11
-0.11
-0.00
0.16
0.27
0.27
0.15
-0.04
-0.21
-0.34
-0.42
-0.46
-0.44
-0.31
-0.01
0.42
0.88
1.17
1.15
0.80
0.26
-0.23
-0.50
-0.48
-0.30
-0.10
0.01
0.05
0.09
0.17
0.27
0.29
0.15
-0.12
-0.39
-0.53
-0.45
-0.19
0.14
0.39
0.52
0.53
0.49
0.45
0.40
0.32
0.16
-0.07
-0.35
-0.60
-0.77
-0.84
-0.80
-0.71
-0.62
-0.55
-0.49
-0.40
-0.25
-0.04
0.19
0.38
0.48
0.45
0.33
0.20
0.14
0.18
0.30
0.40
0.39
0.20
-0.14
-0.54
-0.88
-1.07
-1.07
-0.93
-0.71
-0.48
-0.25
-0.02
0.22
0.43
0.54
0.47
0.20
-0.22
-0.64
-0.94
-1.01
-0.87
-0.61
-0.34
-0.14
-0.07
-0.08
-0.11
-0.10
-0.02
0.11
0.25
0.36
0.42
0.47
0.52
0.55
0.52
0.37
0.09
-0.26
-0.59
-0.75
-0.69
-0.40
-0.00
0.40
0.71
0.86
0.88
0.78
0.63
0.47
0.33
0.20
0.06
-0.09
-0.23
-0.28
-0.18
0.09
0.48
0.89
1.17
1.23
1.07
0.72
0.31
-0.06
-0.27
-0.24
-0.01
0.33
0.60
0.66
0.45
0.04
-0.42
-0.75
-0.91
-0.89
-0.78
-0.64
-0.47
-0.29
-0.09
0.07
0.13
0.05
-0.09
-0.17
-0.08
0.20
0.56
0.81
0.82
0.54
0.06
-0.43
-0.77
-0.86
-0.72
-0.47
-0.23
-0.09
-0.09
-0.15
-0.22
-0.24
-0.22
-0.20
-0.22
-0.25
-0.27
-0.21
-0.07
0.14
0.33
0.46
0.51
0.53
0.55
0.58
0.55
0.41
0.10
-0.31
-0.73
-1.00
-1.04
-0.86
-0.52
-0.14
0.20
0.49
0.73
0.88
0.88
0.67
0.21
-0.41
-1.02
-1.38
-1.36
-0.94
-0.26
0.43
0.93
1.12
1.03
0.77
0.46
0.18
-0.05
-0.22
-0.35
-0.40
-0.34
-0.20
-0.06
-0.01
-0.13
-0.40
-0.69
-0.84
-0.72
-0.33
0.18
0.61
0.81
0.75
0.51
0.19
-0.12
-0.41
-0.70
-0.98
-1.18
-1.22
-1.01
-0.56
0.03
0.59
1.01
1.20
1.19
1.04
0.87
0.74
0.67
0.65
0.63
0.58
0.49
0.35
0.19
-0.01
-0.22
-0.41
-0.52
-0.49
-0.31
-0.02
0.26
0.39
0.31
0.05
-0.27
-0.49
-0.50
-0.29
0.03
0.33
0.48
0.42
0.19
-0.13
-0.46
-0.73
-0.91
-0.99
-0.96
-0.81
-0.53
-0.14
0.29
0.63
0.83
0.85
0.74
0.58
0.42
0.29
0.16
0.04
-0.06
-0.06
0.06
0.26
0.46
0.59
0.60
0.51
0.35
0.14
-0.10
-0.38
-0.63
-0.78
-0.77
-0.57
-0.27
0.06
0.28
0.36
0.29
0.14
-0.02
-0.12
-0.14
-0.09
-0.00
0.03
-0.03
-0.19
-0.39
-0.54
-0.57
-0.45
-0.22
0.06
0.31
0.49
0.56
0.50
0.32
0.06
-0.20
-0.37
-0.39
-0.27
-0.08
0.10
0.23
0.29
0.33
0.35
0.30
0.13
-0.20
-0.65
-1.13
-1.49
-1.64
-1.52
-1.14
-0.57
0.08
0.69
1.13
1.29
1.18
0.87
0.51
0.22
0.06
-0.03
-0.13
-0.29
-0.44
-0.52
-0.44
-0.22
0.05
0.28
0.41
0.45
0.47
0.49
0.48
0.41
0.29
0.15
0.08
0.11
0.23
0.33
0.34
0.22
0.01
-0.16
-0.21
-0.10
0.10
0.28
0.36
0.30
0.13
-0.05
-0.15
-0.15
-0.07
0.03
0.06
0.00
-0.11
-0.21
-0.24
-0.17
-0.05
0.05
0.08
0.05
0.04
0.11
0.27
0.45
0.51
0.36
0.01
-0.37
-0.58
-0.48
-0.11
0.32
0.59
0.55
0.23
-0.19
-0.52
-0.66
-0.61
-0.49
-0.37
-0.28
-0.20
-0.07
0.11
0.29
0.42
0.42
0.30
0.08
-0.17
-0.38
-0.48
-0.46
-0.33
-0.14
0.08
0.26
0.38
0.42
0.37
0.23
0.03
-0.19
-0.36
-0.46
-0.47
-0.44
-0.44
-0.48
-0.55
-0.58
-0.54
-0.46
-0.42
-0.48
-0.67
-0.94
-1.17
-1.23
-1.05
-0.62
-0.05
0.54
1.01
1.25
1.25
1.02
0.66
0.24
-0.15
-0.42
-0.50
-0.37
-0.04
0.40
0.83
1.15
1.28
1.21
0.96
0.60
0.20
-0.17
-0.44
-0.55
-0.49
-0.29
0.01
0.31
0.56
0.73
0.81
0.79
0.67
0.45
0.17
-0.15
-0.43
-0.66
-0.79
-0.82
-0.73
-0.53
-0.23
0.12
0.44
0.64
0.70
0.61
0.42
0.19
-0.04
-0.23
-0.40
-0.53
-0.60
-0.55
-0.38
-0.11
0.16
0.33
0.28
0.00
-0.41
-0.79
-0.95
-0.79
-0.34
0.23
0.70
0.90
0.76
0.38
-0.06
-0.40
-0.55
-0.50
-0.29
-0.01
0.30
0.58
0.77
0.82
0.72
0.50
0.27
0.10
0.02
-0.01
-0.07
-0.22
-0.41
-0.55
-0.52
-0.29
0.04
0.32
0.41
0.25
-0.07
-0.41
-0.60
-0.59
-0.43
-0.22
-0.08
-0.07
-0.15
-0.22
-0.22
-0.13
-0.02
0.01
-0.06
-0.22
-0.38
-0.43
-0.34
-0.11
0.17
0.42
0.59
0.65
0.65
0.60
0.52
0.42
0.29
0.13
-0.06
-0.28
-0.53
-0.77
-0.94
-0.98
-0.84
-0.53
-0.11
0.33
0.68
0.86
0.87
0.73
0.52
0.31
0.16
0.09
0.08
0.13
0.17
0.21
0.25
0.33
0.44
0.57
0.68
0.74
0.73
0.67
0.56
0.38
0.15
-0.11
-0.34
-0.48
-0.50
-0.42
-0.32
-0.30
-0.39
-0.57
-0.74
-0.81
-0.74
-0.56
-0.31
-0.08
0.09
0.17
0.18
0.15
0.14
0.18
0.28
0.41
0.51
0.52
0.44
0.26
0.05
-0.13
-0.25
-0.32
-0.38
-0.48
-0.60
-0.73
-0.79
-0.77
-0.70
-0.63
-0.65
-0.74
-0.84
-0.82
-0.59
-0.16
0.36
0.82
1.09
1.14
1.00
0.75
0.43
0.07
-0.30
-0.60
-0.73
-0.60
-0.19
0.38
0.93
1.26
1.29
1.05
0.70
0.42
0.33
0.40
0.52
0.54
0.35
-0.01
-0.40
-0.67
-0.71
-0.52
-0.25
-0.01
0.10
0.11
0.09
0.09
0.11
0.07
-0.06
-0.30
-0.57
-0.78
-0.87
-0.81
-0.65
-0.43
-0.20
0.02
0.19
0.29
0.30
0.19
0.02
-0.15
-0.22
-0.14
0.10
0.45
0.80
1.03
1.06
0.84
0.40
-0.14
-0.68
-1.08
-1.26
-1.20
-0.94
-0.59
-0.24
-0.01
0.07
0.01
-0.13
-0.26
-0.33
-0.30
-0.22
-0.11
0.00
0.13
0.30
0.50
0.71
0.85
0.85
0.68
0.39
0.11
-0.04
-0.03
0.09
0.21
0.24
0.15
0.03
-0.02
0.09
0.31
0.56
0.70
0.67
0.50
0.30
0.15
0.06
-0.03
-0.19
-0.42
-0.61
-0.66
-0.51
-0.20
0.10
0.28
0.25
0.07
-0.17
-0.37
-0.48
-0.52
-0.54
-0.58
-0.62
-0.63
-0.59
-0.46
-0.27
-0.05
0.14
0.27
0.29
0.24
0.17
0.12
0.12
0.17
0.22
0.23
0.20
0.13
0.09
0.09
0.13
0.18
0.18
0.11
-0.02
-0.19
-0.35
-0.47
-0.56
-0.61
-0.61
-0.52
-0.34
-0.07
0.20
0.40
0.51
0.53
0.57
0.67
0.82
0.92
0.86
0.58
0.17
-0.21
-0.39
-0.34
-0.15
0.02
0.08
0.03
-0.03
0.00
0.16
0.37
0.54
0.57
0.47
0.28
0.09
-0.05
-0.11
-0.10
-0.02
0.11
0.24
0.33
0.32
0.16
-0.12
-0.44
-0.72
-0.86
-0.81
-0.56
-0.17
0.27
0.60
0.70
0.48
0.01
-0.58
-1.07
-1.28
-1.17
-0.81
-0.35
0.03
0.27
0.36
0.37
0.36
0.37
0.38
0.38
0.37
0.34
0.32
0.31
0.33
0.35
0.33
0.20
-0.06
-0.46
-0.93
-1.31
-1.45
-1.27
-0.78
-0.10
0.56
1.03
1.22
1.12
0.77
0.30
-0.20
-0.60
-0.82
-0.81
-0.60
-0.26
0.05
0.21
0.13
-0.13
-0.43
-0.60
-0.53
-0.20
0.26
0.69
0.96
1.03
0.93
0.76
0.62
0.51
0.41
0.27
0.06
-0.20
-0.41
-0.50
-0.40
-0.14
0.21
0.53
0.72
0.71
0.53
0.27
0.03
-0.15
-0.25
-0.35
-0.49
-0.65
-0.79
-0.82
-0.68
-0.39
-0.06
0.20
0.33
0.33
0.24
0.13
0.06
0.01
-0.02
-0.06
-0.11
-0.17
-0.22
-0.26
-0.27
-0.26
-0.25
-0.24
-0.23
-0.20
-0.14
-0.07
0.00
0.03
-0.02
-0.15
-0.34
-0.51
-0.59
-0.50
-0.25
0.10
0.46
0.70
0.72
0.51
0.10
-0.38
-0.80
-1.03
-0.99
-0.68
-0.20
0.30
0.68
0.86
0.81
0.60
0.31
0.08
-0.03
0.00
0.16
0.38
0.58
0.70
0.74
0.67
0.55
0.40
0.27
0.17
0.12
0.12
0.14
0.20
0.27
0.33
0.36
0.33
0.25
0.13
-0.01
-0.17
-0.32
-0.48
-0.62
-0.70
-0.70
-0.61
-0.46
-0.33
-0.30
-0.40
-0.58
-0.75
-0.83
-0.74
-0.49
-0.15
0.20
0.48
0.62
0.62
0.50
0.30
0.08
-0.08
-0.17
-0.18
-0.17
-0.19
-0.26
-0.38
-0.48
-0.48
-0.35
-0.10
0.20
0.44
0.54
0.50
0.40
0.32
0.35
0.46
0.56
0.57
0.43
0.19
-0.10
-0.31
-0.36
-0.24
0.02
0.34
0.61
0.72
0.64
0.39
0.07
-0.21
-0.37
-0.35
-0.22
-0.04
0.10
0.16
0.11
-0.03
-0.25
-0.49
-0.67
-0.72
-0.60
-0.36
-0.07
0.13
0.16
0.00
-0.26
-0.52
-0.65
-0.60
-0.38
-0.08
0.22
0.44
0.57
0.61
0.58
0.48
0.31
0.08
-0.17
-0.39
-0.51
-0.49
-0.34
-0.12
0.05
0.10
-0.02
-0.26
-0.50
-0.62
-0.49
-0.10
0.47
1.06
1.48
1.60
1.44
1.08
0.71
0.45
0.35
0.36
0.39
0.34
0.19
0.01
-0.14
-0.22
-0.22
-0.18
-0.12
-0.04
0.07
0.19
0.28
0.26
0.08
-0.22
-0.54
-0.79
-0.88
-0.84
-0.72
-0.61
-0.55
-0.51
-0.47
-0.40
-0.34
-0.35
-0.48
-0.68
-0.83
-0.82
-0.54
-0.06
0.49
0.88
0.97
0.73
0.27
-0.22
-0.57
-0.68
-0.54
-0.24
0.16
0.55
0.86
1.06
1.16
1.16
1.08
0.95
0.77
0.55
0.29
0.02
-0.23
-0.42
-0.52
-0.51
-0.40
-0.21
0.05
0.32
0.52
0.61
0.54
0.34
0.09
-0.12
-0.23
-0.27
-0.27
-0.31
-0.37
-0.43
-0.44
-0.38
-0.28
-0.20
-0.19
-0.24
-0.35
-0.50
-0.73
-1.02
-1.31
-1.50
-1.43
-1.04
-0.41
0.25
0.74
0.92
0.85
0.67
0.55
0.56
0.64
0.70
0.67
0.54
0.38
0.26
0.16
0.07
-0.08
-0.30
-0.56
-0.76
-0.85
-0.78
-0.57
-0.30
-0.02
0.21
0.38
0.49
0.54
0.52
0.39
0.16
-0.17
-0.52
-0.78
-0.86
-0.73
-0.43
-0.05
0.29
0.52
0.66
0.73
0.79
0.83
0.84
0.79
0.66
0.47
0.26
0.07
-0.09
-0.22
-0.31
-0.36
-0.37
-0.32
-0.24
-0.16
-0.09
-0.05
-0.04
-0.06
-0.11
-0.20
-0.32
-0.45
-0.52
-0.53
-0.48
-0.44
-0.44
-0.47
-0.45
-0.29
0.03
0.45
0.86
1.11
1.18
1.12
1.03
1.01
1.05
1.04
0.84
0.42
-0.16
-0.70
-1.00
-0.94
-0.58
-0.09
0.30
0.45
0.33
0.07
-0.19
-0.34
-0.37
-0.34
-0.36
-0.46
-0.60
-0.68
-0.62
-0.40
-0.08
0.24
0.43
0.44
0.28
0.01
-0.26
-0.46
-0.53
-0.46
-0.27
-0.04
0.20
0.39
0.53
0.60
0.62
0.58
0.46
0.25
-0.04
-0.38
-0.67
-0.80
-0.70
-0.39
0.04
0.44
0.66
0.62
0.34
-0.06
-0.41
-0.60
-0.56
-0.34
-0.07
0.11
0.13
0.01
-0.16
-0.25
-0.18
0.06
0.36
0.59
0.67
0.56
0.31
0.00
-0.27
-0.44
-0.47
-0.40
-0.29
-0.23
-0.30
-0.51
-0.79
-1.04
-1.12
-0.96
-0.57
-0.06
0.42
0.71
0.76
0.61
0.40
0.25
0.22
0.32
0.44
0.48
0.37
0.16
-0.08
-0.24
-0.24
-0.08
0.19
0.49
0.73
0.86
0.86
0.78
0.66
0.57
0.53
0.54
0.56
0.53
0.42
0.19
-0.14
-0.52
-0.83
-0.98
-0.90
-0.63
-0.26
0.07
0.26
0.29
0.17
-0.02
-0.24
-0.46
-0.63
-0.70
-0.63
-0.43
-0.16
0.06
0.14
0.05
-0.13
-0.30
-0.40
-0.41
-0.39
-0.35
-0.29
-0.16
0.08
0.37
0.64
0.80
0.81
0.74
0.68
0.68
0.76
0.86
0.90
0.82
0.58
0.20
-0.25
-0.70
-1.04
-1.15
-0.98
-0.53
0.05
0.56
0.82
0.74
0.37
-0.09
-0.46
-0.63
-0.60
-0.47
-0.36
-0.32
-0.34
-0.38
-0.41
-0.45
-0.53
-0.68
-0.85
-0.94
-0.85
-0.56
-0.15
0.29
0.64
0.85
0.95
0.94
0.83
0.64
0.38
0.13
-0.01
0.05
0.30
0.62
0.86
0.91
0.76
0.48
0.20
-0.01
-0.15
-0.27
-0.41
-0.56
-0.66
-0.66
-0.55
-0.35
-0.14
0.02
0.11
0.14
0.11
0.05
-0.04
-0.14
-0.24
-0.32
-0.39
-0.46
-0.55
-0.65
-0.74
-0.77
-0.68
-0.46
-0.17
0.13
0.31
0.36
0.27
0.10
-0.07
-0.20
-0.30
-0.35
-0.33
-0.22
0.03
0.38
0.71
0.90
0.87
0.64
0.31
0.05
-0.05
0.01
0.14
0.21
0.19
0.07
-0.06
-0.15
-0.17
-0.13
-0.07
0.03
0.17
0.35
0.55
0.70
0.74
0.62
0.35
-0.01
-0.35
-0.58
-0.63
-0.50
-0.29
-0.08
0.03
0.04
0.01
0.03
0.14
0.28
0.36
0.29
0.08
-0.15
-0.28
-0.22
-0.02
0.22
0.37
0.34
0.17
-0.08
-0.30
-0.41
-0.38
-0.26
-0.11
-0.02
-0.06
-0.25
-0.51
-0.73
-0.81
-0.71
-0.45
-0.14
0.13
0.33
0.45
0.52
0.55
0.49
0.30
-0.01
-0.40
-0.73
-0.89
-0.76
-0.37
0.18
0.73
1.12
1.25
1.15
0.93
0.70
0.55
0.47
0.39
0.28
0.12
-0.02
-0.05
0.06
0.29
0.53
0.66
0.59
0.32
-0.09
-0.54
-0.92
-1.14
-1.16
-1.00
-0.72
-0.39
-0.13
0.01
-0.01
-0.14
-0.30
-0.41
-0.42
-0.35
-0.24
-0.15
-0.10
-0.08
-0.02
0.13
0.40
0.77
1.11
1.31
1.27
1.02
0.65
0.32
0.12
0.07
0.09
0.07
-0.04
-0.21
-0.38
-0.49
-0.51
-0.50
-0.49
-0.52
-0.54
-0.49
-0.35
-0.15
0.08
0.24
0.29
0.22
0.07
-0.11
-0.26
-0.32
-0.25
-0.05
0.21
0.46
0.62
0.63
0.50
0.30
0.09
-0.08
-0.20
-0.29
-0.35
-0.39
-0.38
-0.30
-0.13
0.08
0.29
0.43
0.47
0.40
0.27
0.12
-0.03
-0.15
-0.27
-0.40
-0.56
-0.73
-0.90
-1.03
-1.09
-1.06
-0.95
-0.76
-0.51
-0.25
-0.03
0.10
0.11
0.01
-0.13
-0.25
-0.28
-0.19
0.02
0.31
0.61
0.84
0.93
0.86
0.64
0.32
-0.02
-0.32
-0.53
-0.61
-0.56
-0.35
0.02
0.51
1.01
1.41
1.60
1.54
1.25
0.83
0.41
0.04
-0.23
-0.41
-0.49
-0.50
-0.46
-0.43
-0.45
-0.55
-0.67
-0.71
-0.58
-0.29
0.07
0.34
0.40
0.23
-0.07
-0.34
-0.44
-0.34
-0.12
0.12
0.32
0.46
0.60
0.78
0.99
1.15
1.15
0.95
0.55
0.06
-0.39
-0.69
-0.82
-0.83
-0.76
-0.68
-0.59
-0.47
-0.32
-0.15
-0.02
0.06
0.08
0.12
0.20
0.35
0.53
0.66
0.67
0.57
0.37
0.14
-0.09
-0.28
-0.41
-0.46
-0.39
-0.24
-0.05
0.07
0.04
-0.15
-0.45
-0.72
-0.81
-0.64
-0.23
0.32
0.82
1.13
1.17
0.95
0.58
0.18
-0.14
-0.35
-0.46
-0.51
-0.52
-0.47
-0.37
-0.24
-0.11
-0.02
0.01
-0.04
-0.16
-0.33
-0.51
-0.63
-0.64
-0.48
-0.18
0.17
0.45
0.55
0.47
0.30
0.17
0.18
0.33
0.52
0.62
0.51
0.21
-0.17
-0.49
-0.63
-0.56
-0.36
-0.14
0.03
0.14
0.25
0.41
0.60
0.75
0.73
0.48
0.03
-0.48
-0.87
-1.04
-0.99
-0.80
-0.55
-0.28
0.03
0.38
0.75
1.05
1.20
1.14
0.88
0.51
0.12
-0.19
-0.37
-0.43
-0.42
-0.39
-0.41
-0.48
-0.56
-0.60
-0.54
-0.36
-0.11
0.11
0.24
0.21
0.08
-0.10
-0.24
-0.30
-0.33
-0.38
-0.50
-0.66
-0.81
-0.86
-0.74
-0.48
-0.13
0.21
0.46
0.62
0.68
0.66
0.58
0.42
0.25
0.10
0.04
0.08
0.19
0.28
0.32
0.30
0.26
0.27
0.34
0.47
0.59
0.63
0.52
0.25
-0.13
-0.49
-0.68
-0.61
-0.30
0.10
0.39
0.41
0.16
-0.20
-0.46
-0.50
-0.31
-0.03
0.21
0.32
0.33
0.28
0.23
0.15
-0.01
-0.24
-0.49
-0.66
-0.65
-0.48
-0.19
0.08
0.28
0.35
0.33
0.26
0.18
0.13
0.09
0.06
0.03
0.00
-0.03
-0.07
-0.10
-0.11
-0.08
0.00
0.16
0.37
0.61
0.81
0.93
0.92
0.79
0.57
0.32
0.07
-0.16
-0.36
-0.51
-0.60
-0.60
-0.53
-0.44
-0.40
-0.43
-0.47
-0.44
-0.28
0.01
0.32
0.55
0.62
0.53
0.38
0.22
0.12
0.07
0.06
0.05
0.02
-0.04
-0.17
-0.33
-0.48
-0.53
-0.45
-0.28
-0.12
-0.08
-0.21
-0.45
-0.67
-0.78
-0.75
-0.62
-0.46
-0.28
-0.09
0.12
0.32
0.43
0.41
0.24
0.00
-0.22
-0.35
-0.37
-0.29
-0.17
-0.03
0.09
0.19
0.25
0.28
0.29
0.30
0.35
0.43
0.54
0.61
0.60
0.46
0.22
-0.09
-0.36
-0.53
-0.57
-0.48
-0.31
-0.13
0.01
0.11
0.21
0.35
0.55
0.76
0.89
0.87
0.68
0.35
-0.02
-0.33
-0.52
-0.56
-0.48
-0.32
-0.15
-0.01
0.07
0.10
0.09
0.07
0.09
0.15
0.26
0.36
0.43
0.43
0.35
0.21
0.01
-0.21
-0.39
-0.47
-0.40
-0.19
0.10
0.37
0.52
0.54
0.46
0.34
0.18
-0.05
-0.37
-0.72
-1.02
-1.14
-1.01
-0.67
-0.27
0.05
0.23
0.31
0.38
0.53
0.77
1.00
1.11
1.01
0.72
0.30
-0.10
-0.41
-0.58
-0.63
-0.60
-0.53
-0.42
-0.27
-0.12
-0.03
-0.04
-0.22
-0.53
-0.87
-1.12
-1.18
-1.02
-0.72
-0.40
-0.16
-0.02
0.09
0.23
0.43
0.64
0.75
0.68
0.46
0.19
-0.01
-0.08
-0.05
0.01
0.02
-0.02
-0.06
-0.04
0.07
0.24
0.37
0.42
0.33
0.13
-0.09
-0.27
-0.34
-0.27
-0.10
0.10
0.23
0.25
0.19
0.16
0.23
0.42
0.61
0.71
0.65
0.46
0.25
0.11
0.07
0.08
0.05
-0.03
-0.15
-0.21
-0.19
-0.11
-0.04
-0.06
-0.22
-0.45
-0.65
-0.73
-0.61
-0.31
0.11
0.53
0.83
0.94
0.84
0.58
0.23
-0.12
-0.42
-0.63
-0.73
-0.75
-0.73
-0.71
-0.71
-0.72
-0.66
-0.47
-0.13
0.30
0.68
0.87
0.80
0.48
0.04
-0.39
-0.69
-0.86
-0.91
-0.91
-0.86
-0.75
-0.56
-0.27
0.09
0.47
0.80
1.03
1.11
1.04
0.85
0.59
0.33
0.14
0.08
0.14
0.29
0.47
0.60
0.61
0.47
0.19
-0.17
-0.51
-0.74
-0.79
-0.65
-0.39
-0.08
0.18
0.38
0.52
0.64
0.74
0.77
0.68
0.45
0.11
-0.24
-0.49
-0.60
-0.56
-0.44
-0.31
-0.22
-0.20
-0.22
-0.24
-0.25
-0.24
-0.21
-0.17
-0.12
-0.04
0.04
0.13
0.19
0.19
0.14
0.07
0.05
0.09
0.21
0.37
0.50
0.54
0.45
0.22
-0.09
-0.38
-0.56
-0.52
-0.25
0.15
0.52
0.68
0.53
0.13
-0.36
-0.77
-0.99
-1.03
-0.93
-0.75
-0.52
-0.23
0.08
0.34
0.48
0.46
0.33
0.17
0.08
0.10
0.21
0.35
0.43
0.39
0.19
-0.14
-0.52
-0.81
-0.89
-0.74
-0.42
-0.09
0.11
0.11
-0.03
-0.20
-0.27
-0.22
-0.08
0.11
0.33
0.58
0.85
1.08
1.16
1.00
0.62
0.13
-0.31
-0.54
-0.50
-0.24
0.14
0.52
0.79
0.92
0.90
0.76
0.53
0.25
-0.01
-0.21
-0.33
-0.39
-0.41
-0.42
-0.42
-0.40
-0.33
-0.19
0.00
0.20
0.34
0.35
0.20
-0.10
-0.48
-0.85
-1.11
-1.18
-1.02
-0.68
-0.23
0.22
0.57
0.77
0.81
0.72
0.55
0.34
0.11
-0.09
-0.23
-0.29
-0.27
-0.23
-0.23
-0.30
-0.43
-0.56
-0.63
-0.63
-0.60
-0.58
-0.57
-0.56
-0.47
-0.31
-0.09
0.08
0.16
0.12
0.04
0.02
0.11
0.32
0.58
0.83
0.98
1.04
1.01
0.91
0.76
0.57
0.38
0.22
0.09
-0.00
-0.08
-0.17
-0.27
-0.35
-0.39
-0.37
-0.29
-0.20
-0.16
-0.19
-0.30
-0.44
-0.54
-0.56
-0.46
-0.25
0.02
0.30
0.52
0.60
0.50
0.23
-0.14
-0.53
-0.83
-0.98
-0.95
-0.80
-0.60
-0.41
-0.24
-0.07
0.12
0.32
0.51
0.61
0.62
0.55
0.48
0.46
0.49
0.53
0.46
0.25
-0.09
-0.48
-0.77
-0.86
-0.73
-0.40
0.01
0.42
0.73
0.87
0.82
0.61
0.28
-0.08
-0.39
-0.58
-0.65
-0.59
-0.49
-0.38
-0.30
-0.22
-0.10
0.06
0.23
0.36
0.36
0.22
-0.02
-0.26
-0.41
-0.42
-0.31
-0.13
0.05
0.21
0.34
0.46
0.53
0.53
0.45
0.30
0.15
0.07
0.10
0.23
0.39
0.51
0.52
0.41
0.20
-0.05
-0.27
-0.40
-0.39
-0.21
0.11
0.53
0.94
1.25
1.38
1.29
1.00
0.58
0.16
-0.16
-0.31
-0.29
-0.11
0.14
0.41
0.63
0.72
0.61
0.30
-0.19
-0.71
-1.11
-1.26
-1.10
-0.68
-0.12
0.44
0.86
1.08
1.05
0.76
0.27
-0.33
-0.90
-1.28
-1.43
-1.35
-1.13
-0.92
-0.81
-0.82
-0.92
-1.03
-1.10
-1.08
-0.99
-0.84
-0.63
-0.40
-0.19
-0.04
0.04
0.05
0.05
0.08
0.21
0.44
0.72
1.00
1.21
1.30
1.23
1.00
0.65
0.28
0.02
-0.04
0.10
0.35
0.57
0.67
0.61
0.44
0.25
0.03
-0.21
-0.51
-0.83
-1.06
-1.07
-0.79
-0.27
0.32
0.78
0.96
0.84
0.51
0.09
-0.28
-0.51
-0.59
-0.53
-0.39
-0.20
0.01
0.21
0.36
0.44
0.43
0.30
0.10
-0.15
-0.39
-0.61
-0.79
-0.91
-0.96
-0.86
-0.61
-0.22
0.17
0.44
0.51
0.38
0.12
-0.14
-0.35
-0.47
-0.51
-0.46
-0.31
-0.05
0.25
0.51
0.66
0.67
0.58
0.47
0.41
0.39
0.37
0.29
0.14
-0.02
-0.10
-0.02
0.23
0.59
0.94
1.15
1.15
0.92
0.54
0.10
-0.30
-0.60
-0.77
-0.83
-0.80
-0.71
-0.55
-0.34
-0.12
0.09
0.23
0.29
0.27
0.21
0.12
0.02
-0.08
-0.18
-0.25
-0.27
-0.20
-0.05
0.11
0.19
0.08
-0.24
-0.73
-1.22
-1.51
-1.46
-1.06
-0.44
0.19
0.61
0.73
0.59
0.33
0.11
0.03
0.07
0.16
0.20
0.17
0.08
0.01
0.00
0.06
0.15
0.21
0.19
0.09
-0.05
-0.17
-0.18
-0.07
0.13
0.32
0.39
0.29
0.03
-0.26
-0.46
-0.48
-0.32
-0.05
0.24
0.48
0.60
0.61
0.52
0.37
0.19
0.03
-0.07
-0.11
-0.07
-0.01
0.06
0.06
-0.02
-0.20
-0.41
-0.58
-0.60
-0.42
-0.07
0.31
0.58
0.70
0.68
0.66
0.73
0.94
1.19
1.37
1.34
1.07
0.60
0.04
-0.47
-0.82
-0.99
-0.99
-0.90
-0.79
-0.71
-0.67
-0.66
-0.64
-0.60
-0.52
-0.41
-0.29
-0.17
-0.08
0.00
0.07
0.13
0.16
0.12
-0.01
-0.19
-0.35
-0.39
-0.24
0.04
0.33
0.45
0.33
0.01
-0.33
-0.49
-0.41
-0.13
0.17
0.32
0.25
-0.00
-0.32
-0.58
-0.69
-0.64
-0.48
-0.26
0.00
0.31
0.66
1.03
1.35
1.50
1.38
0.97
0.36
-0.27
-0.69
-0.76
-0.48
0.01
0.53
0.90
1.02
0.91
0.65
0.35
0.08
-0.11
-0.23
-0.28
-0.30
-0.30
-0.29
-0.24
-0.14
0.04
0.30
0.57
0.78
0.84
0.72
0.48
0.22
0.05
-0.02
-0.02
-0.10
-0.35
-0.80
-1.34
-1.77
-1.91
-1.65
-1.05
-0.29
0.40
0.87
1.08
1.06
0.89
0.59
0.18
-0.30
-0.74
-1.00
-0.97
-0.65
-0.19
0.20
0.38
0.30
0.06
-0.22
-0.45
-0.63
-0.78
-0.87
-0.86
-0.73
-0.46
-0.12
0.21
0.46
0.63
0.73
0.79
0.80
0.71
0.50
0.22
-0.04
-0.21
-0.25
-0.17
-0.06
-0.01
-0.03
-0.08
-0.06
0.09
0.37
0.67
0.87
0.90
0.76
0.55
0.36
0.23
0.16
0.08
-0.06
-0.26
-0.49
-0.72
-0.94
-1.16
-1.33
-1.38
-1.22
-0.82
-0.26
0.27
0.60
0.62
0.36
-0.03
-0.40
-0.61
-0.62
-0.43
-0.10
0.31
0.69
0.94
0.98
0.80
0.45
0.08
-0.15
-0.18
-0.03
0.17
0.32
0.34
0.27
0.15
0.05
-0.03
-0.11
-0.19
-0.26
-0.26
-0.16
0.05
0.33
0.60
0.76
0.77
0.62
0.35
0.06
-0.19
-0.35
-0.42
-0.41
-0.38
-0.34
-0.29
-0.18
-0.00
0.24
0.49
0.65
0.65
0.46
0.14
-0.21
-0.48
-0.56
-0.44
-0.16
0.20
0.49
0.64
0.61
0.44
0.22
0.05
-0.04
-0.07
-0.12
-0.25
-0.46
-0.68
-0.82
-0.80
-0.60
-0.31
-0.04
0.10
0.07
-0.06
-0.21
-0.31
-0.31
-0.23
-0.11
-0.02
-0.03
-0.13
-0.30
-0.43
-0.43
-0.26
0.04
0.35
0.54
0.53
0.34
0.09
-0.05
0.01
0.23
0.49
0.62
0.54
0.28
-0.04
-0.27
-0.35
-0.31
-0.21
-0.15
-0.15
-0.21
-0.29
-0.36
-0.38
-0.36
-0.26
-0.09
0.16
0.45
0.71
0.89
0.96
0.93
0.83
0.67
0.45
0.13
-0.27
-0.66
-0.91
-0.92
-0.65
-0.22
0.20
0.45
0.45
0.25
-0.00
-0.19
-0.23
-0.16
-0.04
0.03
0.05
0.02
0.02
0.06
0.15
0.25
0.31
0.31
0.28
0.28
0.33
0.37
0.32
0.07
-0.40
-1.01
-1.58
-1.91
-1.89
-1.52
-0.91
-0.26
0.28
0.63
0.81
0.89
0.95
1.02
1.07
1.05
0.93
0.72
0.48
0.28
0.16
0.11
0.10
0.08
0.02
-0.08
-0.18
-0.26
-0.29
-0.25
-0.17
-0.13
-0.17
-0.31
-0.47
-0.53
-0.41
-0.10
0.27
0.55
0.62
0.48
0.27
0.12
0.13
0.28
0.46
0.59
0.60
0.52
0.38
0.21
0.04
-0.15
-0.34
-0.50
-0.61
-0.64
-0.60
-0.47
-0.28
-0.04
0.20
0.39
0.47
0.40
0.20
-0.05
-0.25
-0.34
-0.27
-0.09
0.14
0.34
0.46
0.50
0.47
0.38
0.23
0.04
-0.16
-0.35
-0.50
-0.61
-0.71
-0.78
-0.84
-0.84
-0.79
-0.69
-0.58
-0.51
-0.50
-0.53
-0.56
-0.55
-0.48
-0.36
-0.23
-0.10
0.03
0.20
0.38
0.54
0.57
0.43
0.12
-0.23
-0.45
-0.40
-0.06
0.41
0.79
0.88
0.63
0.18
-0.25
-0.47
-0.44
-0.23
0.00
0.16
0.22
0.21
0.21
0.25
0.34
0.43
0.52
0.59
0.62
0.62
0.56
0.45
0.31
0.19
0.13
0.11
0.10
0.06
-0.01
-0.08
-0.10
-0.04
0.06
0.16
0.21
0.21
0.17
0.14
0.11
0.06
-0.05
-0.25
-0.48
-0.69
-0.78
-0.73
-0.55
-0.29
-0.02
0.23
0.40
0.49
0.46
0.31
0.06
-0.22
-0.45
-0.54
-0.44
-0.20
0.09
0.32
0.42
0.37
0.23
0.07
-0.10
-0.28
-0.47
-0.63
-0.68
-0.54
-0.22
0.18
0.52
0.65
0.51
0.19
-0.16
-0.38
-0.41
-0.27
-0.06
0.08
0.10
0.02
-0.08
-0.08
0.03
0.23
0.36
0.31
0.03
-0.40
-0.81
-1.02
-0.95
-0.63
-0.20
0.20
0.47
0.58
0.56
0.45
0.28
0.09
-0.07
-0.14
-0.08
0.11
0.39
0.66
0.81
0.77
0.54
0.18
-0.19
-0.48
-0.63
-0.66
-0.62
-0.56
-0.48
-0.35
-0.16
0.08
0.29
0.38
0.31
0.10
-0.13
-0.28
-0.26
-0.09
0.13
0.31
0.36
0.28
0.13
0.01
-0.03
0.03
0.13
0.19
0.14
-0.01
-0.18
-0.28
-0.22
-0.03
0.22
0.40
0.45
0.38
0.23
0.06
-0.10
-0.25
-0.39
-0.49
-0.50
-0.38
-0.15
0.11
0.28
0.31
0.20
0.04
-0.09
-0.13
-0.12
-0.09
-0.08
-0.09
-0.06
0.04
0.20
0.36
0.45
0.41
0.30
0.19
0.16
0.25
0.39
0.50
0.49
0.36
0.16
0.00
-0.05
0.02
0.14
0.26
0.33
0.34
0.35
0.39
0.45
0.51
0.48
0.28
-0.09
-0.57
-0.99
-1.20
-1.07
-0.66
-0.11
0.36
0.59
0.56
0.34
0.09
-0.06
-0.07
-0.01
0.06
0.03
-0.11
-0.36
-0.62
-0.83
-0.90
-0.83
-0.65
-0.44
-0.30
-0.27
-0.34
-0.43
-0.47
-0.40
-0.23
-0.03
0.14
0.25
0.33
0.39
0.46
0.52
0.54
0.47
0.30
0.04
-0.24
-0.48
-0.64
-0.66
-0.55
-0.33
-0.06
0.19
0.33
0.31
0.15
-0.10
-0.33
-0.46
-0.45
-0.31
-0.09
0.13
0.30
0.36
0.32
0.18
-0.02
-0.24
-0.42
-0.49
-0.43
-0.22
0.09
0.43
0.73
0.93
1.01
0.97
0.83
0.63
0.41
0.19
0.03
-0.04
-0.02
0.06
0.13
0.11
0.01
-0.13
-0.22
-0.17
0.03
0.31
0.57
0.70
0.66
0.45
0.17
-0.12
-0.34
-0.47
-0.51
-0.46
-0.33
-0.15
0.05
0.21
0.29
0.27
0.19
0.12
0.12
0.21
0.34
0.42
0.38
0.23
0.03
-0.10
-0.11
-0.05
-0.03
-0.14
-0.37
-0.63
-0.76
-0.67
-0.42
-0.14
0.01
-0.00
-0.11
-0.18
-0.11
0.07
0.26
0.32
0.21
-0.02
-0.25
-0.37
-0.34
-0.23
-0.15
-0.19
-0.36
-0.57
-0.68
-0.60
-0.34
0.01
0.31
0.44
0.35
0.11
-0.18
-0.39
-0.43
-0.30
-0.05
0.24
0.49
0.65
0.71
0.68
0.61
0.53
0.45
0.35
0.22
0.05
-0.16
-0.35
-0.50
-0.60
-0.64
-0.66
-0.64
-0.61
-0.55
-0.47
-0.38
-0.29
-0.22
-0.15
-0.07
0.05
0.18
0.31
0.39
0.41
0.34
0.20
0.03
-0.13
-0.24
-0.24
-0.11
0.13
0.43
0.69
0.86
0.90
0.86
0.77
0.69
0.62
0.52
0.38
0.19
-0.00
-0.19
-0.34
-0.50
-0.67
-0.85
-0.98
-1.00
-0.86
-0.59
-0.26
0.03
0.22
0.29
0.25
0.13
-0.05
-0.28
-0.53
-0.74
-0.82
-0.67
-0.27
0.31
0.92
1.40
1.64
1.60
1.34
0.94
0.50
0.09
-0.24
-0.45
-0.50
-0.38
-0.13
0.16
0.34
0.35
0.16
-0.14
-0.43
-0.59
-0.56
-0.35
-0.06
0.20
0.34
0.31
0.14
-0.08
-0.23
-0.23
-0.08
0.14
0.30
0.28
0.06
-0.28
-0.62
-0.86
-0.95
-0.95
-0.90
-0.81
-0.63
-0.32
0.14
0.64
1.01
1.10
0.87
0.42
-0.06
-0.37
-0.40
-0.20
0.09
0.29
0.30
0.11
-0.20
-0.48
-0.60
-0.50
-0.20
0.22
0.65
0.97
1.11
1.09
0.98
0.84
0.73
0.61
0.43
0.16
-0.19
-0.52
-0.72
-0.74
-0.62
-0.46
-0.36
-0.34
-0.37
-0.35
-0.21
0.02
0.25
0.37
0.32
0.14
-0.08
-0.23
-0.25
-0.15
0.03
0.21
0.34
0.37
0.27
0.05
-0.24
-0.54
-0.78
-0.92
-0.93
-0.84
-0.67
-0.47
-0.26
-0.11
-0.05
-0.09
-0.22
-0.38
-0.51
-0.56
-0.49
-0.32
-0.06
0.24
0.53
0.72
0.77
0.67
0.45
0.24
0.14
0.18
0.32
0.44
0.43
0.28
0.05
-0.15
-0.21
-0.13
0.03
0.18
0.29
0.37
0.47
0.64
0.83
0.97
0.94
0.72
0.33
-0.08
-0.39
-0.52
-0.49
-0.40
-0.36
-0.43
-0.57
-0.69
-0.69
-0.55
-0.35
-0.20
-0.18
-0.29
-0.43
-0.49
-0.43
-0.30
-0.21
-0.24
-0.39
-0.59
-0.67
-0.55
-0.23
0.20
0.59
0.85
0.93
0.86
0.72
0.57
0.46
0.38
0.31
0.19
0.02
-0.18
-0.34
-0.39
-0.31
-0.12
0.11
0.31
0.42
0.44
0.40
0.32
0.19
-0.02
-0.28
-0.53
-0.67
-0.62
-0.35
0.06
0.49
0.83
1.02
1.07
1.00
0.85
0.61
0.33
0.09
-0.02
0.08
0.36
0.72
0.95
0.90
0.50
-0.14
-0.82
-1.32
-1.51
-1.38
-1.02
-0.56
-0.12
0.26
0.54
0.72
0.78
0.70
0.48
0.18
-0.14
-0.40
-0.58
-0.69
-0.74
-0.73
-0.64
-0.49
-0.32
-0.20
-0.19
-0.29
-0.41
-0.48
-0.41
-0.24
-0.06
0.00
-0.11
-0.36
-0.64
-0.84
-0.89
-0.79
-0.59
-0.37
-0.16
0.02
0.19
0.36
0.52
0.65
0.72
0.70
0.57
0.39
0.20
0.09
0.10
0.23
0.41
0.57
0.67
0.71
0.72
0.73
0.72
0.64
0.44
0.11
-0.29
-0.66
-0.87
-0.89
-0.73
-0.48
-0.21
-0.00
0.11
0.13
0.09
0.03
0.00
0.06
0.20
0.39
0.59
0.71
0.69
0.52
0.22
-0.15
-0.50
-0.71
-0.72
-0.49
-0.09
0.32
0.59
0.64
0.49
0.22
-0.05
-0.24
-0.32
-0.30
-0.19
-0.01
0.24
0.47
0.59
0.52
0.28
-0.03
-0.26
-0.31
-0.20
-0.02
0.08
0.04
-0.12
-0.29
-0.37
-0.33
-0.22
-0.12
-0.08
-0.13
-0.19
-0.18
-0.08
0.08
0.24
0.31
0.25
0.10
-0.10
-0.30
-0.45
-0.54
-0.58
-0.55
-0.46
-0.31
-0.15
-0.02
0.03
-0.01
-0.10
-0.18
-0.17
-0.03
0.23
0.56
0.83
0.94
0.82
0.50
0.06
-0.37
-0.66
-0.76
-0.70
-0.56
-0.42
-0.35
-0.37
-0.42
-0.44
-0.39
-0.24
-0.05
0.11
0.17
0.10
-0.02
-0.11
-0.08
0.11
0.36
0.57
0.61
0.47
0.24
0.04
-0.02
0.04
0.13
0.16
0.10
0.03
0.06
0.24
0.53
0.79
0.87
0.73
0.45
0.19
0.04
0.07
0.19
0.33
0.39
0.36
0.27
0.12
-0.07
-0.31
-0.53
-0.69
-0.70
-0.54
-0.26
0.03
0.22
0.24
0.11
-0.09
-0.24
-0.28
-0.24
-0.19
-0.21
-0.31
-0.43
-0.50
-0.42
-0.22
0.02
0.18
0.19
0.11
0.00
-0.02
0.07
0.19
0.24
0.16
-0.02
-0.18
-0.24
-0.15
0.03
0.20
0.30
0.34
0.34
0.37
0.40
0.40
0.30
0.10
-0.16
-0.42
-0.60
-0.70
-0.71
-0.66
-0.56
-0.45
-0.33
-0.24
-0.18
-0.17
-0.21
-0.30
-0.41
-0.49
-0.49
-0.39
-0.19
0.04
0.22
0.27
0.20
0.09
0.06
0.20
0.48
0.76
0.91
0.84
0.64
0.45
0.39
0.48
0.56
0.46
0.08
-0.47
-0.98
-1.20
-1.00
-0.48
0.15
0.67
0.98
1.07
1.05
0.98
0.87
0.67
0.38
0.08
-0.16
-0.23
-0.14
0.02
0.13
0.11
-0.01
-0.18
-0.30
-0.31
-0.22
-0.06
0.11
0.25
0.34
0.38
0.38
0.34
0.26
0.12
-0.09
-0.36
-0.62
-0.81
-0.85
-0.73
-0.51
-0.31
-0.21
-0.24
-0.36
-0.47
-0.50
-0.45
-0.35
-0.25
-0.17
-0.12
-0.07
-0.00
0.07
0.13
0.14
0.10
0.00
-0.12
-0.23
-0.29
-0.24
-0.09
0.15
0.39
0.58
0.66
0.61
0.49
0.36
0.29
0.30
0.36
0.41
0.37
0.23
0.03
-0.15
-0.25
-0.26
-0.19
-0.07
0.05
0.19
0.35
0.53
0.66
0.67
0.53
0.30
0.09
0.00
0.11
0.34
0.57
0.64
0.48
0.10
-0.42
-0.92
-1.29
-1.45
-1.35
-1.03
-0.54
0.03
0.55
0.90
0.98
0.79
0.39
-0.09
-0.48
-0.67
-0.63
-0.41
-0.17
-0.02
-0.06
-0.25
-0.52
-0.74
-0.83
-0.77
-0.63
-0.49
-0.41
-0.39
-0.39
-0.35
-0.23
-0.06
0.12
0.28
0.40
0.51
0.64
0.78
0.90
0.96
0.89
0.71
0.44
0.14
-0.18
-0.50
-0.80
-1.05
-1.14
-1.00
-0.61
-0.07
0.45
0.76
0.78
0.58
0.30
0.13
0.13
0.24
0.32
0.25
0.01
-0.28
-0.49
-0.51
-0.34
-0.09
0.10
0.18
0.19
0.21
0.32
0.49
0.63
0.60
0.36
-0.04
-0.42
-0.60
-0.51
-0.20
0.16
0.41
0.48
0.40
0.29
0.27
0.35
0.43
0.41
0.21
-0.13
-0.49
-0.72
-0.75
-0.61
-0.41
-0.30
-0.34
-0.51
-0.70
-0.81
-0.76
-0.58
-0.33
-0.10
0.06
0.16
0.25
0.34
0.43
0.47
0.46
0.42
0.42
0.52
0.69
0.86
0.92
0.83
0.63
0.42
0.29
0.32
0.50
0.75
0.99
1.14
1.15
0.99
0.66
0.20
-0.36
-0.90
-1.33
-1.55
-1.54
-1.32
-0.97
-0.58
-0.27
-0.09
-0.05
-0.13
-0.29
-0.45
-0.56
-0.59
-0.53
-0.40
-0.25
-0.11
0.01
0.12
0.28
0.48
0.67
0.76
0.63
0.26
-0.25
-0.73
-0.96
-0.81
-0.34
0.30
0.84
1.09
0.98
0.58
0.02
-0.54
-0.98
-1.24
-1.28
-1.10
-0.72
-0.22
0.29
0.67
0.80
0.67
0.36
0.04
-0.14
-0.09
0.16
0.50
0.77
0.85
0.70
0.35
-0.08
-0.50
-0.81
-0.95
-0.92
-0.73
-0.43
-0.06
0.29
0.57
0.71
0.69
0.54
0.34
0.17
0.11
0.16
0.27
0.34
0.28
0.07
-0.23
-0.51
-0.67
-0.69
-0.60
-0.50
-0.42
-0.35
-0.24
-0.03
0.25
0.51
0.64
0.57
0.37
0.15
0.04
0.08
0.22
0.37
0.43
0.41
0.33
0.25
0.16
0.06
-0.04
-0.10
-0.06
0.12
0.41
0.68
0.78
0.61
0.19
-0.35
-0.81
-1.07
-1.10
-0.94
-0.72
-0.50
-0.33
-0.20
-0.14
-0.17
-0.29
-0.48
-0.64
-0.65
-0.44
-0.06
0.37
0.69
0.78
0.66
0.44
0.24
0.17
0.23
0.37
0.52
0.61
0.66
0.67
0.67
0.69
0.71
0.70
0.62
0.43
0.15
-0.17
-0.44
-0.60
-0.61
-0.49
-0.33
-0.22
-0.21
-0.28
-0.35
-0.35
-0.24
-0.08
0.02
-0.02
-0.19
-0.42
-0.58
-0.63
-0.54
-0.38
-0.19
0.01
0.20
0.40
0.57
0.64
0.59
0.42
0.18
-0.03
-0.15
-0.13
0.03
0.28
0.54
0.73
0.77
0.64
0.36
0.01
-0.33
-0.59
-0.75
-0.83
-0.84
-0.81
-0.73
-0.64
-0.54
-0.45
-0.35
-0.24
-0.14
-0.09
-0.11
-0.18
-0.23
-0.18
0.01
0.30
0.55
0.63
0.50
0.22
-0.06
-0.23
-0.22
-0.09
0.04
0.12
0.09
0.01
-0.06
-0.07
-0.04
0.02
0.10
0.16
0.21
0.23
0.23
0.22
0.23
0.31
0.47
0.68
0.83
0.82
0.57
0.14
-0.35
-0.73
-0.92
-0.88
-0.68
-0.42
-0.18
0.04
0.26
0.50
0.75
0.94
1.00
0.86
0.52
0.04
-0.45
-0.84
-1.06
-1.10
-0.99
-0.81
-0.61
-0.41
-0.23
-0.07
0.03
0.07
0.06
0.03
0.04
0.13
0.28
0.44
0.55
0.57
0.50
0.34
0.14
-0.10
-0.34
-0.55
-0.70
-0.74
-0.64
-0.44
-0.17
0.10
0.28
0.34
0.27
0.11
-0.07
-0.20
-0.24
-0.19
-0.08
0.06
0.20
0.33
0.44
0.49
0.47
0.34
0.12
-0.15
-0.37
-0.43
-0.27
0.10
0.55
0.91
0.99
0.73
0.22
-0.36
-0.79
-0.94
-0.81
-0.50
-0.14
0.17
0.41
0.60
0.75
0.82
0.78
0.62
0.34
0.04
-0.21
-0.32
-0.24
-0.01
0.29
0.56
0.66
0.52
0.19
-0.22
-0.55
-0.69
-0.63
-0.46
-0.30
-0.22
-0.20
-0.18
-0.11
0.00
0.06
-0.01
-0.21
-0.44
-0.57
-0.51
-0.26
0.05
0.25
0.24
0.01
-0.33
-0.63
-0.76
-0.71
-0.54
-0.39
-0.34
-0.38
-0.41
-0.33
-0.10
0.17
0.33
0.24
-0.10
-0.52
-0.76
-0.63
-0.11
0.59
1.20
1.45
1.27
0.80
0.23
-0.22
-0.46
-0.52
-0.48
-0.38
-0.21
0.06
0.49
1.01
1.49
1.78
1.76
1.45
0.93
0.35
-0.14
-0.47
-0.58
-0.50
-0.26
0.04
0.32
0.52
0.61
0.61
0.58
0.57
0.58
0.57
0.50
0.33
0.07
-0.25
-0.58
-0.88
-1.15
-1.35
-1.43
-1.35
-1.14
-0.85
-0.57
-0.38
-0.28
-0.26
-0.27
-0.31
-0.36
-0.45
-0.55
-0.59
-0.55
-0.40
-0.19
0.02
0.18
0.29
0.36
0.44
0.49
0.50
0.44
0.35
0.27
0.25
0.30
0.39
0.47
0.48
0.39
0.19
-0.07
-0.34
-0.51
-0.52
-0.37
-0.10
0.17
0.32
0.29
0.12
-0.10
-0.26
-0.29
-0.20
-0.02
0.19
0.41
0.60
0.71
0.70
0.56
0.31
0.01
-0.27
-0.45
-0.50
-0.44
-0.29
-0.11
0.07
0.22
0.32
0.37
0.39
0.42
0.47
0.51
0.47
0.31
-0.00
-0.40
-0.77
-0.96
-0.90
-0.60
-0.18
0.22
0.47
0.53
0.45
0.32
0.20
0.13
0.09
0.06
0.04
0.05
0.07
0.08
0.02
-0.15
-0.41
-0.67
-0.83
-0.83
-0.69
-0.51
-0.38
-0.38
-0.44
-0.50
-0.48
-0.35
-0.16
0.06
0.29
0.53
0.81
1.07
1.23
1.20
0.97
0.60
0.18
-0.17
-0.38
-0.47
-0.45
-0.36
-0.24
-0.10
0.00
0.03
-0.04
-0.19
-0.35
-0.44
-0.41
-0.29
-0.13
-0.00
0.06
0.08
0.10
0.17
0.30
0.46
0.58
0.59
0.45
0.22
-0.05
-0.29
-0.43
-0.43
-0.33
-0.14
0.07
0.22
0.27
0.20
0.03
-0.15
-0.26
-0.25
-0.12
0.10
0.30
0.41
0.42
0.35
0.29
0.30
0.43
0.63
0.82
0.89
0.78
0.46
0.01
-0.49
-0.91
-1.18
-1.24
-1.10
-0.80
-0.45
-0.17
-0.05
-0.16
-0.48
-0.90
-1.27
-1.45
-1.37
-1.01
-0.45
0.19
0.78
1.20
1.36
1.23
0.84
0.29
-0.30
-0.78
-1.02
-0.97
-0.63
-0.08
0.54
1.09
1.43
1.52
1.36
1.06
0.71
0.42
0.22
0.10
-0.00
-0.15
-0.34
-0.55
-0.74
-0.85
-0.85
-0.75
-0.55
-0.26
0.07
0.40
0.65
0.79
0.77
0.59
0.30
-0.03
-0.31
-0.48
-0.51
-0.43
-0.29
-0.16
-0.08
-0.07
-0.12
-0.20
-0.23
-0.17
0.03
0.34
0.66
0.88
0.88
0.63
0.20
-0.26
-0.59
-0.69
-0.57
-0.28
0.07
0.37
0.57
0.63
0.53
0.29
-0.02
-0.34
-0.60
-0.73
-0.72
-0.58
-0.34
-0.09
0.08
0.12
0.00
-0.22
-0.44
-0.55
-0.47
-0.19
0.20
0.59
0.88
0.97
0.86
0.60
0.30
0.06
-0.03
0.05
0.26
0.53
0.76
0.89
0.89
0.76
0.53
0.25
-0.03
-0.24
-0.37
-0.43
-0.46
-0.51
-0.57
-0.63
-0.66
-0.64
-0.58
-0.50
-0.39
-0.25
-0.05
0.18
0.37
0.45
0.37
0.18
-0.07
-0.26
-0.36
-0.36
-0.31
-0.25
-0.20
-0.17
-0.17
-0.22
-0.34
-0.50
-0.65
-0.72
-0.67
-0.47
-0.17
0.15
0.43
0.59
0.62
0.50
0.26
-0.04
-0.28
-0.37
-0.26
0.03
0.40
0.75
0.94
0.93
0.74
0.43
0.11
-0.13
-0.25
-0.23
-0.12
0.04
0.21
0.37
0.54
0.72
0.89
0.96
0.88
0.61
0.23
-0.11
-0.28
-0.24
-0.05
0.17
0.27
0.21
0.02
-0.20
-0.35
-0.40
-0.36
-0.30
-0.30
-0.38
-0.51
-0.65
-0.74
-0.77
-0.76
-0.80
-0.93
-1.16
-1.43
-1.65
-1.70
-1.55
-1.23
-0.82
-0.42
-0.07
0.24
0.50
0.70
0.80
0.78
0.67
0.52
0.44
0.48
0.62
0.78
0.86
0.79
0.55
0.25
0.01
-0.07
0.05
0.27
0.50
0.61
0.58
0.42
0.22
0.03
-0.09
-0.14
-0.16
-0.15
-0.11
-0.01
0.16
0.38
0.58
0.68
0.65
0.49
0.27
0.06
-0.06
-0.02
0.17
0.43
0.66
0.78
0.72
0.50
0.18
-0.16
-0.46
-0.72
-0.92
-1.05
-1.09
-0.99
-0.74
-0.37
0.02
0.31
0.43
0.40
0.29
0.20
0.18
0.21
0.21
0.13
-0.04
-0.25
-0.47
-0.65
-0.81
-0.95
-1.02
-0.96
-0.72
-0.33
0.13
0.49
0.67
0.63
0.48
0.34
0.28
0.32
0.37
0.34
0.16
-0.12
-0.41
-0.60
-0.64
-0.54
-0.39
-0.25
-0.16
-0.07
0.07
0.30
0.61
0.91
1.08
1.02
0.73
0.31
-0.10
-0.37
-0.46
-0.43
-0.38
-0.40
-0.50
-0.61
-0.62
-0.47
-0.16
0.22
0.55
0.76
0.80
0.70
0.49
0.26
0.06
-0.07
-0.10
-0.04
0.06
0.14
0.19
0.21
0.24
0.31
0.39
0.42
0.33
0.11
-0.19
-0.45
-0.55
-0.43
-0.13
0.21
0.45
0.50
0.36
0.12
-0.09
-0.15
-0.06
0.15
0.36
0.45
0.38
0.14
-0.18
-0.49
-0.71
-0.78
-0.71
-0.54
-0.33
-0.13
0.02
0.10
0.10
0.04
-0.01
-0.04
-0.04
-0.02
-0.04
-0.13
-0.29
-0.50
-0.69
-0.81
-0.82
-0.69
-0.47
-0.21
0.04
0.22
0.31
0.34
0.31
0.25
0.17
0.10
0.04
0.02
0.06
0.17
0.33
0.50
0.62
0.63
0.53
0.34
0.12
-0.06
-0.16
-0.22
-0.27
-0.33
-0.43
-0.50
-0.51
-0.43
-0.27
-0.07
0.12
0.24
0.30
0.28
0.19
0.07
-0.07
-0.17
-0.21
-0.19
-0.12
-0.06
-0.02
-0.01
0.01
0.07
0.20
0.36
0.55
0.69
0.73
0.64
0.44
0.17
-0.08
-0.25
-0.31
-0.24
-0.09
0.10
0.28
0.39
0.39
0.31
0.17
0.03
-0.05
-0.03
0.04
0.11
0.10
-0.04
-0.27
-0.49
-0.60
-0.52
-0.24
0.15
0.55
0.79
0.80
0.57
0.18
-0.20
-0.45
-0.51
-0.39
-0.18
0.07
0.29
0.45
0.53
0.49
0.31
0.01
-0.35
-0.66
-0.84
-0.87
-0.81
-0.72
-0.65
-0.59
-0.49
-0.32
-0.09
0.09
0.12
-0.03
-0.34
-0.66
-0.82
-0.73
-0.39
0.08
0.50
0.71
0.65
0.38
0.06
-0.15
-0.16
0.03
0.31
0.55
0.66
0.62
0.50
0.37
0.27
0.23
0.22
0.19
0.10
-0.06
-0.32
-0.63
-0.90
-1.02
-0.88
-0.48
0.07
0.57
0.79
0.67
0.27
-0.21
-0.52
-0.51
-0.18
0.36
0.91
1.31
1.47
1.39
1.14
0.81
0.47
0.17
-0.08
-0.28
-0.41
-0.43
-0.36
-0.22
-0.07
0.02
0.03
-0.03
-0.11
-0.17
-0.22
-0.28
-0.37
-0.48
-0.59
-0.67
-0.73
-0.80
-0.89
-0.97
-0.99
-0.86
-0.57
-0.19
0.17
0.38
0.40
0.31
0.20
0.17
0.23
0.31
0.34
0.29
0.22
0.21
0.31
0.49
0.66
0.72
0.65
0.48
0.28
0.11
-0.02
-0.14
-0.23
-0.27
-0.21
-0.05
0.15
0.31
0.35
0.26
0.11
-0.02
-0.09
-0.07
-0.02
0.02
0.06
0.09
0.15
0.24
0.35
0.44
0.50
0.51
0.51
0.50
0.48
0.41
0.26
0.01
-0.28
-0.56
-0.73
-0.76
-0.66
-0.50
-0.38
-0.38
-0.50
-0.67
-0.80
-0.84
-0.75
-0.56
-0.30
-0.04
0.19
0.33
0.36
0.29
0.15
0.00
-0.10
-0.13
-0.11
-0.05
0.01
0.08
0.17
0.27
0.35
0.37
0.28
0.09
-0.17
-0.41
-0.56
-0.54
-0.36
-0.06
0.27
0.53
0.63
0.57
0.37
0.10
-0.16
-0.38
-0.54
-0.64
-0.70
-0.72
-0.66
-0.47
-0.11
0.38
0.89
1.27
1.41
1.27
0.96
0.63
0.42
0.35
0.37
0.35
0.24
0.08
-0.03
-0.01
0.14
0.32
0.42
0.38
0.22
0.06
-0.03
-0.01
0.03
-0.02
-0.25
-0.65
-1.09
-1.40
-1.45
-1.22
-0.83
-0.44
-0.20
-0.14
-0.19
-0.24
-0.24
-0.18
-0.13
-0.13
-0.18
-0.21
-0.14
-0.01
0.12
0.14
-0.01
-0.23
-0.39
-0.33
-0.04
0.40
0.80
1.01
0.99
0.84
0.71
0.68
0.76
0.84
0.79
0.55
0.17
-0.22
-0.52
-0.63
-0.61
-0.52
-0.46
-0.43
-0.40
-0.31
-0.14
0.04
0.13
0.08
-0.09
-0.28
-0.35
-0.27
-0.07
0.14
0.27
0.29
0.26
0.21
0.17
0.13
0.06
-0.04
-0.12
-0.13
-0.08
-0.01
0.03
-0.01
-0.09
-0.17
-0.21
-0.20
-0.16
-0.09
0.03
0.18
0.34
0.41
0.31
0.00
-0.39
-0.71
-0.77
-0.51
0.02
0.65
1.17
1.45
1.43
1.13
0.64
0.06
-0.48
-0.86
-1.02
-0.96
-0.72
-0.42
-0.14
0.08
0.21
0.26
0.21
0.05
-0.21
-0.50
-0.72
-0.79
-0.66
-0.40
-0.09
0.16
0.28
0.26
0.14
-0.02
-0.13
-0.14
-0.05
0.08
0.18
0.15
-0.04
-0.31
-0.56
-0.65
-0.53
-0.21
0.16
0.46
0.60
0.55
0.38
0.18
0.01
-0.07
-0.07
0.00
0.11
0.20
0.24
0.20
0.05
-0.18
-0.40
-0.52
-0.47
-0.20
0.21
0.63
0.93
0.99
0.82
0.50
0.18
-0.00
-0.01
0.13
0.32
0.49
0.59
0.61
0.59
0.55
0.49
0.39
0.20
-0.10
-0.48
-0.87
-1.17
-1.31
-1.26
-1.04
-0.73
-0.42
-0.19
-0.05
-0.00
-0.02
-0.09
-0.19
-0.30
-0.38
-0.39
-0.30
-0.10
0.16
0.42
0.59
0.62
0.49
0.25
0.01
-0.18
-0.26
-0.28
-0.26
-0.25
-0.23
-0.17
-0.06
0.06
0.13
0.10
-0.02
-0.15
-0.19
-0.06
0.21
0.53
0.76
0.81
0.65
0.35
0.01
-0.25
-0.35
-0.29
-0.09
0.15
0.35
0.44
0.42
0.34
0.24
0.19
0.18
0.19
0.18
0.16
0.12
0.10
0.07
0.04
-0.03
-0.12
-0.20
-0.23
-0.16
-0.00
0.18
0.32
0.36
0.29
0.15
-0.01
-0.17
-0.34
-0.50
-0.61
-0.60
-0.44
-0.12
0.28
0.62
0.79
0.74
0.52
0.23
0.02
-0.07
-0.03
0.06
0.11
0.05
-0.12
-0.34
-0.53
-0.64
-0.64
-0.57
-0.48
-0.42
-0.42
-0.45
-0.45
-0.38
-0.23
-0.04
0.09
0.11
0.02
-0.15
-0.28
-0.32
-0.23
-0.06
0.14
0.29
0.37
0.37
0.32
0.24
0.15
0.09
0.11
0.21
0.38
0.57
0.72
0.79
0.76
0.69
0.60
0.52
0.43
0.30
0.10
-0.14
-0.37
-0.52
-0.54
-0.43
-0.29
-0.23
-0.33
-0.59
-0.89
-1.06
-0.94
-0.53
0.02
0.49
0.68
0.54
0.19
-0.17
-0.33
-0.26
-0.04
0.14
0.14
-0.04
-0.29
-0.45
-0.40
-0.17
0.10
0.25
0.19
-0.08
-0.43
-0.72
-0.83
-0.76
-0.54
-0.24
0.08
0.39
0.65
0.80
0.82
0.71
0.51
0.30
0.13
0.01
-0.05
-0.02
0.11
0.35
0.64
0.86
0.89
0.67
0.25
-0.21
-0.54
-0.62
-0.48
-0.26
-0.08
-0.03
-0.07
-0.09
-0.01
0.16
0.36
0.47
0.41
0.18
-0.16
-0.51
-0.78
-0.92
-0.91
-0.75
-0.49
-0.18
0.11
0.34
0.47
0.50
0.46
0.38
0.24
0.04
-0.21
-0.47
-0.65
-0.68
-0.55
-0.29
-0.00
0.21
0.29
0.25
0.13
-0.02
-0.14
-0.22
-0.23
-0.19
-0.08
0.08
0.25
0.39
0.45
0.41
0.27
0.11
-0.01
-0.00
0.15
0.38
0.60
0.66
0.48
0.08
-0.44
-0.91
-1.19
-1.20
-0.94
-0.50
0.00
0.45
0.77
0.91
0.86
0.66
0.35
0.02
-0.22
-0.32
-0.25
-0.07
0.14
0.29
0.34
0.32
0.27
0.21
0.15
0.08
-0.02
-0.14
-0.24
-0.27
-0.22
-0.11
0.03
0.13
0.16
0.10
-0.00
-0.09
-0.09
0.03
0.24
0.48
0.67
0.75
0.75
0.71
0.68
0.65
0.56
0.37
0.08
-0.26
-0.53
-0.70
-0.77
-0.82
-0.90
-0.99
-1.01
-0.86
-0.55
-0.15
0.14
0.17
-0.07
-0.48
-0.85
-1.01
-0.90
-0.55
-0.10
0.26
0.45
0.42
0.24
0.01
-0.16
-0.23
-0.20
-0.10
0.02
0.12
0.21
0.32
0.44
0.53
0.54
0.45
0.27
0.12
0.09
0.23
0.50
0.75
0.84
0.68
0.31
-0.12
-0.45
-0.56
-0.45
-0.24
-0.05
0.02
-0.02
-0.09
-0.09
-0.02
0.06
0.02
-0.17
-0.46
-0.70
-0.73
-0.48
-0.03
0.47
0.83
0.96
0.85
0.58
0.24
-0.07
-0.30
-0.40
-0.37
-0.21
0.02
0.25
0.37
0.33
0.11
-0.24
-0.61
-0.87
-0.90
-0.67
-0.25
0.22
0.60
0.77
0.73
0.53
0.24
-0.05
-0.30
-0.46
-0.49
-0.36
-0.07
0.27
0.57
0.70
0.63
0.40
0.10
-0.17
-0.36
-0.49
-0.58
-0.67
-0.74
-0.76
-0.68
-0.49
-0.22
0.07
0.34
0.54
0.66
0.70
0.66
0.58
0.48
0.38
0.29
0.23
0.17
0.09
-0.02
-0.16
-0.31
-0.41
-0.45
-0.40
-0.29
-0.17
-0.09
-0.08
-0.16
-0.29
-0.41
-0.46
-0.42
-0.28
-0.09
0.10
0.26
0.41
0.55
0.65
0.69
0.57
0.30
-0.07
-0.42
-0.59
-0.51
-0.20
0.24
0.69
1.03
1.21
1.22
1.07
0.79
0.44
0.07
-0.25
-0.53
-0.77
-1.01
-1.22
-1.33
-1.25
-0.92
-0.41
0.14
0.55
0.68
0.54
0.23
-0.10
-0.35
-0.48
-0.52
-0.52
-0.51
-0.49
-0.43
-0.34
-0.21
-0.05
0.15
0.39
0.69
0.98
1.18
1.22
1.09
0.82
0.52
0.29
0.15
0.07
-0.01
-0.12
-0.25
-0.36
-0.39
-0.35
-0.28
-0.22
-0.18
-0.14
-0.10
-0.08
-0.11
-0.20
-0.33
-0.40
-0.36
-0.19
0.01
0.13
0.08
-0.11
-0.35
-0.48
-0.45
-0.28
-0.10
0.01
-0.03
-0.17
-0.33
-0.46
-0.51
-0.47
-0.36
-0.18
0.05
0.30
0.53
0.68
0.71
0.62
0.47
0.33
0.30
0.40
0.60
0.81
0.90
0.82
0.58
0.29
0.11
0.17
0.47
0.88
1.23
1.35
1.17
0.75
0.23
-0.28
-0.71
-1.04
-1.31
-1.50
-1.58
-1.50
-1.27
-0.96
-0.67
-0.49
-0.46
-0.52
-0.57
-0.54
-0.37
-0.11
0.19
0.43
0.58
0.58
0.45
0.19
-0.14
-0.47
-0.69
-0.72
-0.53
-0.18
0.22
0.53
0.66
0.60
0.43
0.23
0.09
0.03
0.04
0.06
0.09
0.12
0.17
0.22
0.25
0.23
0.14
0.02
-0.07
-0.09
-0.04
0.06
0.14
0.21
0.30
0.45
0.66
0.86
0.94
0.83
0.54
0.18
-0.11
-0.25
-0.29
-0.32
-0.43
-0.60
-0.74
-0.74
-0.55
-0.26
0.01
0.13
0.05
-0.15
-0.38
-0.54
-0.60
-0.58
-0.50
-0.38
-0.25
-0.12
-0.03
0.00
0.00
0.03
0.12
0.29
0.50
0.64
0.65
0.52
0.30
0.09
-0.00
0.03
0.13
0.20
0.16
0.01
-0.18
-0.32
-0.35
-0.26
-0.10
0.05
0.16
0.22
0.25
0.27
0.31
0.35
0.37
0.36
0.29
0.15
-0.06
-0.31
-0.56
-0.75
-0.82
-0.74
-0.56
-0.35
-0.19
-0.13
-0.17
-0.25
-0.29
-0.23
-0.11
0.05
0.14
0.14
0.03
-0.14
-0.33
-0.48
-0.55
-0.52
-0.36
-0.08
0.24
0.53
0.71
0.74
0.68
0.59
0.51
0.46
0.41
0.33
0.22
0.11
0.00
-0.10
-0.21
-0.34
-0.47
-0.55
-0.52
-0.39
-0.23
-0.07
0.05
0.18
0.36
0.59
0.83
0.97
0.93
0.72
0.44
0.20
0.10
0.15
0.26
0.31
0.24
0.07
-0.13
-0.26
-0.27
-0.15
0.06
0.31
0.51
0.61
0.54
0.30
-0.05
-0.37
-0.53
-0.47
-0.22
0.07
0.24
0.22
0.06
-0.12
-0.18
-0.10
0.05
0.15
0.10
-0.11
-0.43
-0.75
-0.98
-1.06
-1.00
-0.84
-0.64
-0.41
-0.16
0.11
0.39
0.61
0.71
0.59
0.23
-0.31
-0.88
-1.33
-1.52
-1.40
-1.06
-0.61
-0.18
0.17
0.42
0.57
0.64
0.63
0.52
0.31
0.02
-0.30
-0.55
-0.65
-0.57
-0.32
0.03
0.37
0.61
0.72
0.73
0.70
0.69
0.73
0.76
0.73
0.58
0.33
0.06
-0.11
-0.11
0.05
0.29
0.50
0.60
0.56
0.45
0.37
0.38
0.48
0.59
0.61
0.46
0.13
-0.29
-0.67
-0.87
-0.85
-0.62
-0.30
0.00
0.20
0.28
0.27
0.24
0.21
0.18
0.14
0.07
0.03
0.05
0.15
0.29
0.39
0.37
0.21
-0.03
-0.23
-0.29
-0.21
-0.06
0.08
0.12
0.03
-0.16
-0.41
-0.68
-0.92
-1.09
-1.15
-1.10
-0.94
-0.73
-0.53
-0.41
-0.37
-0.38
-0.36
-0.26
-0.04
0.27
0.60
0.87
1.00
0.99
0.86
0.68
0.51
0.35
0.20
0.06
-0.06
-0.13
-0.14
-0.11
-0.07
-0.10
-0.21
-0.37
-0.52
-0.60
-0.57
-0.41
-0.15
0.16
0.46
0.69
0.76
0.68
0.48
0.22
-0.03
-0.25
-0.46
-0.66
-0.86
-1.00
-1.03
-0.92
-0.70
-0.43
-0.22
-0.12
-0.15
-0.24
-0.29
-0.22
-0.03
0.23
0.47
0.62
0.67
0.68
0.69
0.73
0.73
0.58
0.21
-0.36
-0.97
-1.41
-1.51
-1.25
-0.71
-0.08
0.45
0.78
0.88
0.77
0.50
0.16
-0.17
-0.39
-0.41
-0.20
0.18
0.58
0.88
0.99
0.91
0.71
0.48
0.28
0.13
0.05
0.03
0.04
0.04
-0.02
-0.14
-0.31
-0.47
-0.57
-0.54
-0.42
-0.24
-0.05
0.14
0.33
0.54
0.75
0.92
0.98
0.90
0.68
0.40
0.13
-0.05
-0.11
-0.09
-0.11
-0.20
-0.39
-0.57
-0.63
-0.47
-0.11
0.33
0.65
0.71
0.48
0.04
-0.42
-0.72
-0.74
-0.50
-0.11
0.29
0.56
0.65
0.58
0.43
0.26
0.10
-0.03
-0.14
-0.23
-0.29
-0.29
-0.25
-0.19
-0.13
-0.11
-0.10
-0.07
0.03
0.17
0.31
0.38
0.34
0.17
-0.06
-0.27
-0.43
-0.53
-0.60
-0.68
-0.75
-0.79
-0.78
-0.70
-0.60
-0.54
-0.53
-0.55
-0.55
-0.49
-0.38
-0.24
-0.13
-0.08
-0.09
-0.10
-0.07
0.02
0.18
0.37
0.53
0.63
0.63
0.55
0.42
0.31
0.24
0.23
0.24
0.24
0.22
0.23
0.31
0.50
0.76
1.00
1.09
0.97
0.66
0.24
-0.15
-0.45
-0.61
-0.67
-0.65
-0.58
-0.44
-0.23
0.04
0.31
0.53
0.68
0.76
0.78
0.78
0.72
0.58
0.34
0.01
-0.36
-0.65
-0.76
-0.63
-0.30
0.12
0.47
0.60
0.46
0.10
-0.33
-0.68
-0.83
-0.77
-0.56
-0.36
-0.24
-0.25
-0.32
-0.41
-0.44
-0.44
-0.46
-0.52
-0.60
-0.61
-0.47
-0.18
0.18
0.44
0.47
0.26
-0.08
-0.41
-0.58
-0.58
-0.45
-0.30
-0.17
-0.06
0.07
0.23
0.40
0.49
0.46
0.31
0.11
-0.06
-0.13
-0.10
-0.01
0.10
0.22
0.36
0.54
0.75
0.96
1.09
1.07
0.83
0.39
-0.17
-0.72
-1.11
-1.22
-1.03
-0.61
-0.10
0.35
0.63
0.70
0.56
0.30
-0.01
-0.27
-0.41
-0.40
-0.26
-0.04
0.18
0.36
0.48
0.54
0.57
0.55
0.47
0.31
0.08
-0.20
-0.47
-0.69
-0.84
-0.89
-0.81
-0.59
-0.27
0.09
0.36
0.43
0.29
0.02
-0.23
-0.34
-0.31
-0.19
-0.09
-0.05
-0.03
0.08
0.31
0.64
0.94
1.08
1.01
0.79
0.56
0.46
0.53
0.71
0.90
1.00
0.95
0.77
0.52
0.23
-0.06
-0.28
-0.40
-0.35
-0.14
0.17
0.46
0.60
0.49
0.14
-0.40
-1.01
-1.56
-1.96
-2.16
-2.14
-1.91
-1.55
-1.16
-0.81
-0.55
-0.38
-0.28
-0.22
-0.17
-0.14
-0.10
-0.01
0.16
0.42
0.68
0.84
0.78
0.47
-0.01
-0.47
-0.69
-0.55
-0.07
0.61
1.26
1.66
1.71
1.45
1.00
0.53
0.18
0.03
0.03
0.11
0.17
0.15
0.08
0.02
0.04
0.14
0.27
0.31
0.20
-0.02
-0.27
-0.41
-0.39
-0.25
-0.10
-0.02
-0.03
-0.06
-0.01
0.13
0.32
0.46
0.45
0.30
0.09
-0.09
-0.19
-0.25
-0.30
-0.37
-0.46
-0.50
-0.45
-0.35
-0.29
-0.36
-0.59
-0.93
-1.23
-1.34
-1.22
-0.94
-0.63
-0.43
-0.35
-0.33
-0.24
-0.01
0.31
0.62
0.80
0.79
0.64
0.48
0.39
0.42
0.54
0.68
0.78
0.82
0.79
0.69
0.50
0.22
-0.16
-0.58
-0.94
-1.15
-1.13
-0.91
-0.56
-0.22
0.02
0.12
0.10
0.04
-0.03
-0.05
-0.03
0.04
0.16
0.31
0.45
0.50
0.41
0.16
-0.17
-0.44
-0.53
-0.38
-0.05
0.37
0.76
1.04
1.19
1.23
1.16
0.97
0.65
0.24
-0.17
-0.45
-0.48
-0.26
0.11
0.43
0.52
0.30
-0.16
-0.68
-1.04
-1.11
-0.93
-0.63
-0.37
-0.27
-0.29
-0.34
-0.34
-0.26
-0.14
-0.05
-0.04
-0.08
-0.15
-0.18
-0.17
-0.15
-0.15
-0.20
-0.27
-0.36
-0.42
-0.45
-0.41
-0.29
-0.09
0.17
0.45
0.70
0.88
0.95
0.95
0.89
0.79
0.67
0.54
0.44
0.41
0.49
0.66
0.84
0.90
0.75
0.38
-0.09
-0.52
-0.75
-0.76
-0.60
-0.41
-0.29
-0.30
-0.36
-0.43
-0.47
-0.48
-0.47
-0.44
-0.37
-0.21
0.05
0.36
0.60
0.67
0.53
0.23
-0.14
-0.43
-0.57
-0.55
-0.40
-0.19
-0.03
0.05
0.03
-0.07
-0.21
-0.34
-0.43
-0.46
-0.43
-0.36
-0.27
-0.17
-0.06
0.07
0.23
0.41
0.59
0.71
0.72
0.59
0.36
0.11
-0.09
-0.18
-0.14
0.00
0.19
0.37
0.54
0.65
0.70
0.66
0.49
0.18
-0.23
-0.65
-1.00
-1.17
-1.10
-0.83
-0.44
-0.04
0.29
0.47
0.51
0.43
0.26
0.04
-0.19
-0.38
-0.47
-0.45
-0.30
-0.06
0.20
0.41
0.51
0.48
0.35
0.15
-0.02
-0.10
-0.06
0.09
0.25
0.33
0.25
0.04
-0.24
-0.48
-0.63
-0.69
-0.71
-0.72
-0.72
-0.66
-0.51
-0.26
0.01
0.21
0.28
0.22
0.11
0.02
0.01
0.03
0.05
0.01
-0.07
-0.15
-0.15
-0.06
0.12
0.30
0.43
0.42
0.28
0.05
-0.14
-0.20
-0.09
0.15
0.41
0.57
0.59
0.51
0.42
0.41
0.48
0.56
0.58
0.48
0.30
0.11
-0.04
-0.10
-0.08
0.00
0.14
0.30
0.46
0.54
0.53
0.40
0.20
0.01
-0.11
-0.13
-0.06
0.06
0.19
0.25
0.21
0.03
-0.29
-0.70
-1.08
-1.32
-1.30
-1.03
-0.54
0.02
0.53
0.87
0.97
0.84
0.54
0.16
-0.21
-0.52
-0.77
-0.96
-1.10
-1.17
-1.12
-0.90
-0.55
-0.12
0.26
0.52
0.65
0.69
0.70
0.70
0.64
0.49
0.23
-0.09
-0.34
-0.42
-0.28
0.00
0.31
0.49
0.50
0.37
0.19
0.08
0.07
0.14
0.23
0.28
0.23
0.10
-0.11
-0.36
-0.62
-0.84
-0.99
-1.02
-0.89
-0.64
-0.32
-0.06
0.06
0.00
-0.17
-0.34
-0.40
-0.30
-0.07
0.22
0.50
0.74
0.90
0.97
0.91
0.72
0.39
0.01
-0.34
-0.56
-0.63
-0.58
-0.48
-0.39
-0.32
-0.24
-0.15
-0.05
0.01
-0.02
-0.14
-0.31
-0.47
-0.59
-0.65
-0.66
-0.60
-0.45
-0.21
0.10
0.39
0.59
0.61
0.46
0.22
-0.01
-0.12
-0.09
0.09
0.37
0.70
0.99
1.17
1.16
0.90
0.46
-0.02
-0.35
-0.38
-0.10
0.37
0.83
1.12
1.19
1.09
0.91
0.71
0.48
0.19
-0.15
-0.51
-0.77
-0.87
-0.80
-0.63
-0.46
-0.36
-0.32
-0.29
-0.18
0.07
0.45
0.93
1.40
1.73
1.83
1.67
1.29
0.82
0.44
0.27
0.37
0.71
1.21
1.70
2.02
2.03
1.62
0.83
-0.23
-1.30
-2.13
-2.56
-2.56
-2.26
-1.86
-1.54
-1.38
-1.35
-1.36
-1.34
-1.26
-1.15
-1.07
-1.05
-1.10
-1.15
-1.12
-0.92
-0.51
0.06
0.68
1.23
1.59
1.70
1.56
1.19
0.65
0.03
-0.56
-1.02
-1.29
-1.39
-1.39
-1.34
-1.28
-1.14
-0.90
-0.56
-0.23
-0.06
-0.19
-0.61
-1.21
-1.78
-2.14
-2.23
-2.11
-1.95
-1.89
-1.98
-2.17
-2.32
-2.28
-1.99
-1.48
-0.86
-0.24
0.28
0.67
0.94
1.14
1.36
1.60
1.86
2.07
2.18
2.14
2.00
1.86
1.84
2.00
2.30
2.57
2.66
2.44
1.92
1.24
0.62
0.24
0.18
0.38
0.72
1.04
1.23
1.27
1.16
0.95
0.68
0.36
-0.00
-0.37
-0.68
-0.86
-0.85
-0.68
-0.44
-0.28
-0.30
-0.51
-0.81
-1.06
-1.11
-0.90
-0.51
-0.11
0.16
0.24
0.19
0.13
0.17
0.34
0.60
0.85
0.99
1.02
0.95
0.84
0.70
0.49
0.18
-0.25
-0.75
-1.21
-1.53
-1.61
-1.43
-1.04
-0.55
-0.08
0.28
0.54
0.73
0.95
1.23
1.50
1.65
1.53
1.06
0.33
-0.48
-1.12
-1.44
-1.43
-1.21
-0.92
-0.66
-0.42
-0.19
0.06
0.28
0.40
0.40
0.32
0.27
0.34
0.55
0.80
0.97
0.95
0.73
0.39
0.06
-0.19
-0.33
-0.36
-0.30
-0.17
0.04
0.28
0.51
0.63
0.61
0.44
0.19
-0.05
-0.22
-0.33
-0.39
-0.44
-0.50
-0.53
-0.54
-0.51
-0.47
-0.43
-0.43
-0.46
-0.51
-0.52
-0.47
-0.31
-0.05
0.26
0.54
0.74
0.78
0.69
0.51
0.28
0.04
-0.19
-0.38
-0.51
-0.53
-0.44
-0.26
-0.09
-0.01
-0.07
-0.21
-0.32
-0.29
-0.11
0.18
0.46
0.61
0.60
0.47
0.31
0.18
0.08
-0.02
-0.18
-0.39
-0.62
-0.81
-0.91
-0.92
-0.85
-0.73
-0.58
-0.41
-0.22
-0.01
0.22
0.49
0.81
1.17
1.52
1.77
1.78
1.49
0.90
0.20
-0.40
-0.68
-0.59
-0.23
0.15
0.35
0.23
-0.15
-0.65
-1.06
-1.25
-1.18
-0.92
-0.58
-0.28
-0.09
-0.04
-0.08
-0.16
-0.22
-0.22
-0.13
0.06
0.34
0.66
0.95
1.09
0.99
0.65
0.16
-0.31
-0.56
-0.51
-0.18
0.32
0.83
1.23
1.46
1.53
1.47
1.33
1.14
0.96
0.86
0.86
0.98
1.14
1.28
1.33
1.28
1.16
1.04
0.94
0.87
0.78
0.61
0.34
-0.02
-0.39
-0.70
-0.89
-0.94
-0.88
-0.76
-0.66
-0.68
-0.86
-1.17
-1.53
-1.81
-1.89
-1.75
-1.44
-1.09
-0.83
-0.75
-0.84
-1.00
-1.13
-1.16
-1.06
-0.89
-0.72
-0.57
-0.48
-0.39
-0.29
-0.17
-0.04
0.08
0.15
0.20
0.23
0.24
0.23
0.15
0.01
-0.15
-0.25
-0.22
-0.02
0.27
0.53
0.67
0.63
0.47
0.29
0.15
0.06
-0.03
-0.22
-0.53
-0.91
-1.17
-1.16
-0.80
-0.17
0.52
0.99
1.07
0.71
0.05
-0.67
-1.18
-1.35
-1.16
-0.74
-0.26
0.15
0.40
0.51
0.51
0.46
0.35
0.17
-0.09
-0.36
-0.56
-0.54
-0.26
0.26
0.86
1.35
1.56
1.43
1.02
0.50
0.03
-0.28
-0.41
-0.41
-0.37
-0.35
-0.36
-0.38
-0.39
-0.42
-0.48
-0.59
-0.73
-0.82
-0.78
-0.57
-0.24
0.11
0.36
0.48
0.48
0.44
0.41
0.39
0.34
0.23
0.08
-0.04
-0.05
0.09
0.35
0.61
0.80
0.84
0.76
0.62
0.51
0.46
0.46
0.45
0.37
0.18
-0.08
-0.33
-0.48
-0.50
-0.44
-0.35
-0.30
-0.29
-0.27
-0.19
-0.03
0.14
0.24
0.18
-0.05
-0.38
-0.68
-0.87
-0.88
-0.76
-0.56
-0.37
-0.25
-0.22
-0.26
-0.34
-0.40
-0.40
-0.34
-0.24
-0.16
-0.12
-0.15
-0.18
-0.18
-0.12
-0.02
0.11
0.25
0.39
0.55
0.72
0.87
0.94
0.86
0.63
0.28
-0.09
-0.38
-0.51
-0.46
-0.29
-0.09
0.05
0.09
0.02
-0.10
-0.24
-0.37
-0.49
-0.62
-0.74
-0.82
-0.78
-0.59
-0.23
0.22
0.69
1.07
1.30
1.34
1.21
0.97
0.68
0.42
0.25
0.18
0.18
0.17
0.11
-0.01
-0.14
-0.23
-0.23
-0.15
-0.03
0.06
0.09
0.03
-0.11
-0.30
-0.50
-0.65
-0.68
-0.54
-0.24
0.14
0.49
0.71
0.75
0.63
0.40
0.14
-0.09
-0.26
-0.35
-0.35
-0.26
-0.10
0.08
0.25
0.38
0.45
0.45
0.38
0.21
-0.04
-0.31
-0.53
-0.60
-0.49
-0.22
0.10
0.36
0.47
0.41
0.22
-0.06
-0.36
-0.62
-0.77
-0.79
-0.68
-0.48
-0.28
-0.14
-0.13
-0.20
-0.31
-0.37
-0.34
-0.23
-0.08
0.04
0.10
0.13
0.15
0.22
0.33
0.43
0.47
0.42
0.30
0.17
0.11
0.12
0.20
0.27
0.28
0.22
0.11
-0.02
-0.12
-0.21
-0.28
-0.32
-0.30
-0.18
0.05
0.33
0.56
0.68
0.63
0.44
0.16
-0.12
-0.34
-0.49
-0.58
-0.63
-0.65
-0.62
-0.49
-0.21
0.19
0.65
1.03
1.23
1.19
0.94
0.59
0.24
-0.04
-0.24
-0.36
-0.41
-0.37
-0.20
0.09
0.44
0.72
0.81
0.65
0.27
-0.19
-0.58
-0.74
-0.63
-0.29
0.14
0.49
0.63
0.47
0.08
-0.40
-0.79
-0.94
-0.82
-0.51
-0.17
0.08
0.18
0.17
0.16
0.20
0.25
0.24
0.07
-0.25
-0.66
-1.02
-1.20
-1.16
-0.90
-0.46
0.07
0.57
0.95
1.10
0.99
0.69
0.30
-0.06
-0.31
-0.43
-0.46
-0.40
-0.26
-0.01
0.33
0.68
0.90
0.88
0.61
0.18
-0.23
-0.46
-0.48
-0.38
-0.31
-0.38
-0.61
-0.86
-1.00
-0.91
-0.64
-0.30
-0.02
0.13
0.14
0.08
-0.01
-0.09
-0.16
-0.20
-0.16
-0.05
0.13
0.33
0.51
0.66
0.79
0.89
0.91
0.78
0.47
0.03
-0.39
-0.63
-0.61
-0.35
0.01
0.32
0.46
0.43
0.29
0.14
0.08
0.13
0.28
0.46
0.59
0.60
0.48
0.29
0.09
-0.01
-0.00
0.09
0.17
0.13
-0.07
-0.37
-0.65
-0.77
-0.65
-0.31
0.10
0.41
0.47
0.25
-0.16
-0.56
-0.77
-0.69
-0.35
0.11
0.53
0.76
0.75
0.54
0.23
-0.07
-0.29
-0.40
-0.44
-0.43
-0.38
-0.30
-0.16
0.03
0.28
0.53
0.76
0.93
1.00
0.99
0.90
0.71
0.45
0.10
-0.27
-0.61
-0.82
-0.86
-0.77
-0.63
-0.53
-0.50
-0.50
-0.49
-0.42
-0.34
-0.29
-0.32
-0.40
-0.43
-0.33
-0.07
0.26
0.52
0.61
0.50
0.26
0.01
-0.20
-0.32
-0.38
-0.38
-0.31
-0.17
0.03
0.26
0.42
0.47
0.39
0.21
0.00
-0.20
-0.38
-0.54
-0.65
-0.68
-0.59
-0.37
-0.07
0.27
0.55
0.74
0.81
0.77
0.60
0.31
-0.07
-0.46
-0.73
-0.75
-0.50
-0.07
0.36
0.62
0.60
0.38
0.13
0.02
0.14
0.43
0.75
0.94
0.90
0.65
0.29
-0.06
-0.29
-0.37
-0.34
-0.27
-0.22
-0.20
-0.17
-0.08
0.05
0.18
0.21
0.09
-0.17
-0.47
-0.66
-0.67
-0.49
-0.21
0.05
0.25
0.43
0.63
0.90
1.22
1.45
1.51
1.32
0.92
0.41
-0.07
-0.43
-0.63
-0.69
-0.64
-0.58
-0.57
-0.65
-0.81
-1.02
-1.18
-1.21
-1.07
-0.81
-0.51
-0.26
-0.14
-0.15
-0.23
-0.32
-0.36
-0.33
-0.26
-0.18
-0.13
-0.14
-0.20
-0.28
-0.32
-0.29
-0.18
-0.01
0.21
0.42
0.61
0.75
0.80
0.73
0.50
0.14
-0.29
-0.65
-0.85
-0.79
-0.49
-0.04
0.44
0.82
1.02
1.01
0.84
0.61
0.41
0.28
0.25
0.29
0.35
0.40
0.42
0.43
0.43
0.42
0.38
0.25
0.02
-0.30
-0.64
-0.90
-0.96
-0.76
-0.36
0.09
0.41
0.48
0.30
-0.01
-0.27
-0.35
-0.25
-0.11
-0.09
-0.26
-0.58
-0.84
-0.89
-0.65
-0.22
0.23
0.54
0.63
0.55
0.41
0.32
0.33
0.43
0.56
0.66
0.70
0.67
0.56
0.40
0.23
0.08
-0.01
-0.01
0.06
0.14
0.14
0.01
-0.27
-0.63
-0.94
-1.11
-1.06
-0.83
-0.52
-0.24
-0.05
0.03
0.04
0.02
-0.02
-0.10
-0.24
-0.41
-0.54
-0.57
-0.47
-0.26
-0.03
0.12
0.16
0.10
-0.01
-0.09
-0.09
0.00
0.15
0.29
0.36
0.32
0.18
-0.01
-0.16
-0.17
-0.01
0.31
0.70
1.00
1.13
1.01
0.67
0.21
-0.22
-0.50
-0.56
-0.40
-0.11
0.22
0.46
0.55
0.48
0.28
0.04
-0.15
-0.23
-0.17
-0.01
0.18
0.29
0.25
0.06
-0.25
-0.57
-0.82
-0.93
-0.87
-0.67
-0.37
-0.03
0.30
0.59
0.81
0.93
0.94
0.81
0.55
0.18
-0.20
-0.52
-0.69
-0.69
-0.54
-0.31
-0.06
0.12
0.18
0.09
-0.14
-0.46
-0.77
-0.97
-1.01
-0.91
-0.73
-0.56
-0.46
-0.43
-0.39
-0.29
-0.07
0.24
0.60
0.92
1.13
1.19
1.09
0.84
0.49
0.12
-0.19
-0.36
-0.39
-0.30
-0.16
-0.02
0.11
0.24
0.37
0.49
0.55
0.52
0.38
0.15
-0.13
-0.37
-0.49
-0.43
-0.15
0.29
0.76
1.09
1.11
0.81
0.30
-0.20
-0.50
-0.50
-0.27
0.03
0.24
0.26
0.09
-0.19
-0.48
-0.67
-0.71
-0.57
-0.30
0.02
0.29
0.43
0.38
0.22
0.02
-0.10
-0.12
-0.06
-0.02
-0.07
-0.26
-0.55
-0.82
-0.98
-0.96
-0.76
-0.49
-0.24
-0.09
-0.06
-0.10
-0.11
-0.04
0.11
0.29
0.42
0.43
0.35
0.23
0.12
0.06
0.03
-0.03
-0.10
-0.18
-0.21
-0.17
-0.07
0.05
0.13
0.16
0.17
0.18
0.19
0.20
0.16
0.10
0.03
0.00
0.03
0.08
0.11
0.09
-0.01
-0.17
-0.33
-0.44
-0.46
-0.36
-0.13
0.18
0.47
0.65
0.64
0.47
0.23
0.03
-0.04
0.00
0.08
0.10
0.02
-0.12
-0.20
-0.14
0.04
0.26
0.40
0.36
0.18
-0.07
-0.28
-0.38
-0.36
-0.26
-0.11
0.07
0.26
0.45
0.58
0.58
0.39
0.04
-0.38
-0.71
-0.86
-0.78
-0.54
-0.24
0.01
0.16
0.22
0.22
0.16
0.06
-0.11
-0.30
-0.45
-0.50
-0.41
-0.21
0.01
0.14
0.13
-0.05
-0.36
-0.73
-1.05
-1.25
-1.26
-1.09
-0.76
-0.36
0.03
0.35
0.56
0.67
0.70
0.67
0.62
0.57
0.54
0.55
0.59
0.59
0.52
0.37
0.20
0.10
0.17
0.44
0.85
1.27
1.57
1.66
1.52
1.19
0.76
0.29
-0.14
-0.48
-0.67
-0.72
-0.62
-0.41
-0.17
0.05
0.18
0.17
0.04
-0.20
-0.45
-0.62
-0.67
-0.58
-0.43
-0.31
-0.33
-0.47
-0.65
-0.75
-0.66
-0.37
0.05
0.44
0.67
0.68
0.49
0.20
-0.08
-0.29
-0.37
-0.36
-0.28
-0.17
-0.08
-0.01
0.05
0.11
0.16
0.17
0.11
-0.06
-0.29
-0.50
-0.60
-0.56
-0.41
-0.24
-0.11
-0.01
0.08
0.23
0.45
0.68
0.83
0.85
0.73
0.53
0.33
0.19
0.12
0.09
0.07
0.03
-0.05
-0.12
-0.14
-0.10
0.01
0.13
0.19
0.17
0.09
-0.01
-0.09
-0.15
-0.22
-0.31
-0.42
-0.51
-0.51
-0.43
-0.30
-0.19
-0.15
-0.14
-0.10
0.00
0.16
0.31
0.38
0.36
0.31
0.31
0.41
0.62
0.84
0.97
0.93
0.71
0.34
-0.08
-0.45
-0.70
-0.79
-0.70
-0.52
-0.32
-0.19
-0.16
-0.18
-0.22
-0.24
-0.23
-0.25
-0.30
-0.36
-0.38
-0.31
-0.15
0.05
0.18
0.19
0.06
-0.14
-0.35
-0.50
-0.54
-0.45
-0.23
0.09
0.44
0.71
0.80
0.67
0.36
-0.02
-0.34
-0.51
-0.51
-0.41
-0.31
-0.26
-0.25
-0.27
-0.27
-0.27
-0.29
-0.36
-0.44
-0.49
-0.42
-0.23
0.04
0.28
0.40
0.39
0.30
0.26
0.33
0.47
0.57
0.54
0.36
0.09
-0.13
-0.21
-0.15
-0.03
0.07
0.08
0.03
-0.01
0.03
0.15
0.31
0.44
0.49
0.48
0.44
0.45
0.51
0.61
0.69
0.70
0.60
0.40
0.11
-0.23
-0.57
-0.86
-1.02
-1.01
-0.85
-0.60
-0.32
-0.08
0.11
0.26
0.38
0.44
0.40
0.24
-0.02
-0.27
-0.42
-0.39
-0.18
0.12
0.41
0.61
0.68
0.64
0.53
0.43
0.35
0.30
0.24
0.11
-0.10
-0.34
-0.50
-0.52
-0.36
-0.13
0.04
0.04
-0.12
-0.32
-0.38
-0.23
0.10
0.43
0.57
0.45
0.12
-0.26
-0.51
-0.57
-0.47
-0.31
-0.15
-0.05
0.03
0.06
0.05
-0.06
-0.26
-0.49
-0.65
-0.65
-0.47
-0.17
0.10
0.20
0.09
-0.16
-0.38
-0.44
-0.29
0.00
0.33
0.59
0.75
0.82
0.84
0.81
0.69
0.46
0.14
-0.18
-0.40
-0.44
-0.33
-0.22
-0.21
-0.37
-0.64
-0.90
-1.02
-0.96
-0.74
-0.43
-0.12
0.16
0.37
0.52
0.57
0.50
0.29
-0.03
-0.33
-0.52
-0.52
-0.32
0.00
0.36
0.68
0.92
1.08
1.15
1.12
0.97
0.70
0.39
0.13
0.04
0.16
0.40
0.63
0.70
0.55
0.26
-0.07
-0.31
-0.42
-0.46
-0.50
-0.60
-0.72
-0.81
-0.79
-0.67
-0.46
-0.21
0.05
0.28
0.48
0.63
0.70
0.68
0.56
0.37
0.16
-0.05
-0.23
-0.35
-0.37
-0.28
-0.09
0.12
0.26
0.23
0.01
-0.32
-0.63
-0.77
-0.69
-0.43
-0.11
0.17
0.36
0.48
0.59
0.70
0.75
0.64
0.32
-0.14
-0.60
-0.91
-0.99
-0.90
-0.76
-0.69
-0.71
-0.74
-0.71
-0.57
-0.36
-0.16
-0.03
0.04
0.07
0.15
0.27
0.41
0.51
0.53
0.44
0.26
0.03
-0.21
-0.43
-0.56
-0.57
-0.46
-0.23
0.02
0.22
0.33
0.36
0.41
0.56
0.83
1.12
1.30
1.23
0.90
0.44
0.03
-0.19
-0.20
-0.09
-0.01
-0.01
-0.07
-0.10
-0.04
0.10
0.22
0.23
0.09
-0.14
-0.35
-0.46
-0.45
-0.38
-0.34
-0.39
-0.54
-0.71
-0.81
-0.80
-0.70
-0.56
-0.43
-0.31
-0.17
0.01
0.22
0.41
0.54
0.60
0.64
0.66
0.64
0.50
0.19
-0.28
-0.76
-1.08
-1.12
-0.88
-0.52
-0.18
0.01
0.07
0.07
0.07
0.08
0.07
0.00
-0.10
-0.17
-0.16
-0.04
0.13
0.28
0.35
0.32
0.22
0.10
0.04
0.06
0.16
0.28
0.36
0.33
0.21
0.07
0.00
0.09
0.31
0.59
0.76
0.75
0.53
0.21
-0.09
-0.23
-0.21
-0.09
0.01
0.01
-0.09
-0.18
-0.16
0.05
0.39
0.73
0.88
0.76
0.40
-0.03
-0.33
-0.38
-0.19
0.08
0.28
0.27
0.09
-0.13
-0.24
-0.14
0.11
0.37
0.47
0.31
-0.07
-0.57
-1.02
-1.32
-1.43
-1.36
-1.15
-0.83
-0.45
-0.07
0.22
0.35
0.34
0.24
0.15
0.15
0.25
0.39
0.49
0.48
0.38
0.25
0.16
0.17
0.25
0.34
0.37
0.31
0.17
0.03
-0.06
-0.04
0.05
0.16
0.24
0.30
0.36
0.44
0.53
0.56
0.47
0.22
-0.16
-0.55
-0.85
-0.99
-0.98
-0.94
-0.93
-0.98
-1.03
-0.97
-0.73
-0.33
0.10
0.42
0.51
0.38
0.13
-0.11
-0.24
-0.29
-0.32
-0.39
-0.51
-0.59
-0.56
-0.38
-0.11
0.13
0.26
0.26
0.20
0.17
0.21
0.32
0.44
0.53
0.57
0.60
0.65
0.72
0.79
0.81
0.72
0.55
0.32
0.09
-0.12
-0.29
-0.37
-0.36
-0.22
0.04
0.40
0.76
1.01
1.09
0.98
0.74
0.46
0.20
0.01
-0.10
-0.15
-0.14
-0.07
0.05
0.20
0.33
0.40
0.38
0.28
0.14
-0.02
-0.16
-0.29
-0.44
-0.63
-0.86
-1.14
-1.41
-1.61
-1.64
-1.48
-1.14
-0.68
-0.22
0.16
0.38
0.44
0.40
0.31
0.22
0.14
0.09
0.05
0.04
0.06
0.13
0.23
0.33
0.36
0.27
0.08
-0.15
-0.33
-0.34
-0.18
0.11
0.39
0.52
0.42
0.11
-0.31
-0.68
-0.83
-0.67
-0.23
0.33
0.83
1.11
1.12
0.92
0.66
0.43
0.27
0.15
0.01
-0.15
-0.30
-0.36
-0.33
-0.27
-0.28
-0.38
-0.53
-0.59
-0.46
-0.13
0.29
0.63
0.74
0.59
0.25
-0.14
-0.46
-0.63
-0.69
-0.67
-0.62
-0.54
-0.42
-0.26
-0.10
0.02
0.03
-0.06
-0.22
-0.36
-0.39
-0.26
0.01
0.34
0.66
0.86
0.90
0.78
0.56
0.32
0.15
0.07
0.05
-0.00
-0.14
-0.38
-0.65
-0.84
-0.89
-0.76
-0.53
-0.26
-0.02
0.18
0.35
0.52
0.69
0.84
0.92
0.89
0.74
0.50
0.22
-0.00
-0.08
0.04
0.36
0.80
1.22
1.46
1.46
1.20
0.77
0.27
-0.19
-0.54
-0.78
-0.92
-0.99
-0.99
-0.91
-0.74
-0.49
-0.22
0.01
0.12
0.05
-0.17
-0.48
-0.78
-0.95
-0.94
-0.78
-0.57
-0.39
-0.25
-0.13
0.04
0.27
0.51
0.64
0.57
0.34
0.06
-0.11
-0.08
0.12
0.37
0.50
0.43
0.19
-0.11
-0.35
-0.44
-0.38
-0.24
-0.10
0.02
0.09
0.16
0.25
0.35
0.43
0.43
0.32
0.13
-0.06
-0.16
-0.10
0.09
0.33
0.50
0.50
0.33
0.06
-0.22
-0.42
-0.51
-0.49
-0.41
-0.28
-0.13
0.04
0.19
0.29
0.29
0.16
-0.07
-0.35
-0.56
-0.65
-0.59
-0.45
-0.29
-0.19
-0.16
-0.19
-0.25
-0.33
-0.45
-0.60
-0.73
-0.80
-0.74
-0.56
-0.31
-0.09
0.04
0.06
0.03
0.00
0.03
0.16
0.38
0.68
1.01
1.30
1.46
1.45
1.26
0.96
0.66
0.43
0.31
0.24
0.15
-0.03
-0.30
-0.59
-0.79
-0.82
-0.64
-0.31
0.06
0.39
0.59
0.65
0.60
0.48
0.30
0.11
-0.06
-0.21
-0.30
-0.34
-0.34
-0.34
-0.34
-0.34
-0.31
-0.26
-0.19
-0.12
-0.05
0.07
0.25
0.47
0.67
0.78
0.75
0.61
0.43
0.29
0.24
0.24
0.21
0.10
-0.04
-0.14
-0.14
-0.03
0.06
0.04
-0.14
-0.40
-0.59
-0.59
-0.37
-0.07
0.15
0.14
-0.08
-0.38
-0.61
-0.66
-0.53
-0.30
-0.07
0.11
0.21
0.19
0.07
-0.14
-0.38
-0.55
-0.58
-0.45
-0.19
0.12
0.42
0.64
0.78
0.79
0.66
0.39
0.05
-0.25
-0.44
-0.50
-0.49
-0.49
-0.58
-0.75
-0.93
-1.05
-1.07
-0.99
-0.88
-0.78
-0.68
-0.60
-0.52
-0.40
-0.25
-0.01
0.34
0.79
1.24
1.56
1.64
1.44
1.02
0.55
0.20
0.07
0.15
0.34
0.53
0.61
0.56
0.43
0.29
0.17
0.08
0.00
-0.08
-0.19
-0.29
-0.34
-0.34
-0.28
-0.20
-0.14
-0.10
-0.07
-0.05
-0.05
-0.10
-0.23
-0.42
-0.59
-0.66
-0.54
-0.23
0.17
0.53
0.74
0.76
0.64
0.45
0.32
0.28
0.31
0.32
0.21
-0.05
-0.43
-0.78
-0.95
-0.84
-0.47
-0.00
0.40
0.59
0.55
0.37
0.18
0.09
0.11
0.18
0.27
0.32
0.36
0.39
0.37
0.28
0.04
-0.30
-0.67
-0.95
-1.05
-0.97
-0.76
-0.54
-0.39
-0.35
-0.38
-0.44
-0.49
-0.49
-0.42
-0.28
-0.05
0.25
0.58
0.88
1.10
1.21
1.21
1.10
0.87
0.54
0.12
-0.31
-0.65
-0.80
-0.68
-0.35
0.09
0.44
0.56
0.39
-0.00
-0.48
-0.85
-1.00
-0.93
-0.69
-0.42
-0.19
-0.04
0.06
0.16
0.30
0.43
0.50
0.45
0.28
0.07
-0.08
-0.07
0.09
0.33
0.52
0.58
0.50
0.38
0.32
0.37
0.47
0.55
0.54
0.42
0.24
0.07
-0.09
-0.25
-0.43
-0.63
-0.81
-0.93
-0.96
-0.89
-0.71
-0.45
-0.14
0.17
0.42
0.57
0.59
0.55
0.52
0.54
0.63
0.72
0.72
0.58
0.29
-0.05
-0.37
-0.56
-0.57
-0.40
-0.08
0.27
0.53
0.60
0.44
0.10
-0.30
-0.63
-0.80
-0.81
-0.75
-0.69
-0.68
-0.69
-0.68
-0.57
-0.38
-0.14
0.06
0.16
0.15
0.07
-0.03
-0.13
-0.18
-0.20
-0.16
-0.06
0.10
0.28
0.44
0.53
0.51
0.39
0.24
0.13
0.10
0.14
0.22
0.25
0.22
0.13
0.03
-0.03
-0.03
0.01
0.07
0.11
0.10
0.03
-0.05
-0.11
-0.14
-0.14
-0.16
-0.19
-0.22
-0.18
-0.04
0.18
0.44
0.60
0.57
0.32
-0.10
-0.55
-0.86
-0.93
-0.76
-0.45
-0.10
0.15
0.25
0.21
0.09
-0.06
-0.19
-0.26
-0.30
-0.30
-0.27
-0.18
-0.01
0.23
0.51
0.78
0.96
0.99
0.85
0.55
0.18
-0.18
-0.44
-0.56
-0.55
-0.45
-0.31
-0.16
-0.00
0.14
0.27
0.39
0.53
0.68
0.83
0.96
1.03
0.97
0.77
0.48
0.17
-0.07
-0.16
-0.11
0.02
0.13
0.15
0.04
-0.18
-0.45
-0.72
-0.96
-1.12
-1.15
-1.03
-0.76
-0.42
-0.13
-0.02
-0.14
-0.42
-0.70
-0.80
-0.65
-0.31
0.09
0.41
0.62
0.78
0.97
1.18
1.34
1.32
1.07
0.63
0.16
-0.20
-0.39
-0.45
-0.46
-0.50
-0.57
-0.64
-0.67
-0.65
-0.61
-0.57
-0.54
-0.47
-0.36
-0.22
-0.09
-0.01
-0.01
-0.08
-0.19
-0.35
-0.51
-0.66
-0.74
-0.69
-0.46
-0.07
0.41
0.86
1.15
1.26
1.19
1.01
0.79
0.58
0.40
0.27
0.20
0.19
0.23
0.31
0.39
0.44
0.43
0.36
0.27
0.14
-0.01
-0.17
-0.32
-0.42
-0.44
-0.37
-0.28
-0.23
-0.27
-0.37
-0.46
-0.46
-0.34
-0.15
-0.01
-0.03
-0.19
-0.40
-0.51
-0.43
-0.17
0.15
0.38
0.48
0.47
0.46
0.53
0.66
0.77
0.74
0.50
0.10
-0.32
-0.59
-0.60
-0.37
-0.02
0.26
0.32
0.12
-0.28
-0.71
-1.00
-1.01
-0.75
-0.31
0.14
0.44
0.51
0.33
-0.02
-0.39
-0.67
-0.74
-0.62
-0.34
-0.02
0.24
0.40
0.44
0.35
0.17
-0.07
-0.29
-0.42
-0.40
-0.24
-0.02
0.16
0.22
0.16
0.06
0.00
0.02
0.07
0.05
-0.09
-0.34
-0.57
-0.63
-0.41
0.07
0.69
1.23
1.50
1.43
1.07
0.59
0.17
-0.09
-0.19
-0.21
-0.24
-0.32
-0.40
-0.41
-0.32
-0.19
-0.12
-0.19
-0.39
-0.62
-0.73
-0.61
-0.30
0.09
0.42
0.61
0.66
0.64
0.62
0.65
0.71
0.75
0.71
0.58
0.37
0.14
-0.06
-0.18
-0.25
-0.28
-0.30
-0.29
-0.20
-0.00
0.27
0.53
0.63
0.48
0.07
-0.47
-0.97
-1.26
-1.28
-1.07
-0.74
-0.42
-0.16
-0.02
0.02
-0.04
-0.22
-0.47
-0.75
-0.98
-1.06
-0.96
-0.66
-0.22
0.28
0.73
1.04
1.17
1.11
0.87
0.52
0.14
-0.21
-0.43
-0.49
-0.36
-0.03
0.44
0.97
1.43
1.70
1.68
1.40
0.92
0.41
0.01
-0.19
-0.18
-0.04
0.14
0.26
0.28
0.23
0.14
0.03
-0.07
-0.20
-0.39
-0.66
-0.96
-1.21
-1.31
-1.21
-0.92
-0.52
-0.13
0.13
0.21
0.14
-0.01
-0.14
-0.17
-0.10
0.05
0.18
0.25
0.24
0.19
0.16
0.20
0.29
0.33
0.25
0.00
-0.36
-0.70
-0.92
-0.93
-0.76
-0.46
-0.12
0.17
0.35
0.43
0.42
0.37
0.33
0.33
0.34
0.31
0.18
-0.09
-0.44
-0.74
-0.88
-0.77
-0.47
-0.08
0.24
0.40
0.40
0.29
0.17
0.13
0.17
0.25
0.28
0.21
0.04
-0.17
-0.32
-0.32
-0.16
0.12
0.42
0.62
0.65
0.50
0.23
-0.02
-0.13
-0.04
0.21
0.50
0.70
0.73
0.59
0.38
0.18
0.03
-0.06
-0.13
-0.21
-0.26
-0.25
-0.18
-0.08
-0.03
-0.07
-0.18
-0.32
-0.43
-0.47
-0.47
-0.47
-0.49
-0.53
-0.54
-0.53
-0.51
-0.52
-0.55
-0.59
-0.58
-0.46
-0.24
0.05
0.33
0.56
0.67
0.68
0.64
0.59
0.55
0.51
0.46
0.37
0.26
0.12
0.00
-0.04
0.01
0.15
0.35
0.52
0.61
0.59
0.46
0.27
0.06
-0.17
-0.41
-0.64
-0.83
-0.89
-0.78
-0.49
-0.11
0.23
0.41
0.40
0.26
0.12
0.08
0.16
0.32
0.45
0.47
0.38
0.22
0.09
0.03
0.06
0.12
0.12
0.06
-0.09
-0.26
-0.42
-0.53
-0.58
-0.57
-0.50
-0.38
-0.20
-0.02
0.11
0.13
0.02
-0.21
-0.50
-0.75
-0.86
-0.77
-0.51
-0.17
0.13
0.28
0.25
0.11
0.01
0.07
0.33
0.71
1.04
1.18
1.03
0.64
0.15
-0.28
-0.49
-0.45
-0.20
0.14
0.46
0.66
0.72
0.67
0.55
0.39
0.22
0.07
-0.06
-0.11
-0.06
0.07
0.21
0.25
0.12
-0.17
-0.54
-0.83
-0.92
-0.76
-0.47
-0.20
-0.13
-0.30
-0.64
-0.98
-1.17
-1.13
-0.89
-0.55
-0.19
0.13
0.38
0.56
0.67
0.71
0.70
0.68
0.67
0.66
0.62
0.49
0.25
-0.03
-0.27
-0.38
-0.38
-0.31
-0.28
-0.35
-0.51
-0.65
-0.65
-0.46
-0.14
0.20
0.39
0.41
0.30
0.19
0.18
0.27
0.35
0.31
0.10
-0.20
-0.42
-0.43
-0.18
0.22
0.60
0.84
0.90
0.85
0.77
0.73
0.71
0.66
0.52
0.31
0.04
-0.19
-0.37
-0.47
-0.54
-0.61
-0.74
-0.91
-1.06
-1.12
-1.06
-0.87
-0.58
-0.29
-0.04
0.10
0.16
0.18
0.22
0.32
0.48
0.69
0.89
1.01
1.01
0.90
0.71
0.52
0.37
0.30
0.27
0.25
0.18
0.06
-0.08
-0.19
-0.21
-0.14
-0.01
0.11
0.17
0.13
-0.00
-0.20
-0.45
-0.71
-0.95
-1.12
-1.16
-1.01
-0.70
-0.29
0.08
0.31
0.35
0.28
0.22
0.26
0.40
0.52
0.51
0.31
-0.03
-0.38
-0.57
-0.54
-0.28
0.12
0.52
0.82
0.94
0.85
0.54
0.08
-0.45
-0.95
-1.30
-1.43
-1.30
-0.93
-0.41
0.14
0.55
0.74
0.67
0.40
0.04
-0.28
-0.49
-0.55
-0.48
-0.29
-0.03
0.27
0.51
0.65
0.65
0.55
0.43
0.36
0.36
0.39
0.40
0.36
0.28
0.20
0.15
0.15
0.17
0.21
0.23
0.23
0.20
0.16
0.13
0.14
0.15
0.14
0.05
-0.16
-0.46
-0.74
-0.85
-0.68
-0.28
0.18
0.47
0.45
0.14
-0.30
-0.66
-0.80
-0.74
-0.60
-0.50
-0.49
-0.54
-0.58
-0.53
-0.39
-0.19
0.04
0.26
0.45
0.57
0.58
0.43
0.13
-0.24
-0.60
-0.85
-0.97
-0.96
-0.85
-0.68
-0.47
-0.25
-0.05
0.12
0.28
0.41
0.54
0.65
0.70
0.68
0.58
0.42
0.26
0.18
0.20
0.31
0.46
0.55
0.54
0.40
0.19
-0.02
-0.15
-0.20
-0.20
-0.22
-0.28
-0.36
-0.41
-0.37
-0.22
0.00
0.22
0.35
0.34
0.17
-0.08
-0.31
-0.42
-0.32
-0.03
0.38
0.78
1.00
0.99
0.74
0.35
-0.05
-0.34
-0.47
-0.45
-0.32
-0.16
-0.05
-0.02
-0.06
-0.12
-0.14
-0.08
0.05
0.23
0.41
0.57
0.69
0.75
0.74
0.66
0.50
0.29
0.09
-0.07
-0.19
-0.29
-0.41
-0.54
-0.67
-0.74
-0.70
-0.55
-0.30
-0.03
0.22
0.40
0.47
0.44
0.34
0.20
0.08
0.01
0.01
0.04
0.07
0.04
-0.07
-0.25
-0.48
-0.71
-0.89
-0.97
-0.95
-0.84
-0.70
-0.57
-0.48
-0.40
-0.27
-0.03
0.29
0.60
0.78
0.70
0.35
-0.15
-0.59
-0.75
-0.54
-0.01
0.63
1.12
1.31
1.15
0.76
0.32
-0.04
-0.28
-0.45
-0.57
-0.66
-0.67
-0.55
-0.30
0.03
0.34
0.57
0.66
0.65
0.57
0.43
0.28
0.14
0.05
0.07
0.22
0.48
0.75
0.91
0.87
0.61
0.24
-0.07
-0.17
0.01
0.39
0.80
1.07
1.09
0.87
0.49
0.07
-0.32
-0.62
-0.84
-0.98
-1.06
-1.08
-1.08
-1.10
-1.18
-1.29
-1.35
-1.30
-1.11
-0.80
-0.45
-0.14
0.10
0.29
0.47
0.65
0.81
0.87
0.79
0.57
0.25
-0.07
-0.31
-0.43
-0.42
-0.30
-0.13
0.03
0.11
0.10
0.02
-0.05
-0.06
0.04
0.17
0.25
0.16
-0.09
-0.44
-0.71
-0.80
-0.67
-0.38
-0.07
0.15
0.25
0.26
0.23
0.20
0.17
0.12
0.07
0.04
0.09
0.21
0.39
0.54
0.59
0.53
0.38
0.24
0.19
0.25
0.38
0.52
0.56
0.48
0.32
0.13
-0.01
-0.04
0.02
0.14
0.26
0.35
0.37
0.27
0.05
-0.28
-0.66
-0.99
-1.15
-1.08
-0.78
-0.36
0.06
0.34
0.40
0.21
-0.17
-0.62
-1.00
-1.19
-1.11
-0.78
-0.35
0.03
0.23
0.20
0.05
-0.07
-0.06
0.14
0.44
0.73
0.90
0.89
0.72
0.42
0.07
-0.30
-0.60
-0.74
-0.67
-0.35
0.11
0.56
0.84
0.83
0.57
0.20
-0.10
-0.21
-0.07
0.25
0.62
0.94
1.10
1.06
0.84
0.52
0.20
-0.02
-0.12
-0.12
-0.10
-0.11
-0.18
-0.24
-0.26
-0.21
-0.14
-0.11
-0.16
-0.28
-0.40
-0.44
-0.35
-0.14
0.11
0.34
0.44
0.40
0.21
-0.05
-0.32
-0.54
-0.67
-0.72
-0.68
-0.55
-0.33
-0.03
0.26
0.43
0.40
0.17
-0.16
-0.44
-0.56
-0.54
-0.47
-0.49
-0.62
-0.78
-0.80
-0.56
-0.06
0.55
1.03
1.22
1.06
0.66
0.20
-0.16
-0.33
-0.31
-0.12
0.17
0.50
0.78
0.89
0.77
0.45
0.06
-0.21
-0.23
0.03
0.43
0.79
0.95
0.85
0.57
0.23
-0.06
-0.22
-0.26
-0.23
-0.18
-0.17
-0.21
-0.29
-0.39
-0.46
-0.47
-0.42
-0.37
-0.35
-0.40
-0.46
-0.48
-0.40
-0.20
0.05
0.26
0.39
0.43
0.44
0.45
0.47
0.47
0.40
0.28
0.13
0.01
-0.03
0.00
0.07
0.13
0.15
0.12
0.06
-0.02
-0.09
-0.15
-0.17
-0.14
-0.11
-0.10
-0.19
-0.35
-0.53
-0.64
-0.63
-0.51
-0.36
-0.28
-0.30
-0.37
-0.39
-0.30
-0.13
0.03
0.08
0.00
-0.16
-0.31
-0.40
-0.42
-0.43
-0.46
-0.53
-0.59
-0.58
-0.44
-0.17
0.18
0.55
0.85
0.98
0.93
0.69
0.38
0.11
0.02
0.14
0.42
0.72
0.89
0.87
0.69
0.48
0.38
0.42
0.56
0.67
0.64
0.44
0.12
-0.23
-0.53
-0.77
-0.93
-1.06
-1.13
-1.10
-0.94
-0.67
-0.36
-0.09
0.05
0.07
0.03
0.04
0.17
0.41
0.68
0.87
0.88
0.69
0.36
-0.00
-0.29
-0.44
-0.44
-0.36
-0.25
-0.16
-0.13
-0.12
-0.12
-0.12
-0.09
-0.02
0.08
0.20
0.31
0.38
0.38
0.28
0.11
-0.07
-0.22
-0.30
-0.33
-0.34
-0.36
-0.37
-0.38
-0.34
-0.24
-0.09
0.07
0.19
0.24
0.21
0.09
-0.08
-0.28
-0.47
-0.63
-0.72
-0.72
-0.60
-0.36
-0.04
0.27
0.48
0.50
0.34
0.08
-0.14
-0.18
-0.01
0.26
0.49
0.54
0.43
0.24
0.12
0.12
0.18
0.18
0.04
-0.22
-0.47
-0.56
-0.42
-0.12
0.24
0.51
0.65
0.70
0.70
0.69
0.67
0.60
0.51
0.42
0.42
0.51
0.64
0.67
0.51
0.10
-0.47
-1.02
-1.38
-1.43
-1.19
-0.78
-0.38
-0.12
-0.07
-0.17
-0.30
-0.35
-0.27
-0.09
0.13
0.27
0.30
0.24
0.15
0.11
0.15
0.24
0.27
0.18
-0.04
-0.31
-0.51
-0.50
-0.26
0.12
0.46
0.61
0.52
0.25
-0.05
-0.25
-0.31
-0.28
-0.24
-0.22
-0.19
-0.09
0.10
0.31
0.42
0.37
0.17
-0.03
-0.11
-0.01
0.20
0.36
0.37
0.23
0.06
-0.01
0.07
0.24
0.38
0.37
0.21
-0.02
-0.20
-0.21
-0.05
0.23
0.56
0.86
1.09
1.17
1.03
0.65
0.04
-0.67
-1.26
-1.54
-1.44
-1.04
-0.52
-0.07
0.17
0.21
0.16
0.10
0.08
0.09
0.09
0.08
0.08
0.14
0.26
0.39
0.46
0.39
0.18
-0.14
-0.45
-0.64
-0.63
-0.42
-0.11
0.17
0.28
0.16
-0.16
-0.56
-0.90
-1.11
-1.14
-1.02
-0.77
-0.42
-0.02
0.37
0.66
0.76
0.65
0.39
0.08
-0.18
-0.31
-0.33
-0.28
-0.19
-0.11
-0.05
-0.01
0.02
0.04
0.05
0.06
0.05
-0.00
-0.11
-0.24
-0.34
-0.31
-0.13
0.19
0.57
0.87
1.00
0.93
0.70
0.38
0.06
-0.18
-0.31
-0.32
-0.23
-0.07
0.10
0.23
0.29
0.26
0.19
0.10
0.04
0.04
0.07
0.08
0.03
-0.11
-0.33
-0.53
-0.63
-0.52
-0.21
0.21
0.59
0.78
0.71
0.42
0.02
-0.29
-0.41
-0.30
-0.01
0.37
0.73
1.02
1.18
1.21
1.09
0.79
0.34
-0.18
-0.64
-0.90
-0.90
-0.65
-0.31
-0.04
0.03
-0.14
-0.46
-0.81
-1.09
-1.21
-1.17
-0.96
-0.62
-0.20
0.24
0.61
0.84
0.90
0.81
0.62
0.42
0.25
0.14
0.06
-0.01
-0.06
-0.08
-0.05
0.03
0.11
0.14
0.04
-0.21
-0.55
-0.88
-1.04
-0.94
-0.58
-0.05
0.46
0.78
0.84
0.67
0.37
0.04
-0.24
-0.47
-0.64
-0.72
-0.68
-0.51
-0.25
-0.00
0.13
0.10
-0.07
-0.26
-0.37
-0.34
-0.19
0.01
0.20
0.35
0.43
0.44
0.39
0.30
0.21
0.17
0.22
0.32
0.42
0.42
0.26
-0.02
-0.34
-0.58
-0.70
-0.70
-0.63
-0.51
-0.38
-0.21
-0.02
0.15
0.25
0.24
0.11
-0.06
-0.20
-0.24
-0.15
0.05
0.37
0.78
1.23
1.61
1.79
1.67
1.26
0.67
0.11
-0.24
-0.30
-0.12
0.14
0.32
0.33
0.16
-0.12
-0.43
-0.71
-0.92
-1.04
-1.08
-1.03
-0.91
-0.73
-0.52
-0.30
-0.08
0.10
0.23
0.31
0.32
0.26
0.14
-0.01
-0.17
-0.28
-0.34
-0.34
-0.31
-0.28
-0.25
-0.23
-0.19
-0.12
-0.04
0.04
0.09
0.12
0.11
0.09
0.04
-0.03
-0.09
-0.10
-0.03
0.12
0.30
0.43
0.45
0.37
0.24
0.14
0.13
0.19
0.27
0.33
0.38
0.46
0.58
0.75
0.86
0.85
0.65
0.29
-0.14
-0.52
-0.74
-0.76
-0.59
-0.26
0.14
0.54
0.82
0.89
0.68
0.20
-0.46
-1.12
-1.60
-1.76
-1.58
-1.14
-0.58
-0.03
0.43
0.73
0.89
0.89
0.76
0.51
0.18
-0.19
-0.53
-0.79
-0.91
-0.89
-0.74
-0.47
-0.14
0.16
0.36
0.41
0.30
0.08
-0.18
-0.40
-0.53
-0.54
-0.45
-0.27
-0.07
0.14
0.33
0.49
0.63
0.74
0.83
0.90
0.98
1.06
1.15
1.21
1.18
1.02
0.71
0.30
-0.12
-0.47
-0.70
-0.80
-0.83
-0.80
-0.73
-0.62
-0.48
-0.37
-0.31
-0.35
-0.44
-0.48
-0.38
-0.13
0.22
0.54
0.68
0.58
0.28
-0.09
-0.35
-0.37
-0.11
0.32
