1541859555.00
64.000000
-0.00
-0.00
-0.00
-0.00
-0.00
-0.00
-0.00
-0.00
-0.00
-0.00
0.00
0.01
0.01
-0.00
-0.03
-0.05
-0.05
0.00
0.13
0.36
0.66
1.01
1.37
1.72
2.06
2.40
2.79
3.24
3.80
4.43
5.08
5.70
6.27
6.81
7.36
8.02
8.83
9.90
11.13
12.43
13.67
14.81
15.88
17.07
18.56
20.51
23.15
26.27
29.62
32.91
35.99
38.93
42.04
45.71
50.26
56.04
62.73
69.85
76.89
83.55
89.92
96.47
103.87
112.61
123.23
135.28
148.03
160.71
172.80
184.34
195.91
208.73
221.46
236.36
254.14
275.06
298.08
320.41
337.67
345.01
338.79
317.92
284.75
243.34
198.38
153.50
110.47
69.39
29.65
-9.20
-46.91
-82.35
-114.53
-142.81
-166.96
-187.15
-203.87
-217.84
-229.77
-240.25
-249.43
-257.36
-263.96
-269.37
-274.02
-278.59
-283.84
-290.48
-298.73
-308.59
-320.15
-333.69
-349.02
-364.79
-377.88
-383.91
-378.82
-360.82
-331.63
-296.22
-260.63
-229.33
-203.60
-181.56
-160.31
-138.06
-115.54
-95.26
-79.79
-69.60
-62.61
-55.04
-43.84
-28.26
-10.69
4.86
14.92
18.51
18.01
17.46
20.72
28.84
40.00
50.15
55.86
55.88
52.16
48.41
47.98
51.80
58.01
62.83
62.91
57.23
47.68
38.22
32.55
32.30
35.95
40.05
40.83
36.92
29.73
23.16
20.90
24.58
32.25
39.70
42.67
39.33
31.58
23.80
20.30
22.65
28.88
34.61
35.87
31.42
23.60
16.85
14.93
18.78
25.87
31.90
33.13
28.77
21.15
14.43
12.06
14.98
21.00
26.38
27.76
24.21
17.70
11.76
9.56
11.94
17.03
21.17
21.21
16.20
7.92
0.02
-4.40
-4.26
-1.47
0.57
-1.34
-7.81
-16.68
-23.89
-25.96
-22.02
-14.57
-8.09
-6.52
-10.99
-18.91
-25.62
-27.01
-22.05
-13.35
-5.59
-2.72
-5.64
-11.72
-16.45
-16.26
-10.55
-1.97
5.26
7.84
5.36
0.35
-3.31
-2.72
2.35
9.27
14.08
13.77
7.97
-0.61
-7.87
-10.44
-7.77
-2.26
1.96
1.61
-3.77
-11.58
-17.54
-18.44
-13.87
-6.66
-0.94
0.15
-3.49
-8.99
-12.27
-10.53
-3.90
4.67
11.10
12.74
9.70
4.97
2.52
5.02
12.24
21.09
27.42
28.30
23.93
17.52
13.56
15.23
22.41
31.82
38.71
39.80
35.16
28.26
23.92
25.32
32.33
41.32
47.66
48.12
43.01
35.74
30.81
31.25
36.72
44.09
48.92
48.49
42.93
35.43
30.04
29.46
33.40
38.71
41.55
39.20
32.23
23.56
17.23
15.57
18.23
22.29
23.99
21.24
14.33
6.38
0.82
-0.05
3.15
7.56
9.66
7.14
0.81
-6.52
-10.95
-10.47
-5.64
0.29
3.44
1.70
-4.40
-11.32
-15.38
-14.20
-8.71
-2.21
1.40
-0.14
-5.71
-12.06
-15.01
-12.68
-5.97
1.39
5.35
3.89
-2.04
-8.56
-11.80
-9.47
-2.85
4.49
8.51
7.04
1.43
-4.84
-7.59
-5.03
1.71
8.84
12.33
10.31
4.00
-2.68
-5.83
-3.40
3.30
10.59
14.55
13.14
7.63
1.42
-1.66
0.15
5.78
11.94
15.03
13.34
7.89
1.89
-1.24
0.19
5.17
10.49
12.75
10.18
3.91
-2.79
-6.41
-5.21
-0.36
4.82
6.75
3.75
-2.87
-9.69
-13.02
-11.24
-5.70
0.01
2.19
-0.78
-7.41
-13.93
-16.62
-13.96
-7.55
-1.15
1.56
-0.88
-6.74
-12.22
-13.64
-9.62
-1.93
5.59
9.24
7.63
2.41
-2.69
-4.11
-0.52
6.46
13.08
15.80
13.22
6.95
0.65
-2.28
-0.61
3.90
7.66
7.42
2.26
-5.69
-12.56
-14.88
-11.75
-5.27
0.61
2.46
-0.64
-6.57
-11.40
-11.73
-6.65
1.75
9.55
13.24
11.69
6.70
1.82
0.19
2.64
7.38
10.95
10.57
5.63
-1.77
-7.99
-10.18
-7.67
-2.64
1.42
1.61
-2.61
-8.91
-13.68
-13.83
-8.82
-0.82
6.47
9.80
8.38
4.03
0.06
-0.72
2.21
7.10
10.75
10.79
6.95
1.19
-3.30
-4.36
-1.82
2.16
4.48
3.06
-2.12
-8.60
-13.08
-13.17
-8.78
-2.30
2.96
4.39
1.74
-2.81
-6.12
-5.63
-1.23
5.09
10.11
11.38
8.66
3.76
-0.33
-1.52
0.40
3.58
5.29
3.72
-1.08
-7.02
-11.17
-11.63
-8.40
-3.59
-0.06
0.23
-2.76
-6.92
-9.50
-8.54
-4.05
1.95
6.78
8.37
6.66
3.35
0.81
0.79
3.18
6.39
8.17
7.07
3.40
-1.16
-4.23
-4.48
-2.11
1.09
2.80
1.67
-2.08
-6.52
-9.25
-8.78
-5.25
-0.62
2.70
3.05
0.44
-3.26
-5.76
-5.37
-2.17
2.13
5.31
5.75
3.64
0.67
-1.02
-0.00
3.37
7.36
9.70
9.00
5.71
1.63
-0.84
-0.43
2.44
5.77
7.14
5.26
0.63
-4.58
-7.84
-7.82
-5.02
-1.63
-0.05
-1.54
-5.46
-9.42
-11.02
-8.96
-4.09
1.19
4.39
4.14
1.28
-1.91
-3.00
-0.86
3.61
8.12
10.24
8.95
5.17
1.14
-0.76
0.40
3.75
7.10
8.24
6.33
2.25
-1.86
-3.96
-3.26
-0.64
1.81
2.17
-0.24
-4.48
-8.37
-9.98
-8.47
-4.74
-0.75
1.57
1.34
-0.69
-2.85
-3.38
-1.61
1.73
4.99
6.45
5.43
2.58
-0.57
-2.49
-2.52
-1.20
0.09
0.05
-1.70
-4.45
-6.71
-7.09
-5.16
-1.67
1.89
4.06
4.25
2.97
1.49
0.96
1.80
3.41
4.57
4.17
1.95
-1.37
-4.39
-5.88
-5.39
-3.54
-1.64
-0.90
-1.79
-3.70
-5.34
-5.49
-3.68
-0.51
2.69
4.62
4.67
3.35
1.85
1.33
2.22
3.89
5.07
4.59
2.12
-1.50
-4.73
-6.20
-5.43
-3.23
-1.08
-0.39
-1.56
-3.76
-5.41
-5.18
-2.70
1.07
4.47
6.05
5.39
3.42
1.71
1.56
3.17
5.39
6.45
4.97
0.95
-4.08
-7.90
-8.77
-6.52
-2.66
0.48
1.09
-0.96
-4.06
-5.89
-4.75
-0.75
4.27
7.83
8.27
5.79
2.27
0.19
1.08
4.55
8.59
10.58
8.92
4.00
-2.05
-6.43
-7.29
-4.79
-0.95
1.46
0.60
-3.35
-8.19
-10.97
-9.73
-4.70
1.80
6.63
7.64
4.97
0.81
-1.80
-1.01
2.85
7.45
9.80
8.15
3.10
-2.85
-6.62
-6.56
-3.28
0.72
2.48
0.48
-4.41
-9.43
-11.45
-8.96
-2.83
4.09
8.49
8.68
5.35
1.05
-1.21
-0.06
3.65
7.24
7.84
4.33
-2.11
-8.51
-11.62
-10.06
-4.74
1.43
5.24
5.16
1.93
-1.83
-3.11
-0.63
4.71
10.09
12.57
10.89
6.06
0.96
-1.52
-0.23
3.73
7.48
8.23
5.00
-0.87
-6.38
-8.70
-6.89
-2.30
2.00
3.15
0.21
-5.46
-10.80
-12.93
-10.87
-5.92
-1.15
0.54
-1.83
-6.92
-11.61
-12.90
-9.73
-3.43
2.79
5.87
4.66
0.40
-3.75
-4.77
-1.60
4.44
10.20
12.65
10.75
5.88
1.10
-0.72
1.25
5.46
8.77
8.37
3.60
-3.71
-10.16
-12.68
-10.45
-5.16
-0.08
1.79
-0.33
-4.76
-8.35
-8.36
-4.20
2.25
7.78
9.66
7.40
2.94
-0.64
-0.76
2.82
8.09
11.95
11.97
8.00
2.26
-2.21
-3.08
-0.28
3.96
6.57
5.35
0.33
-6.06
-10.62
-11.03
-7.29
-1.85
2.01
1.90
-2.24
-7.93
-11.76
-11.27
-6.39
0.49
5.95
7.48
4.89
0.46
-2.55
-1.92
2.35
7.92
11.57
11.14
6.75
0.73
-3.73
-4.60
-2.08
1.52
3.15
0.94
-4.58
-10.80
-14.43
-13.50
-8.51
-2.18
2.03
2.00
-1.81
-6.74
-9.32
-7.48
-1.70
5.31
10.10
10.56
7.21
2.62
0.10
1.47
6.07
11.24
13.81
12.03
6.78
0.80
-2.68
-1.94
2.10
6.67
8.55
6.00
0.02
-6.44
-10.16
-9.38
-5.17
-0.56
1.17
-1.62
-7.62
-13.37
-15.33
-11.83
-4.20
3.90
8.68
8.26
3.77
-1.40
-3.64
-1.32
4.37
10.18
12.67
10.28
4.29
-2.15
-5.70
-4.93
-1.13
2.69
3.44
-0.02
-6.05
-11.28
-12.60
-8.80
-1.68
5.22
8.62
7.25
2.70
-1.51
-2.36
1.11
7.12
12.07
12.90
8.82
1.65
-4.99
-7.96
-6.50
-2.35
1.14
1.01
-3.23
-9.52
-14.41
-14.91
-10.60
-3.74
2.08
3.79
0.78
-4.61
-8.84
-8.96
-4.42
2.41
7.90
9.19
5.72
-0.29
-5.18
-6.39
-3.52
1.18
4.10
2.63
-3.41
-11.79
-18.80
-21.59
-19.88
-15.70
-12.46
-12.91
-17.24
-23.29
-27.88
-28.48
-24.99
-19.76
-15.93
-15.87
-19.72
-25.19
-29.35
-30.39
-28.64
-26.68
-27.66
-33.30
-42.90
-53.46
-61.14
-63.63
-61.16
-56.35
-52.46
-50.94
-50.19
-46.35
-35.50
-16.27
8.75
34.36
55.28
68.91
76.49
82.33
91.20
106.07
126.72
150.27
173.12
192.54
207.44
218.13
225.29
229.06
229.04
224.49
214.99
201.13
184.57
167.59
152.42
140.41
131.67
125.06
118.63
110.34
98.87
83.87
66.00
46.79
26.99
6.60
-15.21
-39.83
-68.53
-101.61
-137.93
-174.76
-208.39
-235.30
-253.09
-261.27
-261.25
-255.53
-246.44
-234.97
-220.50
-201.24
-175.72
-144.02
-108.68
-74.55
-47.66
-33.51
-35.50
-53.80
-84.31
-120.18
-152.91
-174.03
-176.84
-158.15
-119.49
-67.48
-12.86
32.75
60.84
69.62
64.90
56.78
54.08
59.75
69.63
75.71
71.87
58.11
40.90
29.55
30.43
43.13
60.80
73.92
75.46
64.41
45.83
27.75
16.90
15.26
19.46
23.33
21.82
14.11
4.27
-1.49
0.83
10.07
20.32
24.70
20.04
9.02
-1.47
-4.83
0.87
11.89
21.35
23.50
17.35
6.94
-1.52
-3.47
1.17
8.08
11.51
8.01
-1.45
-12.15
-18.55
-17.89
-11.72
-4.94
-2.94
-8.49
-20.38
-34.80
-47.68
-56.65
-61.60
-63.06
-60.52
-52.18
-36.57
-14.72
9.04
28.76
40.31
44.00
44.32
46.81
54.32
64.54
70.94
66.09
45.45
9.86
-34.39
-77.06
-106.98
-115.19
-97.95
-58.87
-9.10
35.08
57.35
47.50
5.94
-56.40
-121.78
-171.94
-194.13
-184.53
-148.44
-97.78
-47.01
-9.35
6.16
-3.42
-34.80
-79.60
-126.41
-163.25
-179.76
-169.03
-129.37
-65.09
14.30
96.19
168.01
220.94
252.22
263.97
262.62
255.84
249.67
247.05
247.62
248.90
248.21
243.81
235.11
222.52
206.65
188.30
168.88
150.04
133.13
118.84
106.58
94.63
80.74
62.98
38.69
6.13
-34.64
-81.11
-128.09
-168.64
-196.03
-204.20
-192.82
-167.42
-136.69
-109.02
-89.32
-78.07
-72.63
-69.63
-67.04
-65.01
-64.59
-66.16
-68.85
-70.89
-70.82
-68.34
-64.46
-60.97
-59.80
-61.92
-66.87
-73.21
-79.22
-83.84
-86.98
-89.46
-92.61
-97.70
-105.25
-114.84
-125.32
-135.22
-143.35
-149.07
-152.31
-153.17
-151.84
-148.24
-141.89
-132.56
-119.66
-103.03
-83.00
-60.53
-37.04
-14.00
7.36
26.24
42.32
55.82
67.06
76.29
83.62
88.94
92.05
92.84
91.55
88.83
85.61
82.86
81.20
80.65
80.59
80.09
78.37
75.24
71.32
67.95
66.54
67.92
71.91
77.37
82.68
86.45
88.26
88.91
89.96
93.03
99.43
109.76
123.78
140.39
157.56
172.24
180.55
178.94
165.62
141.58
110.81
79.13
51.99
32.04
18.98
10.09
2.00
-7.45
-18.10
-28.00
-34.91
-37.89
-37.89
-37.32
-38.79
-43.53
-50.43
-56.64
-59.16
-56.35
-49.04
-40.57
-34.87
-34.35
-38.45
-43.90
-46.36
-42.90
-34.03
-23.53
-16.22
-15.14
-19.86
-26.57
-30.25
-27.87
-20.31
-11.78
-7.16
-9.28
-17.05
-26.02
-30.97
-29.11
-21.49
-12.14
-5.76
-5.04
-9.11
-14.26
-16.37
-13.33
-6.16
1.65
6.10
5.03
-0.63
-7.55
-11.87
-11.36
-6.58
-0.58
2.99
1.95
-3.04
-8.90
-11.86
-9.65
-2.87
5.35
11.11
11.90
8.08
2.49
-1.19
-0.77
3.09
7.28
8.10
3.55
-5.28
-14.64
-20.15
-19.26
-12.76
-4.39
1.37
1.72
-2.74
-8.43
-11.01
-8.04
-0.64
7.09
10.53
7.26
-1.29
-10.60
-15.62
-13.83
-6.78
0.94
4.39
1.28
-6.55
-14.26
-16.96
-12.67
-3.44
5.93
10.60
8.47
1.28
-6.62
-10.98
-9.97
-4.96
0.39
2.51
-0.03
-5.64
-10.88
-12.46
-9.04
-1.97
5.46
9.85
9.63
5.71
0.80
-2.15
-1.57
1.80
5.36
6.45
3.95
-0.83
-4.96
-5.53
-1.41
5.70
12.12
14.28
10.83
3.53
-3.76
-7.29
-5.51
-0.11
5.02
6.40
3.03
-2.84
-7.22
-6.82
-1.13
7.01
12.87
12.75
6.29
-3.20
-10.66
-12.20
-7.25
0.91
7.03
7.12
0.86
-8.12
-14.49
-14.33
-7.40
2.71
10.50
11.86
6.29
-2.92
-10.81
-13.68
-10.86
-4.95
-0.10
0.58
-3.19
-8.81
-12.56
-11.79
-6.33
1.40
7.64
9.45
6.25
0.03
-5.79
-8.33
-6.59
-1.85
3.10
5.62
4.82
1.99
-0.27
0.30
4.20
9.82
14.19
14.61
10.44
3.57
-2.54
-4.84
-2.46
2.85
7.64
8.74
5.25
-0.89
-5.97
-6.88
-2.95
3.67
9.24
10.50
6.68
-0.03
-5.82
-7.65
-5.08
-0.26
3.42
3.47
-0.20
-5.11
-7.81
-6.08
-0.54
5.78
9.14
7.31
0.82
-7.17
-12.66
-13.10
-8.79
-2.54
2.10
2.86
-0.10
-4.45
-7.25
-6.75
-3.46
0.24
1.72
-0.34
-5.14
-10.23
-12.88
-11.56
-6.79
-0.82
3.65
4.91
3.02
-0.43
-3.28
-4.02
-2.51
-0.05
1.55
1.01
-1.63
-5.00
-7.13
-6.54
-3.02
2.24
7.18
10.01
10.18
8.56
6.86
6.43
7.53
9.02
8.99
6.06
0.63
-5.03
-7.88
-5.88
0.68
9.13
15.60
17.12
13.33
6.66
0.96
-0.90
1.33
5.28
7.41
5.24
-1.00
-8.32
-12.77
-11.78
-5.81
1.99
7.58
8.20
3.97
-2.33
-6.98
-7.68
-4.87
-1.25
0.11
-2.29
-7.22
-11.50
-11.86
-7.09
1.05
8.64
11.82
8.95
1.65
-6.19
-10.43
-9.06
-3.24
3.42
7.04
5.78
0.91
-4.08
-5.60
-2.20
4.45
10.45
11.88
7.17
-1.85
-10.95
-15.76
-14.11
-7.13
1.48
7.56
8.68
5.37
0.47
-2.84
-2.89
-0.44
2.02
1.93
-1.64
-7.26
-11.90
-12.77
-8.98
-2.08
4.73
8.40
7.64
3.55
-1.10
-3.53
-2.62
0.60
3.60
3.97
0.98
-3.99
-8.14
-8.90
-5.36
1.07
7.48
10.92
9.98
5.45
-0.29
-4.56
-5.78
-4.17
-1.39
0.52
0.32
-1.58
-3.54
-3.68
-1.10
3.50
8.14
10.66
9.94
6.53
2.40
-0.21
-0.10
2.10
4.24
4.13
1.01
-3.67
-7.05
-6.52
-1.52
5.87
11.74
12.57
7.36
-1.60
-9.83
-13.20
-10.24
-2.94
4.46
7.90
5.86
0.14
-5.35
-6.87
-3.14
3.92
10.35
12.41
8.76
1.31
-5.97
-9.35
-7.45
-2.03
3.13
4.58
1.31
-4.56
-9.05
-8.80
-3.22
5.07
11.68
13.14
8.82
1.39
-4.79
-6.25
-2.52
3.60
7.70
6.50
-0.07
-8.78
-14.85
-14.69
-7.95
2.04
10.10
12.14
7.56
-0.43
-6.74
-7.33
-1.50
7.68
15.05
16.32
10.57
0.84
-7.70
-10.60
-6.55
2.03
10.61
15.22
14.65
10.94
7.69
7.60
10.56
13.69
13.12
6.63
-4.64
-16.42
-23.61
-23.14
-15.63
-5.16
2.90
4.78
0.38
-6.82
-11.87
-11.33
-5.31
2.74
7.95
6.87
-0.51
-10.68
-18.47
-19.99
-14.77
-5.96
1.78
4.80
2.57
-2.29
-5.81
-5.07
0.09
6.83
11.02
9.92
3.91
-3.59
-8.16
-7.12
-1.03
6.49
10.69
8.42
0.04
-10.48
-17.75
-17.94
-11.06
-0.77
7.79
10.88
8.09
2.29
-2.27
-2.50
1.75
7.49
10.61
8.46
1.69
-6.04
-10.28
-8.52
-1.67
6.45
11.06
9.14
1.17
-8.98
-16.10
-16.56
-10.44
-1.30
6.00
8.16
5.25
0.44
-2.22
-0.20
5.90
12.55
15.42
12.11
3.81
-5.19
-9.99
-8.12
-0.83
7.52
11.97
9.63
1.40
-8.66
-15.40
-15.57
-9.68
-1.53
4.16
4.55
0.36
-4.83
-6.89
-3.60
3.91
11.79
15.68
13.36
6.30
-1.09
-4.11
-0.76
7.16
15.03
18.25
14.89
6.70
-1.99
-6.70
-5.31
0.91
8.06
11.88
10.11
3.91
-2.95
-6.39
-4.47
1.30
6.68
7.25
0.99
-10.34
-22.06
-29.22
-29.35
-23.78
-16.65
-12.44
-13.36
-18.02
-22.56
-23.00
-17.69
-8.36
0.80
5.51
4.03
-1.84
-7.67
-9.07
-4.31
4.63
13.32
17.45
15.25
8.53
1.40
-2.16
-0.51
4.86
10.22
11.87
8.35
1.42
-4.93
-6.72
-2.42
5.94
13.98
17.41
14.55
7.29
-0.11
-3.65
-1.93
3.22
7.83
8.36
3.79
-3.69
-9.96
-11.42
-7.03
0.94
8.23
11.08
8.34
2.15
-3.44
-4.94
-1.59
4.39
9.09
9.31
4.46
-3.20
-9.87
-12.34
-9.68
-3.78
1.85
3.98
1.55
-3.76
-8.47
-9.49
-5.97
0.25
5.75
7.62
5.14
-0.01
-4.94
-7.23
-6.20
-3.05
-0.00
1.04
-0.37
-2.99
-4.55
-3.19
1.29
7.13
11.50
12.16
8.74
3.04
-2.16
-4.70
-4.13
-1.77
0.32
0.65
-0.92
-3.24
-4.60
-3.70
-0.46
3.92
7.39
8.14
5.63
1.10
-2.99
-4.40
-2.47
1.34
4.38
4.54
1.58
-2.61
-5.29
-4.63
-0.80
4.17
7.67
7.94
4.94
0.29
-3.68
-5.14
-3.65
-0.40
2.33
2.51
-0.41
-4.91
-8.13
-7.61
-2.91
3.86
9.26
10.63
7.78
3.07
-0.27
-0.30
2.47
5.49
6.03
2.87
-2.98
-9.00
-12.67
-12.74
-9.75
-5.51
-2.17
-1.16
-2.55
-5.04
-6.59
-5.66
-2.04
2.82
6.54
7.26
4.76
0.62
-2.75
-3.71
-2.31
-0.17
0.76
-0.41
-2.97
-5.12
-5.20
-2.75
1.33
5.25
7.31
6.55
3.15
-1.60
-5.79
-7.67
-6.55
-3.29
-0.03
0.94
-1.36
-5.87
-9.98
-11.10
-8.40
-3.29
1.42
3.42
2.41
0.05
-1.38
-0.60
1.78
3.91
4.08
1.87
-1.54
-4.21
-4.54
-2.10
2.20
6.53
8.99
8.35
4.65
-0.79
-5.80
-8.40
-7.72
-4.51
-0.66
1.94
2.58
2.18
2.47
4.73
8.61
12.30
13.66
11.81
7.94
4.72
4.64
8.50
14.77
20.29
21.88
17.82
8.50
-3.86
-16.16
-25.34
-29.32
-27.31
-20.07
-9.56
1.74
11.66
19.17
24.33
27.65
29.19
28.05
23.07
14.27
3.82
-4.55
-7.56
-4.70
1.04
4.80
3.08
-3.73
-11.55
-15.36
-12.66
-5.25
2.13
5.03
2.29
-3.50
-8.15
-8.79
-5.56
-1.01
1.95
1.84
-0.99
-5.03
-8.63
-10.48
-9.81
-6.60
-1.97
1.74
1.91
-2.49
-9.55
-14.89
-14.21
-6.35
5.27
14.30
15.59
8.83
-1.00
-6.84
-4.49
4.39
13.23
15.10
7.62
-5.24
-15.85
-18.04
-11.09
-0.03
8.05
8.66
2.55
-5.31
-9.56
-7.83
-1.86
4.25
6.99
5.44
1.07
-3.69
-7.07
-8.46
-7.94
-5.78
-2.29
1.59
4.28
4.33
1.65
-1.86
-3.27
-0.61
5.22
10.53
11.03
5.11
-4.52
-12.18
-12.84
-5.75
4.72
11.69
10.40
1.56
-8.97
-14.07
-10.08
0.73
11.56
15.57
10.18
-1.38
-12.37
-16.86
-13.18
-4.50
3.61
6.81
4.49
-0.41
-3.67
-2.71
1.87
6.86
8.67
5.71
-0.65
-6.85
-9.35
-6.75
-0.46
6.27
10.30
10.33
7.35
3.68
1.37
1.02
1.67
1.75
0.31
-2.30
-4.66
-5.25
-3.48
-0.04
3.46
5.46
5.19
2.95
-0.24
-3.16
-5.00
-5.51
-4.93
-3.67
-2.18
-0.77
0.33
1.08
1.50
1.63
1.49
0.97
-0.13
-1.91
-4.13
-6.14
-7.05
-6.17
-3.45
0.38
4.02
6.15
6.06
3.98
0.90
-1.85
-3.31
-3.22
-1.98
-0.36
1.03
1.96
2.57
3.04
3.32
3.08
1.98
-0.00
-2.37
-4.20
-4.64
-3.51
-1.43
0.53
1.41
1.02
0.12
-0.15
0.97
3.20
5.17
5.23
2.47
-2.50
-7.58
-10.10
-8.36
-2.67
4.58
10.02
10.99
6.97
-0.07
-6.65
-9.50
-7.33
-1.40
5.14
8.95
8.27
3.76
-1.92
-5.67
-5.55
-1.89
3.04
6.32
5.97
2.04
-3.46
-7.66
-8.40
-5.31
0.03
5.03
7.36
6.10
2.11
-2.64
-6.08
-7.05
-5.66
-2.98
-0.27
1.70
2.92
3.79
4.59
5.14
4.83
3.07
-0.12
-3.82
-6.55
-6.97
-4.72
-0.72
3.10
4.88
3.77
0.55
-2.71
-3.77
-1.48
3.41
8.57
11.21
9.62
4.13
-2.95
-8.50
-10.20
-7.65
-2.51
2.48
4.96
4.10
0.92
-2.49
-4.21
-3.48
-1.04
1.47
2.52
1.57
-0.72
-3.00
-4.11
-3.77
-2.65
-1.77
-1.73
-2.17
-1.99
-0.13
3.47
7.58
10.05
8.98
3.93
-3.57
-10.53
-13.85
-11.89
-5.29
3.28
10.38
13.46
11.88
7.09
1.64
-2.17
-3.31
-2.30
-0.60
0.39
0.20
-0.66
-1.18
-0.64
0.80
2.25
2.67
1.67
-0.07
-1.12
-0.11
3.21
7.66
11.05
11.33
7.90
2.18
-2.83
-4.01
0.31
9.35
20.09
28.63
32.00
29.44
22.65
14.81
9.02
7.07
8.78
12.42
15.69
16.81
15.03
10.47
3.53
-5.52
-16.45
-28.45
-39.56
-46.61
-46.16
-36.32
-18.21
3.44
21.65
29.85
24.77
8.16
-13.79
-33.13
-43.41
-42.14
-31.33
-15.88
-1.06
9.74
15.56
16.95
14.50
8.02
-3.04
-18.14
-34.45
-46.93
-50.07
-40.75
-20.40
4.71
25.70
34.84
29.07
11.52
-9.88
-26.09
-30.86
-23.29
-7.62
9.17
20.84
24.48
21.09
14.14
7.26
2.45
-0.28
-1.98
-3.28
-3.50
-1.04
5.12
13.98
22.19
25.35
20.44
7.84
-8.06
-20.61
-24.04
-16.34
-0.43
17.06
29.01
31.01
23.24
9.76
-3.89
-13.53
-17.90
-18.34
-17.10
-15.37
-12.42
-6.27
4.31
18.02
30.62
36.51
31.55
15.62
-6.45
-26.65
-37.16
-33.98
-18.76
1.84
19.38
27.24
23.43
10.83
-4.77
-17.64
-24.43
-24.95
-21.14
-15.31
-8.80
-1.87
5.32
11.56
14.43
11.36
1.46
-13.07
-27.08
-34.47
-31.32
-18.18
-0.49
13.70
17.54
8.76
-8.89
-27.43
-38.35
-36.55
-22.61
-2.14
17.12
28.89
30.89
25.07
15.79
7.16
1.27
-2.01
-3.81
-4.63
-3.50
1.39
10.99
23.71
35.24
40.03
34.09
17.46
-5.05
-25.62
-36.84
-35.06
-21.92
-3.35
13.41
23.28
25.23
21.87
17.10
13.44
10.76
6.94
-0.05
-10.06
-20.11
-25.68
-23.18
-12.16
4.08
19.74
29.25
29.70
22.09
10.34
-0.89
-8.51
-12.11
-13.36
-14.43
-16.12
-17.10
-14.66
-6.73
6.38
21.15
32.19
34.63
26.64
10.60
-7.88
-22.59
-29.47
-28.13
-21.39
-13.28
-6.59
-1.58
3.49
10.33
18.62
25.43
26.55
19.15
4.01
-13.98
-27.82
-31.70
-23.92
-7.84
9.83
22.32
25.99
21.61
13.24
5.37
0.40
-2.38
-5.51
-11.06
-18.69
-25.29
-26.68
-20.10
-6.23
10.76
24.90
31.27
28.26
18.12
5.56
-4.80
-10.56
-12.20
-12.12
-12.62
-14.30
-15.63
-14.05
-7.87
2.28
13.35
21.14
22.44
16.72
6.39
-4.43
-11.94
-14.44
-12.71
-9.25
-6.59
-5.80
-6.09
-5.58
-2.69
2.64
8.66
12.69
12.61
8.07
0.88
-5.93
-9.67
-9.29
-5.78
-1.51
1.20
1.33
-0.35
-1.92
-1.58
1.21
5.40
8.93
9.94
7.87
3.78
-0.30
-2.56
-2.39
-0.71
0.71
0.35
-2.12
-5.47
-7.59
-6.65
-2.21
4.44
10.81
14.50
14.38
11.08
6.47
2.46
-0.11
-1.85
-4.15
-7.99
-12.98
-17.22
-18.27
-14.58
-6.55
3.43
12.00
16.45
15.86
11.38
5.39
0.16
-3.16
-4.92
-6.26
-8.17
-10.57
-12.25
-11.57
-7.55
-0.68
7.06
12.96
14.87
12.28
6.52
0.05
-4.72
-6.62
-6.08
-4.65
-3.91
-4.48
-5.66
-5.93
-4.04
0.07
5.06
8.73
9.30
6.40
1.49
-2.89
-4.50
-2.54
1.79
6.08
7.94
6.36
2.16
-2.49
-5.37
-5.45
-3.26
-0.42
1.55
2.19
2.38
3.60
6.76
11.33
15.31
16.15
12.17
3.71
-6.76
-15.70
-20.16
-19.19
-14.18
-8.01
-3.52
-2.09
-3.13
-4.75
-5.04
-3.21
0.01
3.06
4.59
4.40
3.56
3.73
6.03
10.16
14.35
16.09
13.56
6.74
-2.35
-10.49
-14.84
-14.37
-10.36
-5.56
-2.71
-3.00
-5.57
-8.19
-8.74
-6.50
-2.50
1.26
3.15
2.90
1.77
1.68
3.89
8.23
12.99
15.91
15.38
11.39
5.62
0.60
-1.63
-0.55
2.54
5.24
5.40
2.28
-3.05
-8.36
-11.55
-11.88
-10.27
-8.71
-8.83
-10.88
-13.51
-14.56
-12.52
-7.42
-0.99
4.33
6.70
5.89
3.41
1.56
2.15
5.45
10.16
14.15
15.64
14.18
10.81
7.42
5.59
5.71
6.73
6.86
4.64
-0.01
-5.63
-9.91
-11.05
-8.76
-4.55
-0.94
-0.13
-2.74
-7.50
-11.94
-13.81
-12.23
-8.08
-3.32
0.22
1.84
2.25
2.89
4.89
8.25
11.68
13.37
11.99
7.58
1.66
-3.56
-6.33
-6.32
-4.83
-3.97
-5.47
-9.57
-14.77
-18.57
-18.84
-14.92
-8.07
-0.77
4.58
6.86
6.73
6.04
6.70
9.44
13.36
16.37
16.36
12.49
5.68
-1.80
-7.49
-9.96
-9.37
-7.06
-4.53
-2.35
0.20
4.52
11.39
19.98
27.56
30.52
26.17
14.39
-1.85
-17.70
-28.66
-32.79
-31.47
-28.34
-26.96
-28.55
-31.28
-31.62
-26.70
-16.31
-3.17
8.59
15.87
18.21
17.84
18.00
20.79
25.91
30.87
32.59
29.40
22.17
14.06
8.83
8.85
13.77
20.70
25.76
26.10
21.42
14.02
7.46
4.48
5.47
8.28
9.53
6.61
-0.68
-9.85
-17.12
-19.44
-16.26
-9.82
-3.94
-1.90
-4.65
-10.32
-15.40
-16.83
-13.88
-8.64
-4.85
-5.73
-11.95
-21.02
-28.58
-30.91
-27.02
-19.41
-12.65
-10.72
-14.66
-21.87
-27.63
-27.97
-21.97
-12.44
-4.16
-1.07
-3.94
-9.95
-14.50
-14.00
-7.96
0.85
8.17
10.87
8.77
4.61
2.26
4.25
10.31
17.46
21.93
21.29
15.95
8.91
4.01
3.79
8.13
14.46
19.30
20.24
17.29
12.69
9.49
9.74
13.32
18.07
21.15
20.59
16.47
10.82
6.44
5.33
7.68
11.81
15.20
15.90
13.69
10.11
7.59
7.89
11.09
15.34
17.90
16.63
11.43
4.34
-1.47
-3.44
-1.04
3.83
7.88
8.24
4.12
-2.63
-8.52
-10.42
-7.42
-1.63
2.98
2.77
-3.25
-12.68
-20.93
-23.89
-20.42
-13.10
-6.78
-5.67
-10.69
-18.89
-25.16
-25.45
-19.24
-10.07
-3.51
-3.92
-11.80
-23.29
-32.31
-34.02
-27.53
-16.46
-6.89
-3.93
-8.77
-18.05
-25.90
-27.43
-21.63
-11.99
-4.40
-3.55
-10.12
-20.33
-28.21
-29.08
-22.25
-11.20
-1.32
3.34
2.40
-0.88
-1.78
2.94
13.12
25.38
35.11
39.13
37.30
32.45
28.46
28.01
31.04
34.93
36.13
32.36
24.06
14.27
6.97
4.93
8.13
13.92
18.51
19.15
15.57
10.04
5.84
5.33
8.51
13.03
15.52
13.57
7.17
-1.08
-7.42
-8.92
-5.18
1.45
7.05
8.41
4.82
-1.42
-6.42
-7.02
-2.79
3.56
7.72
6.32
-0.85
-10.47
-17.51
-18.04
-11.58
-1.50
6.82
9.02
4.21
-4.51
-12.00
-14.03
-9.84
-2.46
3.05
2.64
-4.27
-14.39
-22.45
-24.26
-19.13
-10.29
-2.98
-1.36
-6.11
-13.95
-19.63
-19.01
-11.52
-0.60
8.28
10.72
5.97
-2.66
-9.76
-11.01
-5.69
2.94
9.55
9.87
3.32
-6.63
-14.48
-15.86
-10.11
-0.63
7.14
8.89
3.96
-4.31
-10.65
-11.01
-5.09
3.52
9.34
8.32
0.21
-11.14
-19.98
-22.03
-16.91
-8.43
-2.26
-2.61
-9.64
-19.22
-25.37
-23.75
-14.40
-1.83
7.39
8.27
0.37
-11.97
-22.00
-24.32
-17.81
-6.05
4.90
10.07
8.29
2.69
-1.51
-0.16
7.30
17.70
26.07
28.73
25.35
19.08
14.53
15.05
20.88
29.24
36.08
38.41
35.84
30.48
25.36
22.43
21.37
19.95
15.50
6.80
-4.81
-15.88
-22.62
-23.04
-18.25
-12.12
-9.38
-13.07
-22.66
-34.09
-41.78
-41.60
-33.04
-19.55
-6.50
1.72
4.04
2.94
2.60
6.09
13.51
21.98
27.56
27.77
23.12
16.76
12.51
12.45
15.58
18.37
16.69
8.27
-5.79
-21.26
-32.76
-36.38
-31.64
-21.59
-11.07
-4.11
-1.77
-1.95
-0.96
3.89
12.46
21.71
27.47
26.93
20.43
11.28
3.90
1.14
2.74
5.43
4.87
-1.69
-13.64
-27.00
-36.34
-37.56
-29.93
-16.36
-1.78
9.50
15.72
18.10
19.28
21.10
23.06
22.49
16.32
3.41
-13.93
-30.40
-40.04
-39.16
-28.37
-12.35
2.46
11.06
12.37
9.43
7.25
9.72
17.20
26.26
31.71
29.49
19.15
4.04
-10.40
-19.58
-21.93
-19.31
-15.38
-13.17
-13.07
-12.61
-8.27
1.97
16.75
31.32
39.65
37.52
24.83
5.92
-12.58
-24.95
-28.95
-26.50
-21.94
-19.26
-19.69
-21.17
-19.93
-13.13
-0.87
13.58
25.41
30.87
29.22
22.81
15.54
10.30
7.37
4.42
-1.70
-12.52
-26.29
-38.22
-42.61
-35.85
-18.53
4.47
25.94
39.58
42.56
36.38
25.37
14.10
4.97
-2.39
-10.00
-19.15
-28.74
-35.19
-34.33
-24.07
-6.21
13.88
29.53
35.92
32.38
22.46
11.80
4.98
3.26
4.23
3.60
-1.97
-12.64
-25.05
-34.01
-35.33
-28.10
-15.29
-2.11
6.72
9.52
8.35
7.40
10.14
16.95
24.64
28.17
23.69
10.97
-6.00
-21.00
-28.63
-27.01
-18.49
-8.02
-0.31
2.75
2.76
3.43
7.77
15.88
24.40
28.20
23.24
9.26
-9.63
-26.54
-35.14
-32.69
-21.23
-6.20
6.52
13.59
15.50
15.39
16.39
19.12
21.00
17.85
6.93
-10.68
-29.57
-42.37
-43.36
-31.49
-11.00
10.61
26.18
31.97
28.84
20.92
12.71
6.65
2.14
-3.21
-11.32
-21.59
-30.58
-33.62
-27.50
-12.61
6.67
23.79
32.87
31.48
21.62
8.49
-2.33
-7.64
-7.91
-6.39
-6.59
-9.87
-14.32
-15.99
-11.47
-0.33
14.08
26.03
30.23
24.57
11.23
-4.42
-16.59
-21.80
-20.24
-14.97
-9.74
-6.59
-4.77
-1.65
5.14
15.51
26.22
32.10
28.76
15.21
-4.91
-24.76
-37.30
-38.62
-29.58
-14.99
-0.78
9.11
14.41
17.81
22.35
28.82
34.66
35.20
26.54
8.38
-14.91
-35.82
-47.10
-45.12
-31.51
-12.10
6.07
18.03
22.80
22.83
21.65
21.20
20.47
16.32
6.01
-10.32
-28.54
-42.11
-45.18
-35.77
-16.95
4.52
21.36
29.10
27.73
20.91
13.24
7.67
4.05
-0.00
-6.77
-16.28
-25.50
-29.75
-25.39
-12.23
5.78
22.02
30.10
26.90
14.15
-2.42
-15.74
-20.68
-16.20
-5.42
6.39
14.61
17.44
16.01
12.92
10.00
6.95
1.80
-7.27
-19.73
-31.90
-38.20
-34.07
-18.73
3.72
25.80
39.85
41.40
31.13
14.20
-2.48
-13.54
-17.33
-15.91
-12.97
-11.31
-11.01
-9.79
-5.04
3.77
14.05
20.93
19.90
9.61
-6.79
-22.70
-31.15
-28.14
-14.53
4.50
22.03
32.54
34.01
28.07
18.35
8.18
-0.94
-9.39
-17.97
-26.26
-31.85
-31.22
-21.90
-4.62
15.98
32.72
38.85
31.27
12.36
-10.65
-28.82
-35.32
-28.41
-11.84
7.31
22.08
28.58
27.00
20.38
12.19
4.35
-3.21
-11.34
-19.83
-26.42
-27.56
-20.65
-6.30
10.93
24.05
26.84
17.18
-1.43
-21.01
-32.71
-30.94
-16.00
6.15
26.72
38.14
37.20
25.90
9.79
-5.07
-14.76
-18.52
-17.83
-14.62
-9.71
-2.76
6.48
16.64
24.22
24.67
14.85
-4.57
-28.27
-47.72
-54.80
-45.52
-22.16
7.37
32.83
45.86
43.35
28.38
8.38
-8.49
-16.74
-15.36
-7.28
2.82
11.04
15.69
17.11
16.31
13.64
8.48
0.17
-10.59
-20.86
-26.26
-23.15
-11.11
6.01
21.07
26.82
19.51
1.18
-20.70
-36.49
-38.85
-26.19
-3.47
20.19
35.66
37.84
27.53
10.32
-6.60
-17.92
-22.05
-20.70
-16.74
-11.88
-5.91
2.34
12.87
23.14
28.39
23.97
8.34
-15.02
-38.19
-52.08
-50.65
-33.88
-7.88
17.88
34.88
39.01
31.80
18.68
5.78
-3.00
-7.15
-8.51
-9.09
-9.23
-7.34
-1.48
8.52
19.82
27.20
25.52
12.73
-8.23
-30.02
-43.83
-43.49
-28.36
-3.67
21.80
39.61
45.05
38.56
24.62
8.98
-3.94
-12.45
-17.08
-18.99
-18.49
-14.72
-6.72
4.90
17.15
25.17
24.42
13.23
-5.62
-25.32
-37.81
-37.36
-23.34
-0.72
22.03
36.62
38.36
27.86
10.30
-7.32
-19.28
-23.23
-20.31
-13.57
-5.81
1.71
9.15
16.65
22.91
25.00
19.70
5.83
-13.79
-32.59
-42.68
-38.76
-21.14
3.77
25.96
36.39
31.10
13.11
-9.21
-26.23
-31.46
-24.15
-8.77
7.89
20.28
26.28
27.01
24.77
20.79
14.40
4.09
-10.36
-26.22
-38.11
-40.42
-30.57
-11.07
10.91
26.44
28.91
17.12
-3.96
-25.54
-38.97
-39.53
-28.07
-9.98
7.95
20.68
26.79
27.93
26.68
24.27
19.79
11.23
-2.21
-18.27
-31.55
-35.82
-27.37
-7.58
16.81
36.27
42.67
33.02
11.16
-13.98
-32.40
-37.45
-28.49
-10.51
8.77
22.64
28.09
26.03
19.56
11.55
3.27
-5.32
-14.04
-21.19
-23.62
-18.50
-5.67
11.09
24.90
28.75
19.11
-1.78
-26.04
-43.45
-46.02
-31.85
-6.23
20.55
37.84
39.44
26.30
5.81
-11.98
-19.14
-13.37
1.45
17.65
27.74
27.89
19.11
6.05
-5.84
-12.94
-14.71
-13.04
-10.54
-8.78
-7.86
-7.06
-6.08
-5.68
-7.24
-11.45
-17.18
-21.33
-20.36
-12.57
0.27
13.19
20.26
17.91
7.26
-5.97
-14.21
-12.17
0.16
17.08
30.10
32.37
22.43
5.18
-10.72
-17.35
-11.79
2.49
17.50
25.09
21.18
7.87
-7.91
-18.29
-18.62
-9.80
2.55
11.38
12.07
4.96
-5.33
-12.65
-12.93
-6.23
3.54
11.18
13.16
9.48
3.27
-1.38
-1.85
1.62
6.51
9.67
9.29
5.72
0.98
-2.66
-4.08
-3.71
-3.02
-3.22
-4.58
-6.21
-6.90
-6.12
-4.54
-3.63
-4.54
-7.15
-9.80
-10.19
-6.94
-0.78
5.56
8.80
7.07
1.31
-5.12
-8.26
-6.08
0.24
6.76
9.14
5.25
-3.40
-12.39
-16.93
-14.70
-7.26
0.93
5.11
3.10
-3.45
-10.19
-12.68
-9.19
-1.59
5.79
8.90
6.37
0.14
-5.98
-8.69
-7.11
-3.05
0.47
1.26
-0.81
-3.97
-6.08
-5.99
-4.07
-1.65
0.24
1.59
3.20
5.64
8.43
10.17
9.58
6.72
3.31
1.75
3.25
6.70
8.94
7.02
0.54
-7.49
-11.99
-9.15
0.76
12.88
20.43
18.98
9.50
-1.83
-7.36
-2.90
9.27
21.52
25.55
17.82
2.11
-12.67
-17.96
-11.13
2.78
14.26
15.45
5.50
-8.90
-17.82
-14.72
-0.91
15.16
23.30
18.24
3.06
-12.90
-20.23
-15.53
-3.42
6.79
7.49
-2.34
-16.55
-26.17
-25.21
-14.34
0.03
10.10
11.41
4.88
-4.57
-11.57
-13.37
-10.57
-5.76
-1.45
1.06
1.66
0.94
-0.22
-0.62
1.14
5.76
12.18
17.32
17.51
11.15
0.52
-8.78
-11.10
-4.59
6.97
16.30
17.35
9.57
-1.43
-7.69
-4.55
5.91
16.03
17.77
8.24
-8.21
-22.79
-28.00
-22.27
-10.48
-0.31
2.82
-1.30
-8.34
-12.87
-12.04
-6.83
-0.61
3.49
4.40
3.12
1.47
0.73
1.29
2.94
5.43
8.21
10.06
9.30
4.88
-2.25
-8.78
-10.71
-5.98
3.58
12.83
16.49
12.71
4.47
-2.42
-3.45
1.39
7.61
9.51
4.22
-6.27
-16.49
-21.14
-18.27
-10.02
-0.86
5.15
6.30
3.67
-0.04
-1.90
-0.19
4.83
10.77
13.96
11.46
3.18
-7.36
-14.49
-13.82
-5.34
6.12
13.67
12.81
4.37
-6.07
-11.95
-10.07
-2.35
5.82
9.29
6.19
-1.43
-9.33
-13.75
-13.12
-8.30
-1.74
3.67
5.83
4.38
1.09
-0.85
1.34
7.93
15.78
19.84
16.39
5.95
-6.48
-14.35
-13.90
-6.69
1.37
4.14
-0.73
-10.40
-18.95
-21.36
-16.45
-6.97
2.60
8.70
10.17
8.11
4.80
2.50
2.81
6.01
10.66
13.84
12.49
5.57
-4.45
-12.39
-13.29
-5.95
5.62
14.31
14.54
6.03
-5.85
-13.62
-12.77
-4.57
5.03
9.63
6.40
-2.45
-11.55
-15.95
-13.77
-6.69
1.46
6.83
7.25
3.13
-2.71
-6.24
-4.11
4.21
15.48
23.94
24.56
16.38
3.44
-7.47
-11.20
-7.53
-1.10
1.97
-1.62
-10.18
-18.34
-20.73
-15.35
-4.48
6.93
14.10
14.66
9.51
2.08
-3.44
-4.06
0.42
7.10
11.43
9.85
2.28
-7.43
-13.68
-12.78
-5.37
3.86
9.17
7.43
-0.08
-8.70
-13.39
-11.65
-4.62
3.85
9.47
9.59
4.58
-2.39
-6.95
-5.88
0.86
9.79
15.72
14.80
7.06
-3.39
-10.93
-11.88
-6.71
0.43
4.45
2.56
-4.21
-11.65
-14.96
-11.43
-1.95
9.42
17.51
18.76
13.14
4.12
-3.36
-5.84
-3.25
1.14
2.93
-0.52
-8.18
-15.90
-18.78
-14.13
-3.17
9.43
18.04
19.06
12.78
3.10
-4.78
-7.40
-4.74
-0.07
2.22
-0.48
-7.31
-14.26
-16.57
-11.61
-0.65
11.56
19.39
19.38
12.09
1.79
-6.17
-8.33
-4.85
0.92
4.49
3.07
-2.74
-9.25
-11.89
-8.05
1.11
11.03
16.31
13.86
4.71
-6.56
-14.42
-15.50
-10.04
-1.64
4.97
6.59
3.33
-1.59
-3.86
-0.93
6.20
13.40
15.89
11.10
0.40
-11.60
-19.44
-19.63
-12.35
-1.26
8.43
12.69
10.90
5.91
2.06
2.21
5.91
9.72
9.54
3.32
-7.44
-18.24
-23.83
-21.04
-10.56
3.12
13.99
17.64
13.66
5.52
-1.80
-4.74
-3.05
0.57
2.40
0.17
-5.39
-10.76
-11.64
-5.81
5.11
16.15
21.67
18.48
7.72
-5.82
-16.12
-19.01
-14.07
-4.72
3.76
7.19
4.91
-0.07
-3.29
-1.80
3.96
10.48
13.41
10.18
1.67
-8.05
-13.81
-12.45
-4.69
4.99
10.95
9.63
1.65
-8.68
-15.69
-15.49
-8.03
2.93
11.88
14.56
10.41
2.60
-4.19
-6.54
-4.23
0.01
2.43
0.65
-4.79
-10.52
-12.43
-8.28
0.79
10.54
16.05
14.48
6.76
-2.86
-9.07
-8.50
-1.65
7.42
13.23
12.03
3.90
-7.32
-16.14
-18.31
-13.11
-3.60
5.20
8.95
6.53
0.45
-4.85
-5.60
-0.94
6.68
12.99
14.51
10.57
3.70
-2.01
-3.50
-0.56
4.08
6.47
3.95
-3.07
-11.21
-16.01
-14.65
-7.59
1.58
8.12
8.86
4.00
-2.94
-7.32
-6.17
-0.03
7.35
11.25
8.68
0.33
-9.68
-16.01
-15.17
-7.48
3.02
10.93
12.41
7.24
-1.05
-7.28
-7.53
-1.50
7.30
13.62
13.54
6.60
-3.89
-12.67
-15.38
-11.06
-2.66
4.75
6.94
2.95
-4.52
-10.70
-11.51
-5.89
3.52
11.86
14.87
11.39
3.72
-3.80
-7.24
-5.24
0.39
5.71
7.19
3.91
-2.01
-6.80
-7.34
-2.93
4.22
10.05
10.96
6.09
-2.18
-9.59
-12.47
-9.73
-3.29
2.99
5.58
3.47
-1.26
-4.99
-4.98
-1.17
3.79
6.17
3.52
-3.61
-11.55
-15.45
-12.24
-2.58
9.28
17.71
18.62
11.63
0.41
-9.29
-12.63
-8.26
0.98
9.77
13.33
10.10
2.62
-4.24
-6.36
-2.84
3.66
8.76
9.08
4.20
-2.93
-7.71
-6.71
0.09
8.95
14.43
12.61
3.38
-9.39
-19.99
-23.91
-20.11
-11.43
-3.05
0.51
-2.11
-8.28
-13.00
-11.96
-4.32
6.57
15.19
16.98
11.14
1.04
-7.81
-10.77
-6.54
2.29
10.91
15.06
13.55
8.74
4.74
4.56
8.26
12.87
14.40
10.14
0.51
-10.89
-18.93
-19.71
-12.94
-2.29
6.40
8.56
3.50
-5.24
-11.91
-11.88
-4.34
7.28
17.12
20.17
15.11
4.90
-5.02
-9.71
-7.46
-0.55
6.26
8.61
5.12
-1.89
-7.94
-9.12
-4.39
3.59
9.94
10.36
3.79
-6.97
-16.78
-20.96
-17.67
-8.83
0.91
6.83
6.86
2.41
-2.78
-5.10
-3.17
1.47
5.30
5.01
-0.15
-7.61
-12.96
-12.63
-5.93
4.42
13.72
17.73
15.07
8.12
1.42
-1.16
1.27
6.28
9.65
7.87
0.51
-9.17
-15.97
-15.96
-8.81
1.94
10.87
13.45
8.54
-0.82
-9.22
-12.13
-8.49
-1.17
5.03
6.17
1.51
-5.79
-10.60
-9.14
-1.50
8.21
14.26
12.58
3.10
-9.70
-19.15
-20.20
-12.24
0.58
11.85
16.31
12.49
3.51
-4.99
-8.27
-5.10
1.84
7.84
9.13
5.02
-1.55
-5.99
-5.00
1.28
9.23
13.91
11.85
3.22
-7.93
-15.85
-16.32
-8.95
2.61
12.75
16.92
13.94
6.62
-0.23
-2.66
0.07
5.32
8.84
7.22
0.21
-8.97
-15.54
-15.91
-9.75
-0.13
8.21
11.37
8.45
2.01
-3.67
-5.20
-1.94
3.71
7.73
6.81
0.47
-8.49
-15.59
-17.10
-12.02
-2.63
6.72
11.83
10.95
5.54
-0.83
-4.50
-3.81
0.11
4.07
4.88
1.32
-4.93
-10.23
-11.00
-5.88
3.26
12.08
16.07
12.97
4.14
-5.97
-12.24
-11.69
-5.14
3.37
8.86
8.30
2.53
-4.38
-7.66
-4.98
2.06
8.72
9.93
3.58
-7.77
-18.18
-21.78
-16.17
-3.84
9.09
16.22
14.56
6.08
-3.92
-9.98
-9.52
-4.08
1.83
3.86
0.57
-5.89
-11.29
-11.82
-6.46
2.21
9.40
10.99
5.68
-4.18
-13.58
-17.49
-13.57
-3.58
7.66
14.80
14.55
7.67
-1.45
-7.48
-7.31
-1.67
5.55
9.51
7.59
1.28
-4.96
-6.71
-2.34
5.85
12.76
13.62
7.11
-3.66
-13.12
-16.18
-11.05
-0.27
10.59
16.21
14.23
6.13
-3.53
-9.62
-9.23
-3.21
4.61
9.72
9.23
3.74
-3.03
-6.57
-4.58
1.69
8.12
10.00
5.11
-4.34
-13.08
-15.82
-10.33
1.15
12.85
18.78
16.18
6.85
-4.06
-10.78
-10.05
-2.76
6.78
13.54
14.34
9.47
2.34
-2.63
-2.79
1.22
6.03
7.60
3.77
-3.99
-11.33
-13.70
-9.19
0.13
9.18
12.65
8.20
-2.03
-12.75
-18.42
-16.13
-7.19
3.65
11.03
11.76
6.27
-1.82
-7.82
-8.65
-4.65
0.89
3.84
1.54
-5.30
-12.72
-15.85
-12.05
-2.49
8.22
14.43
12.66
3.94
-6.93
-14.22
-14.42
-8.08
0.60
6.41
6.43
1.51
-4.52
-7.16
-4.02
3.65
11.57
15.08
11.67
2.37
-8.46
-15.42
-15.13
-7.97
2.18
10.06
11.84
7.46
0.48
-4.27
-3.71
1.68
8.09
10.70
6.89
-2.01
-11.49
-16.35
-13.61
-4.24
7.33
15.74
17.53
12.68
4.60
-1.93
-3.53
-0.11
5.26
8.26
5.89
-1.40
-9.74
-14.14
-11.48
-2.41
8.79
16.51
17.02
10.49
0.69
-7.27
-9.78
-6.63
-0.92
3.03
2.26
-3.18
-10.19
-14.38
-12.73
-5.33
4.44
11.79
13.16
8.35
0.65
-5.13
-5.56
-0.64
6.14
10.00
7.76
-0.21
-10.08
-16.80
-16.99
-10.90
-2.13
4.33
4.95
-0.20
-7.57
-12.25
-10.72
-2.94
7.37
15.00
16.17
10.56
1.53
-5.84
-7.82
-4.14
2.04
6.15
4.83
-1.82
-10.22
-15.48
-14.26
-6.60
3.90
12.09
14.27
10.27
3.28
-1.95
-2.00
3.22
10.53
15.54
15.14
9.30
1.11
-5.14
-6.46
-2.80
3.00
6.77
5.42
-1.12
-9.85
-16.35
-17.21
-12.03
-3.76
2.96
4.54
0.36
-6.85
-12.56
-13.19
-8.18
-0.11
6.89
9.37
6.70
1.37
-2.77
-2.73
1.85
8.38
12.77
12.07
6.12
-2.25
-8.73
-10.05
-5.94
0.68
5.50
5.25
-0.43
-8.56
-14.57
-14.98
-9.39
-0.70
6.41
8.12
3.78
-3.76
-9.74
-10.32
-4.77
4.05
11.39
13.39
9.43
2.32
-3.35
-4.02
0.81
8.41
14.48
15.75
11.76
5.12
-0.10
-0.79
3.47
10.12
15.09
15.14
9.82
1.75
-4.93
-6.86
-3.52
2.37
6.57
5.73
-0.74
-10.02
-17.53
-19.65
-15.71
-8.29
-1.94
-0.58
-4.92
-12.28
-18.02
-18.11
-11.54
-1.14
8.23
12.41
10.08
3.76
-1.80
-2.62
2.20
10.13
16.58
17.63
12.66
4.51
-2.24
-3.94
0.02
6.61
11.14
10.16
3.09
-6.92
-14.89
-16.94
-12.47
-4.31
2.61
4.10
-0.57
-8.62
-15.31
-16.57
-11.45
-2.75
4.85
7.46
4.01
-2.79
-8.26
-8.63
-3.08
5.78
13.28
15.55
11.83
4.61
-1.69
-3.42
0.18
6.46
11.13
10.60
4.20
-5.14
-12.63
-14.36
-9.50
-0.84
6.66
8.89
4.84
-2.83
-9.33
-10.56
-5.52
3.17
10.88
13.56
10.20
3.42
-2.35
-3.52
0.61
7.28
11.97
11.18
4.33
-5.76
-14.28
-17.28
-13.79
-6.32
0.54
2.63
-1.11
-8.16
-13.92
-14.33
-8.28
1.55
10.39
14.07
11.30
4.61
-1.27
-2.36
2.31
10.08
16.17
16.55
10.41
0.53
-8.24
-11.80
-9.14
-2.82
2.63
3.37
-1.44
-9.01
-14.67
-14.58
-8.09
1.81
10.17
12.93
9.13
1.50
-5.29
-7.37
-3.80
2.82
7.94
7.87
1.99
-6.83
-13.69
-14.69
-9.08
0.29
8.55
11.53
8.20
1.13
-5.04
-6.28
-1.67
6.09
12.42
13.40
8.11
-0.65
-8.21
-10.70
-7.07
0.12
6.25
7.56
3.11
-4.49
-10.49
-11.06
-5.44
3.65
11.44
13.77
9.69
1.76
-5.43
-7.74
-4.13
2.77
8.48
9.06
3.47
-5.47
-13.03
-15.20
-10.69
-1.96
6.23
9.88
7.63
1.65
-3.57
-4.31
0.26
7.76
13.64
13.93
7.93
-1.76
-10.37
-13.61
-10.39
-3.21
3.49
5.52
1.62
-5.65
-11.87
-13.02
-7.76
1.34
9.62
13.00
9.82
2.29
-5.13
-8.52
-6.40
-0.63
4.49
5.35
0.98
-6.34
-12.00
-12.14
-5.94
4.06
13.02
16.48
13.23
5.52
-2.13
-5.48
-3.34
1.96
6.23
5.64
-0.58
-9.41
-16.13
-16.62
-9.93
0.88
10.70
15.21
12.85
6.10
-0.42
-2.90
-0.16
5.49
9.60
8.73
2.20
-7.32
-15.09
-17.29
-13.15
-5.03
2.57
5.67
3.41
-2.06
-6.55
-6.38
-0.90
7.28
13.80
14.71
9.08
-0.29
-8.75
-11.94
-8.35
-0.45
7.17
10.28
7.18
0.13
-6.35
-8.30
-4.23
3.61
10.54
12.53
8.21
-0.29
-8.29
-11.70
-9.26
-2.87
3.10
4.64
0.78
-6.29
-12.09
-12.50
-6.48
3.45
12.69
16.71
13.95
6.65
-0.87
-4.40
-2.37
2.93
7.26
6.88
0.60
-8.83
-16.54
-18.48
-13.31
-3.51
5.85
10.47
8.80
2.83
-2.88
-4.37
-0.54
6.57
12.72
14.03
9.69
1.95
-4.95
-7.25
-4.21
1.61
6.04
5.31
-1.33
-10.93
-18.82
-20.77
-15.37
-5.30
4.66
10.12
9.14
3.78
-1.53
-2.90
1.14
8.49
14.61
15.63
10.32
0.91
-7.92
-12.02
-10.04
-3.93
2.00
3.74
0.17
-6.55
-12.02
-12.22
-6.05
4.02
13.29
17.28
14.42
6.88
-0.86
-4.56
-2.72
2.59
7.14
7.20
1.86
-6.28
-12.56
-13.18
-7.44
1.90
9.90
12.36
8.13
-0.37
-8.48
-12.03
-9.73
-3.66
1.98
3.20
-1.17
-9.02
-15.99
-18.02
-13.75
-5.30
2.94
6.76
4.64
-1.39
-7.01
-8.06
-3.23
5.26
12.95
15.75
12.40
5.23
-1.24
-3.06
0.85
8.14
14.39
15.85
11.66
4.27
-2.01
-3.60
0.18
6.78
11.88
11.87
6.07
-2.85
-10.32
-12.50
-8.37
-0.41
6.71
8.87
4.71
-3.47
-11.03
-13.83
-10.52
-3.33
3.07
4.64
0.22
-7.63
-13.96
-14.74
-9.07
0.29
8.25
10.68
6.74
-0.78
-6.78
-7.27
-1.62
7.34
14.57
16.04
11.06
2.35
-5.13
-7.45
-3.94
2.78
7.94
7.72
1.58
-7.75
-15.27
-17.03
-12.37
-4.03
3.14
5.15
1.37
-5.51
-10.63
-10.25
-4.00
5.17
12.34
13.77
9.08
1.16
-5.15
-6.34
-2.23
4.19
8.20
6.50
-0.86
-10.49
-17.29
-17.58
-11.14
-1.13
7.33
10.29
7.12
0.55
-4.66
-4.87
0.47
8.66
15.05
16.07
11.11
2.95
-3.76
-5.40
-1.28
5.88
11.38
11.51
5.53
-3.71
-11.36
-13.46
-9.09
-0.93
6.27
8.67
5.41
-0.76
-5.38
-4.99
0.68
8.43
13.46
12.17
4.42
-6.41
-15.07
-17.47
-12.99
-4.48
3.12
5.87
2.86
-3.34
-8.14
-8.13
-2.80
5.04
10.75
10.96
5.17
-3.49
-10.29
-11.80
-7.49
-0.43
4.83
5.02
-0.11
-7.11
-11.49
-9.94
-2.53
7.08
14.23
15.28
10.29
2.49
-3.55
-4.42
-0.28
5.82
9.47
7.60
0.58
-8.32
-14.24
-13.92
-7.32
2.38
10.30
12.92
9.61
3.12
-2.25
-3.47
-0.21
4.68
7.16
4.63
-2.58
-10.76
-15.42
-13.53
-5.51
4.67
12.11
13.14
7.94
-0.05
-5.89
-5.98
-0.44
7.49
12.84
12.10
5.05
-5.13
-13.49
-16.39
-13.12
-6.32
-0.28
1.86
-0.40
-4.32
-6.13
-3.38
3.38
10.52
13.68
10.18
1.04
-9.40
-15.77
-14.52
-6.05
5.64
15.05
18.04
13.98
5.74
-2.07
-5.83
-4.79
-1.27
0.90
-1.04
-7.07
-14.15
-18.07
-15.99
-8.28
1.50
8.62
9.83
5.32
-1.45
-5.85
-4.93
0.86
7.81
11.37
8.85
1.18
-7.52
-12.29
-10.10
-1.72
8.77
16.14
16.78
10.65
1.09
-7.03
-10.10
-7.56
-1.93
2.81
3.78
0.80
-3.50
-5.61
-3.35
2.56
8.73
11.11
7.51
-0.79
-9.64
-14.11
-11.51
-2.78
7.70
14.71
15.02
9.13
0.99
-4.47
-4.14
1.40
8.38
12.00
9.18
0.43
-10.40
-18.24
-19.55
-14.10
-5.11
2.69
5.57
2.91
-2.76
-7.35
-7.75
-3.79
1.91
5.40
4.24
-1.15
-7.31
-10.02
-6.98
0.95
9.52
14.06
11.69
3.51
-6.20
-12.30
-11.43
-4.38
5.12
11.87
12.70
7.76
0.44
-4.74
-5.22
-1.20
3.95
6.48
4.25
-1.57
-7.23
-8.92
-4.71
3.46
11.37
14.36
10.38
1.15
-8.83
-14.34
-12.97
-5.74
3.01
8.49
8.01
2.44
-4.12
-7.33
-4.47
3.26
12.01
17.02
15.52
8.30
-1.00
-7.46
-8.35
-3.88
2.38
6.00
4.20
-2.54
-10.37
-14.85
-12.80
-4.92
5.08
12.21
13.06
7.84
-0.25
-6.39
-7.70
-4.13
1.13
4.02
2.07
-4.18
-11.00
-14.35
-11.48
-3.36
6.44
13.31
14.25
9.66
2.53
-2.79
-3.84
-0.68
3.71
5.68
3.11
-3.34
-10.17
-13.68
-11.37
-4.29
4.18
9.74
9.83
5.11
-1.32
-5.23
-4.53
0.21
5.52
7.51
4.11
-3.66
-11.73
-15.92
-13.46
-5.49
4.29
11.13
12.09
7.73
1.29
-2.75
-1.99
3.08
8.92
11.31
7.97
-0.22
-9.06
-14.05
-12.18
-4.42
5.34
12.16
12.83
7.86
0.63
-3.99
-3.25
2.53
9.75
13.78
11.78
4.02
-5.67
-12.73
-13.74
-8.81
-1.06
5.09
6.32
2.63
-3.33
-7.18
-6.20
-0.37
7.24
12.17
11.43
4.72
-4.66
-12.39
-14.76
-11.26
-4.51
1.47
3.18
0.31
-4.95
-8.45
-7.43
-1.66
6.06
11.46
11.59
6.02
-2.15
-8.88
-10.79
-7.64
-2.06
2.09
1.77
-2.79
-8.93
-12.27
-10.18
-2.71
6.80
13.66
14.58
9.15
0.56
-6.85
-9.38
-6.68
-1.30
2.78
2.63
-1.55
-6.98
-9.46
-6.73
0.70
9.15
14.28
13.37
7.06
-0.91
-6.11
-5.66
-0.32
6.46
10.16
8.21
1.39
-6.49
-10.75
-8.68
-0.93
8.47
14.60
14.10
7.24
-2.37
-9.79
-11.50
-7.44
-0.82
3.65
2.78
-3.34
-11.17
-15.87
-14.13
-6.14
4.36
12.34
14.13
9.69
2.34
-3.10
-3.39
1.42
7.98
11.72
9.69
2.26
-6.82
-12.61
-11.79
-4.53
5.57
13.43
15.28
10.68
2.64
-4.23
-6.41
-3.39
2.10
5.78
4.45
-2.14
-10.91
-17.37
-17.90
-12.01
-2.56
5.90
9.56
7.65
2.56
-1.47
-1.30
3.58
10.30
14.63
13.20
5.72
-4.83
-13.77
-17.16
-14.15
-6.96
0.05
3.29
1.59
-2.92
-6.53
-6.03
-0.87
6.46
12.07
12.74
8.20
1.15
-4.09
-4.47
0.28
7.13
11.75
10.90
4.43
-4.62
-11.67
-13.17
-8.67
-0.71
6.27
8.88
6.29
0.91
-3.54
-4.02
-0.38
4.73
7.43
4.97
-2.29
-10.95
-16.37
-15.47
-8.20
1.78
9.77
12.01
8.26
1.38
-4.14
-5.15
-1.58
3.69
6.36
3.78
-3.70
-12.42
-17.76
-16.45
-8.94
1.15
8.74
10.28
5.64
-1.79
-7.17
-7.09
-1.27
6.95
13.19
14.11
9.81
3.42
-0.60
0.53
6.45
13.67
17.61
15.30
7.10
-3.37
-11.34
-13.38
-9.55
-2.98
1.56
0.81
-5.41
-13.75
-19.56
-19.32
-12.94
-3.83
3.13
4.23
-0.62
-7.99
-12.72
-11.26
-3.32
7.33
15.55
17.33
12.42
4.15
-2.25
-2.98
2.33
10.43
16.28
16.05
9.18
-1.13
-9.90
-12.90
-9.24
-1.51
5.43
7.52
3.57
-3.82
-10.05
-11.11
-6.08
2.26
9.11
10.47
5.64
-2.28
-8.25
-8.37
-2.20
6.80
13.41
13.66
7.16
-2.70
-10.75
-13.07
-9.09
-1.97
3.59
3.88
-1.47
-9.41
-15.19
-15.27
-9.25
-0.23
7.12
9.23
5.82
-0.05
-3.83
-2.30
4.39
12.77
18.06
16.98
9.79
0.13
-7.07
-8.44
-4.09
2.61
6.93
5.59
-1.52
-11.13
-18.49
-19.87
-14.59
-5.27
3.65
8.33
7.63
3.52
-0.18
-0.27
3.95
10.16
14.51
13.90
8.02
-0.43
-7.19
-9.03
-5.63
0.25
4.38
3.68
-1.99
-9.56
-14.64
-13.96
-7.34
2.12
9.81
12.02
8.15
0.91
-5.16
-6.45
-2.15
5.07
10.93
11.85
7.28
-0.10
-5.78
-6.33
-1.36
6.11
11.30
10.42
2.95
-8.00
-17.30
-20.57
-16.70
-8.05
0.63
5.23
4.30
-0.09
-4.02
-3.90
0.98
8.37
14.06
14.76
9.85
2.02
-4.44
-6.15
-2.64
3.28
7.22
5.84
-1.11
-10.50
-17.49
-18.25
-12.19
-2.25
6.61
10.25
7.53
0.90
-5.14
-6.74
-2.95
3.77
9.04
9.22
3.65
-4.82
-11.56
-12.74
-7.76
0.56
7.46
9.20
5.18
-1.54
-6.29
-5.42
1.27
10.53
17.42
18.29
12.83
4.27
-2.68
-4.54
-1.13
4.45
7.80
5.86
-1.13
-9.77
-15.41
-14.92
-8.38
0.69
7.70
9.22
5.17
-1.35
-5.83
-5.17
0.74
8.65
14.21
14.12
8.34
-0.13
-6.76
-8.35
-4.55
1.60
5.86
4.80
-1.77
-10.91
-17.83
-18.92
-13.40
-4.34
3.64
6.36
3.02
-3.74
-9.07
-9.17
-3.18
5.80
13.02
14.43
9.57
1.47
-4.79
-5.51
-0.18
7.79
13.64
13.49
7.09
-2.48
-10.27
-12.65
-8.90
-2.02
3.59
4.15
-0.94
-9.13
-15.79
-17.23
-12.25
-3.38
5.11
9.08
7.28
1.69
-3.45
-4.49
-0.22
6.93
12.78
13.49
8.33
-0.14
-7.28
-9.38
-5.70
0.71
5.26
4.17
-2.80
-12.29
-19.14
-19.52
-13.01
-3.11
5.13
7.79
4.49
-1.60
-5.76
-4.70
1.67
9.98
15.71
15.68
10.01
1.98
-3.91
-4.63
-0.24
6.07
9.98
8.54
1.99
-6.23
-11.52
-10.66
-3.80
5.57
12.63
14.01
9.60
2.77
-1.98
-1.48
3.93
10.89
14.79
12.79
5.28
-4.05
-10.61
-11.26
-6.38
0.76
5.54
4.99
-0.85
-8.64
-13.96
-13.51
-7.29
1.69
8.84
10.78
7.03
0.36
-5.05
-6.07
-2.58
2.59
5.24
2.59
-4.97
-13.88
-19.40
-18.29
-10.76
-0.35
8.01
10.74
7.58
1.59
-2.80
-2.35
2.98
10.15
14.75
13.61
6.69
-2.84
-10.51
-12.88
-9.64
-3.47
1.43
1.99
-2.02
-7.74
-11.15
-9.30
-2.33
6.69
13.29
14.34
9.77
2.70
-2.44
-2.56
2.27
8.82
12.60
10.50
2.84
-6.91
-13.78
-14.46
-8.79
-0.20
6.68
8.25
4.34
-2.04
-6.40
-5.70
0.13
7.77
12.81
12.04
5.42
-3.75
-11.06
-13.09
-9.70
-3.61
0.95
1.15
-3.12
-8.79
-11.76
-9.11
-1.18
8.73
15.94
17.15
12.26
4.34
-2.03
-3.65
-0.22
5.18
8.48
6.58
-0.23
-8.76
-14.45
-14.25
-8.15
0.40
6.65
7.19
1.65
-6.61
-12.98
-13.70
-8.41
0.13
7.27
9.55
6.43
0.63
-3.53
-2.95
2.49
9.56
13.83
11.96
4.16
-6.04
-13.54
-14.52
-8.57
1.00
9.00
11.35
7.21
-0.36
-6.53
-7.40
-2.37
5.60
11.72
12.30
6.86
-1.61
-8.40
-9.97
-5.97
0.56
5.06
4.16
-2.22
-10.75
-16.62
-16.20
-9.22
1.12
9.91
13.26
10.50
4.39
-0.54
-0.88
3.85
10.70
15.22
14.02
6.90
-2.83
-10.43
-12.15
-7.68
0.02
6.18
7.16
2.51
-4.86
-10.24
-10.23
-4.29
4.32
11.04
12.08
7.01
-1.20
-8.01
-9.78
-6.15
0.23
4.77
4.24
-1.82
-10.39
-16.91
-17.84
-12.58
-4.03
3.53
6.31
3.77
-1.63
-5.68
-5.10
0.47
8.44
14.42
15.40
10.83
3.59
-2.18
-3.38
0.25
5.79
9.33
7.75
1.26
-7.15
-13.03
-13.18
-7.51
1.10
8.03
10.01
6.38
-0.16
-5.51
-6.51
-2.60
3.56
8.03
7.39
1.30
-7.57
-14.80
-16.68
-12.51
-4.77
1.94
3.92
0.24
-6.51
-11.69
-11.51
-5.06
4.74
13.20
16.26
12.93
5.90
-0.37
-2.07
1.45
7.55
11.76
10.59
3.71
-5.75
-12.70
-13.22
-6.67
3.78
12.96
16.47
13.11
5.51
-1.58
-4.13
-1.15
4.77
9.01
7.70
0.15
-10.67
-19.70
-22.58
-18.09
-8.75
0.56
5.46
4.45
-0.35
-4.64
-4.68
0.36
7.89
13.40
13.25
6.88
-2.68
-10.47
-12.47
-7.82
0.67
8.26
10.91
7.62
0.87
-4.94
-6.12
-1.82
5.32
10.86
10.96
4.82
-4.81
-13.10
-15.78
-11.62
-2.81
6.05
10.80
9.90
5.21
0.81
0.29
4.70
11.62
16.76
16.32
9.37
-1.50
-11.48
-16.18
-14.00
-6.92
0.65
4.46
2.67
-2.94
-8.39
-9.84
-5.85
1.57
8.33
10.34
6.27
-1.84
-9.67
-12.95
-10.23
-3.46
2.76
4.28
-0.38
-8.92
-16.37
-18.12
-12.24
-1.03
10.57
17.45
17.20
11.38
4.29
0.56
2.14
7.46
12.39
12.84
7.27
-2.14
-10.76
-14.13
-10.57
-2.13
6.57
10.88
8.84
2.16
-4.90
-8.07
-5.68
0.47
5.99
6.77
1.28
-8.16
-16.61
-19.19
-13.83
-2.59
9.49
17.00
17.21
11.36
3.85
-0.53
0.70
6.25
12.09
13.92
9.68
1.03
-7.87
-12.59
-11.23
-5.40
0.80
2.91
-0.94
-9.18
-17.56
-21.54
-18.95
-11.11
-2.22
3.25
2.96
-1.90
-7.31
-8.92
-4.63
4.08
12.88
17.04
14.17
5.64
-3.98
-9.74
-8.82
-2.38
5.35
9.57
7.66
1.00
-6.23
-9.27
-5.89
2.24
10.63
14.31
11.11
2.76
-6.04
-10.28
-7.77
-0.08
7.96
11.43
8.02
-0.58
-9.38
-13.30
-9.75
-0.37
9.91
15.81
14.39
6.99
-1.83
-7.01
-5.74
0.59
7.79
10.84
7.20
-1.61
-11.21
-16.46
-14.93
-7.70
0.81
5.59
4.02
-2.90
-10.76
-14.56
-11.44
-2.35
8.29
15.44
15.86
10.21
2.56
-2.28
-1.27
4.71
11.82
15.16
11.80
2.73
-8.09
-15.52
-16.48
-11.45
-4.12
0.66
-0.06
-5.83
-12.90
-16.38
-13.34
-4.15
7.18
15.69
18.02
14.25
7.99
3.67
4.34
9.43
15.45
17.98
14.39
5.66
-4.37
-10.91
-11.17
-5.83
1.25
5.29
3.26
-4.22
-13.28
-18.97
-18.00
-10.82
-1.30
5.19
5.00
-1.73
-11.07
-17.37
-16.70
-8.99
1.62
9.39
10.21
3.97
-5.08
-11.20
-10.33
-2.65
7.68
14.96
15.28
9.02
0.35
-5.26
-4.36
2.54
11.26
16.57
15.27
8.04
-0.97
-6.62
-5.81
0.73
8.95
13.79
12.18
4.80
-4.33
-10.14
-9.48
-2.81
5.91
11.58
10.74
3.59
-6.09
-13.16
-14.03
-8.69
-0.62
5.14
4.94
-1.38
-10.43
-17.22
-18.09
-12.75
-4.43
2.09
3.31
-0.92
-7.32
-11.12
-8.92
-0.65
10.13
18.37
20.22
15.24
6.80
-0.24
-2.03
1.75
7.96
11.82
9.69
1.44
-9.59
-18.26
-20.59
-16.04
-7.50
0.19
3.36
1.33
-3.19
-5.88
-3.71
3.47
12.26
18.05
17.38
10.05
-0.38
-8.99
-11.76
-8.12
-1.04
4.82
5.65
1.08
-5.96
-10.83
-9.99
-3.36
5.90
12.80
13.72
8.47
0.15
-6.34
-7.64
-3.42
3.11
7.36
6.20
-0.39
-8.80
-14.14
-12.89
-5.02
5.65
13.88
15.49
9.96
0.87
-6.61
-8.15
-3.31
4.75
10.73
10.39
3.39
-6.99
-15.17
-16.87
-11.36
-1.76
6.56
9.51
6.26
-0.35
-5.34
-5.22
0.46
8.27
13.18
11.60
3.24
-8.03
-16.70
-18.39
-12.29
-1.80
7.80
11.88
9.27
2.79
-2.98
-3.92
0.58
7.77
13.01
12.59
6.34
-2.62
-9.35
-10.17
-4.93
3.11
8.79
8.37
1.65
-8.13
-15.62
-16.98
-11.55
-2.53
4.92
6.88
2.43
-5.32
-11.29
-11.41
-4.58
6.13
15.79
20.05
17.56
10.99
4.80
2.96
6.23
11.82
15.18
12.52
3.63
-7.86
-16.64
-18.31
-12.54
-2.85
4.96
6.16
-0.00
-10.41
-19.31
-21.89
-16.83
-6.79
2.97
8.02
7.02
2.19
-1.91
-1.73
3.43
10.76
15.69
14.75
7.62
-2.52
-10.62
-12.84
-8.59
-0.95
5.11
5.63
-0.04
-8.89
-15.87
-16.81
-10.82
-0.61
8.79
12.97
10.67
4.08
-2.25
-4.41
-1.38
4.51
8.71
7.56
0.58
-9.28
-16.69
-17.36
-10.33
1.43
12.28
17.26
14.69
6.81
-1.12
-4.40
-1.35
5.79
11.93
12.54
6.28
-4.22
-13.30
-15.90
-10.29
1.00
12.20
17.88
15.88
8.10
-0.27
-4.33
-2.19
4.07
9.42
9.30
2.52
-8.20
-17.21
-19.52
-13.68
-2.44
8.36
13.43
10.94
3.10
-4.92
-8.41
-5.98
-0.04
4.51
3.57
-3.32
-12.97
-19.98
-20.06
-12.78
-1.60
7.80
10.90
7.12
-0.25
-5.86
-5.51
1.12
10.66
17.81
18.43
12.22
2.55
-5.51
-7.94
-4.36
2.20
6.99
6.19
-0.60
-10.29
-18.12
-20.06
-15.24
-6.34
2.06
5.90
4.14
-0.67
-4.13
-2.60
4.51
14.04
20.85
20.72
12.91
0.83
-9.85
-14.34
-11.46
-4.10
2.48
3.88
-0.81
-8.52
-13.96
-12.84
-4.52
7.54
17.59
20.65
15.44
4.96
-5.36
-10.55
-9.06
-3.40
1.72
2.11
-3.14
-10.93
-16.21
-14.86
-6.23
6.08
16.34
19.76
15.14
5.63
-3.29
-7.07
-4.43
1.88
6.93
6.76
0.77
-7.79
-13.63
-12.76
-4.70
6.95
16.44
19.10
13.93
4.09
-4.94
-8.63
-6.07
-0.15
4.07
2.67
-4.59
-14.12
-20.44
-19.20
-10.11
3.12
14.62
19.36
15.98
7.42
-1.23
-5.25
-3.09
2.79
7.99
8.60
3.64
-3.95
-9.31
-8.89
-2.16
7.22
13.64
13.04
4.93
-7.00
-16.46
-18.59
-12.35
-0.84
9.84
14.37
11.16
2.59
-6.20
-10.28
-8.25
-2.37
3.00
3.76
-0.78
-7.45
-11.71
-10.02
-2.23
7.64
14.19
13.48
5.12
-6.85
-16.20
-18.32
-12.08
-0.70
9.83
14.57
12.02
4.46
-3.11
-6.26
-3.93
1.55
5.69
4.62
-2.00
-10.76
-16.69
-15.68
-7.21
4.96
15.30
19.09
14.82
5.45
-3.66
-7.94
-5.63
0.99
7.07
8.52
4.11
-3.75
-10.11
-10.63
-4.27
6.29
15.70
18.77
13.76
3.22
-7.51
-13.01
-10.91
-3.20
5.25
9.43
7.10
0.24
-6.37
-8.12
-3.37
5.37
12.88
14.39
8.39
-2.36
-12.36
-16.66
-13.66
-5.97
1.17
3.11
-1.43
-9.54
-15.87
-15.85
-8.52
2.97
13.14
17.19
13.64
5.07
-3.55
-7.68
-5.63
0.45
6.04
6.83
1.40
-7.94
-16.26
-18.71
-13.34
-2.33
9.22
15.96
15.25
8.91
1.83
-1.06
2.33
9.75
15.97
16.21
8.87
-3.35
-14.72
-19.88
-16.89
-7.93
1.71
6.65
4.71
-2.11
-9.11
-11.29
-6.41
3.52
13.79
19.32
17.47
9.81
0.93
-4.40
-3.73
1.42
6.52
7.12
1.43
-8.39
-17.20
-19.89
-14.49
-3.23
8.46
14.89
13.46
5.95
-2.65
-7.15
-5.32
0.81
6.39
6.62
-0.19
-11.21
-20.72
-23.25
-16.75
-3.90
9.38
17.23
16.93
10.25
2.15
-2.37
-1.02
4.55
9.92
10.70
5.23
-4.27
-12.97
-16.09
-11.80
-2.21
7.83
13.34
11.95
5.29
-2.20
-5.83
-3.34
3.56
10.26
11.93
6.46
-4.17
-14.78
-20.04
-17.45
-8.64
1.45
7.40
6.50
0.20
-6.87
-9.53
-5.17
4.35
14.05
18.37
14.39
3.69
-8.34
-15.76
-15.05
-7.06
3.26
9.99
9.63
3.08
-5.01
-8.94
-5.77
3.02
12.59
17.36
14.56
5.90
-3.64
-8.96
-7.44
-0.79
6.11
8.36
3.84
-5.53
-14.69
-18.38
-14.41
-4.54
6.34
12.90
12.45
6.46
-0.58
-3.87
-1.01
6.28
13.36
15.51
10.64
0.71
-9.34
-14.57
-12.96
-6.21
1.06
4.10
0.79
-7.06
-14.94
-18.00
-13.76
-3.86
7.15
14.22
14.45
8.76
1.37
-2.89
-1.42
4.86
11.73
14.28
9.83
-0.32
-11.59
-18.39
-17.39
-9.67
0.27
6.87
6.60
0.17
-7.91
-12.30
-9.81
-1.07
9.44
16.25
16.00
9.24
-0.06
-6.56
-6.87
-1.66
5.19
8.66
5.54
-3.38
-13.53
-19.41
-17.50
-8.23
3.79
12.60
14.20
8.75
0.21
-5.73
-5.45
0.38
7.58
10.77
6.72
-3.45
-14.71
-21.32
-19.96
-11.51
-0.93
5.86
5.38
-1.51
-10.33
-15.23
-12.69
-3.48
8.03
16.22
17.41
11.88
3.57
-2.13
-1.72
4.79
13.74
19.90
19.76
13.59
4.89
-1.19
-1.19
4.48
12.13
16.70
14.63
6.29
-4.42
-12.24
-13.53
-8.47
-1.01
3.49
1.38
-6.86
-16.98
-23.37
-22.31
-14.37
-3.93
3.34
3.71
-2.29
-10.47
-15.53
-14.25
-7.24
1.48
6.97
6.42
0.81
-5.87
-8.61
-4.63
4.93
15.93
23.11
23.15
16.69
7.71
1.20
0.55
5.55
12.67
17.33
16.40
10.13
1.89
-3.89
-4.11
0.82
7.44
11.33
9.33
1.69
-7.80
-14.35
-14.77
-9.11
-1.22
3.68
2.13
-5.64
-15.73
-22.52
-22.13
-14.94
-4.95
2.21
2.52
-3.85
-12.61
-18.25
-17.14
-9.45
0.61
7.51
7.73
1.83
-6.26
-11.22
-9.58
-2.03
7.49
13.95
13.94
7.78
-0.57
-6.11
-5.59
0.95
9.80
15.90
15.84
9.80
1.27
-4.67
-4.62
1.08
8.80
13.66
12.44
5.61
-2.88
-8.08
-6.80
0.66
10.37
17.19
17.68
12.03
3.73
-2.26
-2.56
2.43
9.13
12.76
10.04
1.40
-9.01
-15.97
-16.05
-9.43
-0.34
5.46
4.08
-4.38
-15.79
-23.94
-24.39
-17.06
-5.93
2.93
4.87
-0.36
-8.63
-14.20
-13.00
-4.93
5.85
13.64
14.74
9.45
1.62
-3.57
-2.76
3.53
11.51
16.51
15.61
9.31
1.37
-3.65
-3.18
1.99
7.96
9.98
5.38
-4.62
-15.59
-22.11
-20.75
-12.23
-1.08
6.97
7.87
1.58
-7.76
-14.23
-13.61
-5.69
5.65
14.55
16.66
11.80
3.84
-1.79
-1.36
4.99
13.17
17.92
16.00
8.03
-1.96
-8.89
-9.66
-5.09
0.78
3.14
-0.86
-10.15
-20.10
-25.25
-22.44
-12.59
-0.47
7.88
8.71
2.66
-5.76
-10.68
-8.25
1.10
12.92
21.47
22.77
16.81
7.46
0.16
-1.29
3.16
9.93
14.01
11.99
4.35
-4.90
-10.75
-10.19
-4.28
2.52
5.08
0.79
-8.81
-18.74
-23.42
-19.96
-9.67
2.54
10.70
10.95
3.63
-7.04
-15.26
-16.63
-10.61
-0.87
6.96
8.58
3.55
-4.50
-9.95
-8.75
-1.11
8.79
15.44
15.15
8.54
0.14
-4.47
-2.13
6.19
15.98
21.67
19.90
11.54
1.07
-6.14
-6.66
-0.82
7.24
12.21
10.79
3.61
-5.19
-10.39
-8.81
-1.62
6.31
9.54
5.32
-4.64
-15.01
-19.90
-16.60
-7.35
2.33
6.82
3.47
-5.68
-15.15
-19.45
-16.42
-8.00
0.97
5.48
3.28
-3.74
-10.87
-13.42
-9.09
0.90
12.22
19.82
20.74
15.52
7.69
1.82
1.20
5.74
12.02
15.47
13.10
5.38
-3.88
-9.56
-8.37
-1.30
6.96
10.75
6.67
-4.14
-16.45
-23.83
-22.61
-13.98
-2.99
4.30
4.26
-2.07
-9.78
-13.31
-9.89
-0.96
8.78
14.02
12.03
4.49
-3.72
-7.35
-3.73
5.90
16.87
23.62
22.88
15.45
5.50
-1.82
-3.20
0.91
6.48
8.35
3.48
-7.15
-18.83
-25.63
-23.74
-13.99
-1.51
7.12
7.59
0.39
-9.42
-15.17
-12.60
-2.54
9.63
17.21
16.11
7.44
-3.22
-9.28
-7.29
0.98
9.66
12.49
6.62
-5.44
-17.26
-22.37
-18.13
-7.21
4.09
9.47
6.34
-2.73
-11.63
-14.46
-8.91
2.51
14.06
20.18
18.62
11.67
4.52
2.05
5.96
13.86
20.74
21.98
16.03
5.36
-5.06
-10.56
-9.34
-3.48
2.34
3.64
-1.35
-10.60
-19.42
-23.04
-19.30
-10.01
0.22
6.65
6.90
2.19
-3.56
-6.11
-3.57
2.35
7.65
8.48
3.34
-5.83
-14.66
-18.75
-16.22
-8.81
-0.64
4.03
3.08
-2.26
-8.16
-10.35
-6.64
1.88
11.56
18.18
19.16
14.96
8.76
4.55
4.74
8.77
13.54
15.13
11.12
2.23
-7.94
-14.66
-14.89
-9.08
-0.77
5.32
5.80
0.77
-6.25
-10.37
-8.44
-0.81
8.89
15.78
16.32
10.48
1.67
-5.32
-7.27
-4.30
0.49
2.83
-0.26
-8.35
-17.72
-23.44
-22.32
-14.66
-4.07
4.52
7.39
4.25
-1.73
-5.91
-5.04
0.83
8.66
14.12
14.10
8.68
1.05
-4.29
-4.43
0.31
6.61
10.06
7.63
-0.32
-10.10
-16.61
-16.44
-9.80
-0.29
7.08
8.61
4.09
-3.03
-7.73
-6.51
0.44
9.62
16.30
17.18
12.45
5.57
1.11
1.91
7.23
13.54
16.74
14.51
7.83
0.34
-3.81
-2.52
2.87
8.53
10.48
6.84
-0.99
-9.14
-13.37
-11.60
-5.35
1.26
3.93
0.64
-7.09
-15.07
-18.74
-15.85
-8.05
0.08
3.79
0.96
-6.64
-14.37
-17.37
-13.36
-4.27
4.88
9.02
6.07
-1.78
-9.41
-11.80
-6.88
3.12
12.82
17.00
13.70
5.47
-2.33
-4.59
0.49
10.34
19.28
21.80
15.83
4.08
-7.53
-13.16
-10.29
-1.15
8.37
11.96
6.47
-6.05
-19.52
-27.15
-25.27
-15.22
-2.73
5.27
4.54
-3.88
-14.42
-20.30
-17.40
-6.55
7.08
16.83
18.31
11.91
2.41
-3.97
-3.26
4.11
13.87
20.41
19.99
12.89
3.20
-3.74
-4.59
-0.01
5.95
8.42
4.58
-4.44
-14.14
-19.17
-16.55
-7.51
3.11
9.78
9.44
3.28
-4.05
-7.21
-3.44
5.70
15.07
18.93
14.29
2.79
-10.16
-18.34
-18.09
-10.34
0.09
7.22
7.27
0.79
-7.92
-13.27
-11.63
-3.44
7.19
14.89
15.98
10.56
2.15
-4.53
-6.33
-3.38
1.03
2.81
-0.19
-6.62
-12.28
-12.77
-6.35
4.79
15.40
19.98
15.96
5.41
-6.05
-12.36
-10.48
-2.14
7.23
11.48
7.26
-3.90
-16.40
-23.69
-21.87
-11.95
0.94
10.38
12.25
7.06
-0.65
-5.26
-3.49
3.62
11.37
14.48
10.26
0.37
-10.05
-15.53
-13.38
-5.36
3.32
7.07
3.34
-5.72
-14.48
-17.06
-10.93
1.63
14.69
21.78
19.47
9.38
-2.85
-10.66
-10.38
-3.16
6.00
11.14
8.74
-0.26
-11.16
-18.20
-17.83
-10.73
-1.27
5.25
5.57
0.43
-6.05
-9.07
-6.01
1.95
10.49
14.90
13.00
6.53
0.08
-1.73
2.83
11.52
19.32
21.44
16.18
6.21
-3.10
-6.66
-2.65
6.43
15.23
18.46
13.86
3.52
-7.34
-13.36
-12.01
-5.11
2.42
5.35
1.13
-8.55
-18.78
-24.20
-22.05
-13.83
-4.49
0.56
-1.33
-8.36
-15.39
-17.08
-10.99
0.92
13.18
19.79
17.76
8.97
-0.87
-5.52
-2.00
7.83
18.43
23.63
20.03
8.88
-4.74
-14.66
-17.12
-12.84
-6.20
-2.34
-4.05
-10.09
-16.19
-17.77
-12.70
-2.71
7.32
12.31
10.02
2.58
-4.63
-6.26
-0.16
11.33
22.64
28.00
24.57
14.10
1.87
-6.14
-6.67
-1.06
5.86
8.64
4.47
-5.07
-15.09
-20.27
-17.88
-9.55
-0.40
4.00
1.01
-7.25
-15.12
-16.88
-10.14
2.73
15.97
23.56
22.44
14.07
3.38
-4.08
-5.35
-1.65
2.61
2.80
-2.84
-11.89
-19.27
-20.25
-13.23
-0.92
11.12
17.35
15.28
7.05
-1.89
-5.93
-2.64
5.88
14.35
17.52
13.05
2.83
-8.16
-14.70
-14.08
-7.74
-0.44
2.57
-1.18
-9.64
-17.46
-19.23
-12.75
-0.28
12.76
20.67
20.47
13.39
4.00
-2.49
-3.27
0.41
4.26
3.85
-2.37
-11.83
-19.39
-20.31
-13.08
-0.50
11.69
17.83
15.31
6.24
-3.81
-9.09
-7.00
0.45
7.94
10.26
5.39
-4.31
-13.50
-16.89
-12.23
-1.64
9.56
15.64
13.78
5.76
-3.24
-7.79
-5.45
1.84
9.10
11.39
6.70
-2.77
-11.92
-15.54
-11.45
-1.87
7.77
12.05
8.84
0.79
-6.44
-7.74
-1.61
8.82
17.68
19.71
13.15
0.77
-11.59
-18.14
-16.40
-8.38
0.51
4.67
1.68
-6.24
-13.68
-15.30
-8.99
2.85
14.70
21.14
19.73
12.20
3.24
-2.46
-2.87
0.38
3.25
1.82
-5.10
-14.92
-22.60
-23.40
-15.77
-2.64
9.82
15.62
12.36
2.75
-6.94
-10.61
-5.88
4.71
15.40
20.69
18.22
9.93
0.58
-5.07
-4.71
0.29
5.74
7.13
2.46
-6.29
-14.06
-15.82
-9.92
0.54
9.49
11.67
5.98
-3.79
-11.54
-12.61
-6.38
3.72
12.44
15.46
11.39
2.17
-7.90
-14.17
-13.83
-7.47
0.89
5.89
4.12
-3.35
-11.28
-13.58
-7.39
4.69
16.12
20.65
16.31
6.48
-2.74
-6.64
-4.54
0.38
3.65
2.33
-3.62
-11.66
-18.15
-19.90
-15.48
-6.02
4.95
12.67
13.60
7.84
-0.28
-4.61
-1.23
8.55
18.30
20.51
11.91
-3.79
-17.91
-22.32
-14.69
0.14
13.52
18.56
14.15
4.79
-3.12
-5.59
-3.03
0.92
2.34
-0.53
-6.77
-13.82
-18.84
-19.68
-15.45
-6.84
3.68
12.27
15.43
12.20
5.34
-0.05
0.17
6.10
13.11
14.84
7.84
-5.33
-17.31
-20.70
-13.13
0.98
13.27
16.96
11.05
0.55
-7.42
-8.36
-2.89
4.36
8.21
6.10
-0.96
-9.64
-16.34
-18.59
-15.59
-8.18
1.37
9.65
13.21
10.47
3.18
-3.99
-6.14
-1.40
7.21
13.35
11.71
2.20
-9.39
-14.97
-9.72
4.22
18.74
24.91
18.93
4.59
-9.43
-15.35
-11.12
-1.12
7.35
9.08
3.94
-3.82
-8.94
-8.46
-3.09
3.78
8.33
8.05
2.59
-6.14
-14.61
-18.94
-16.74
-8.65
1.39
8.00
7.66
1.36
-5.67
-7.32
-0.83
11.00
21.36
23.86
16.74
3.88
-7.94
-13.39
-11.52
-5.51
-0.14
1.24
-1.91
-7.75
-13.41
-16.18
-14.33
-7.75
1.68
10.36
14.35
11.87
4.99
-1.10
-1.20
6.18
17.18
24.59
22.66
11.40
-3.02
-12.26
-11.36
-2.20
7.81
10.86
4.10
-8.56
-19.42
-22.23
-16.18
-5.90
1.91
2.87
-2.89
-11.54
-18.34
-20.14
-16.44
-8.86
-0.05
7.24
10.73
9.47
4.62
-0.58
-2.28
1.59
9.47
16.41
17.05
9.52
-2.50
-11.71
-11.83
-2.19
11.10
18.79
14.57
-0.22
-17.13
-25.87
-21.06
-5.78
10.40
17.77
12.74
-0.08
-11.42
-13.52
-5.00
8.85
19.85
22.19
15.42
4.01
-5.82
-9.42
-5.80
2.62
11.49
16.52
15.27
8.41
-0.37
-6.08
-5.22
1.95
11.09
16.25
13.70
4.65
-5.42
-10.46
-7.92
-0.45
6.03
6.29
-0.82
-11.92
-21.53
-25.40
-22.50
-15.03
-6.87
-1.69
-1.50
-5.93
-12.23
-16.21
-14.44
-6.34
4.82
13.25
14.20
7.53
-1.57
-5.68
-0.22
12.93
26.11
30.74
23.22
7.59
-7.05
-12.57
-7.17
3.78
11.61
10.22
-0.04
-13.14
-21.71
-21.78
-14.77
-5.83
-0.11
0.21
-3.53
-8.05
-10.51
-9.60
-5.61
0.34
6.83
12.13
14.29
12.02
5.86
-1.43
-5.97
-5.12
0.32
6.06
6.79
0.17
-10.90
-19.53
-19.14
-8.13
8.36
21.25
23.28
14.00
0.21
-8.45
-5.94
6.10
19.40
24.59
17.53
2.22
-12.01
-16.64
-9.57
3.71
13.92
14.22
4.59
-8.38
-16.07
-13.53
-2.47
10.07
16.46
13.25
2.95
-7.97
-13.44
-11.48
-4.95
0.82
1.69
-2.80
-9.66
-14.57
-14.67
-10.03
-3.03
3.38
7.30
8.43
7.39
5.00
1.80
-1.76
-4.88
-6.46
-5.80
-3.37
-0.93
-0.43
-2.65
-6.30
-8.39
-6.05
1.40
11.45
19.40
21.02
15.04
4.19
-6.13
-10.95
-8.76
-2.42
2.46
1.20
-6.83
-17.47
-24.10
-21.87
-11.06
2.61
11.31
10.07
0.15
-11.51
-16.65
-11.15
2.07
14.77
18.73
11.53
-1.66
-11.34
-10.07
2.42
18.72
28.48
25.25
10.96
-5.33
-13.35
-8.26
6.25
20.45
25.04
17.13
1.99
-10.72
-13.36
-5.07
7.89
16.53
15.05
4.41
-8.61
-16.00
-13.74
-4.20
5.64
8.79
2.67
-9.47
-20.60
-24.33
-18.65
-6.92
4.40
9.64
7.08
-0.39
-7.29
-9.00
-4.47
3.42
9.99
11.73
8.48
3.30
0.42
2.38
8.30
14.53
16.98
13.67
5.88
-2.79
-8.60
-9.86
-7.64
-4.62
-3.23
-4.17
-6.40
-8.21
-8.49
-7.47
-6.32
-6.01
-6.52
-6.80
-5.65
-2.77
0.89
3.73
4.61
3.81
2.94
3.73
6.55
9.85
11.01
8.19
1.76
-5.45
-9.84
-9.42
-5.30
-1.19
-0.90
-5.75
-13.35
-18.77
-17.67
-9.22
3.02
12.98
15.69
10.31
0.79
-6.42
-6.31
1.60
12.74
20.25
19.12
9.36
-3.87
-13.25
-13.70
-5.57
5.53
12.03
9.14
-2.21
-15.71
-23.42
-20.57
-8.54
5.93
14.77
13.54
4.08
-6.62
-10.82
-4.87
8.43
21.49
26.52
20.45
6.72
-6.70
-12.16
-6.92
5.10
15.80
17.68
8.54
-7.23
-21.11
-25.39
-17.72
-2.43
11.94
17.53
11.70
-1.74
-14.72
-19.60
-13.47
0.31
14.24
20.98
17.59
7.04
-3.64
-7.48
-1.62
10.95
23.11
27.58
21.16
6.49
-9.35
-18.75
-17.77
-8.33
2.98
8.65
4.58
-7.67
-21.71
-29.90
-27.52
-15.42
0.49
12.41
14.89
7.44
-5.38
-16.57
-20.34
-14.95
-3.11
9.70
18.26
19.83
14.87
6.25
-2.48
-8.59
-10.95
-9.74
-5.81
-0.26
5.49
9.64
10.14
5.57
-3.85
-15.51
-24.86
-27.26
-20.35
-5.80
10.79
22.24
23.23
13.25
-2.65
-16.16
-19.85
-11.09
6.37
24.13
33.40
29.35
13.67
-6.52
-22.40
-27.91
-22.45
-10.51
1.28
7.98
8.61
5.84
3.43
3.40
4.74
4.40
-0.06
-8.12
-15.67
-17.07
-8.55
8.97
29.28
43.40
43.82
28.44
2.09
-25.43
-43.79
-46.60
-34.02
-12.24
9.93
25.01
29.89
25.98
17.29
7.59
-1.34
-9.64
-17.94
-25.49
-29.57
-26.61
-14.65
4.55
25.06
38.83
39.37
25.18
1.18
-23.21
-38.18
-37.98
-23.41
-1.15
19.67
31.72
32.47
24.37
12.58
1.92
-5.30
-9.45
-12.05
-13.85
-13.76
-9.57
0.07
13.75
26.83
33.13
27.97
11.03
-12.69
-34.67
-46.64
-44.29
-29.17
-7.67
12.19
24.52
27.86
24.75
19.30
14.28
9.72
3.59
-5.92
-18.24
-29.68
-34.93
-29.92
-14.38
7.23
27.39
38.76
37.55
25.13
7.12
-9.57
-20.00
-23.03
-20.97
-17.34
-14.42
-11.72
-6.72
2.87
16.66
30.62
38.56
35.22
19.42
-4.58
-28.66
-44.33
-46.59
-36.00
-17.97
0.30
13.37
19.90
22.29
24.09
27.11
29.87
28.46
19.34
2.18
-18.96
-37.10
-45.54
-41.23
-26.37
-7.23
9.03
17.84
19.17
16.76
15.23
16.98
20.49
21.31
15.04
0.41
-19.22
-37.05
-46.22
-43.21
-29.66
-11.33
5.05
15.21
19.26
20.81
24.04
30.59
38.04
41.14
34.87
17.81
-6.33
-30.05
-45.43
-47.91
-38.32
-22.08
-6.13
4.62
9.47
11.35
14.11
19.53
25.77
28.38
23.22
9.40
-9.47
-26.61
-35.34
-32.39
-19.51
-2.40
12.32
20.41
21.89
20.28
19.93
22.96
27.69
29.70
24.54
10.80
-8.45
-26.83
-37.90
-38.54
-30.42
-18.86
-9.64
-5.73
-5.70
-5.04
0.65
12.48
27.00
37.70
38.44
26.83
5.83
-17.55
-35.59
-43.50
-41.25
-32.87
-23.62
-16.84
-12.18
-6.43
3.79
19.11
36.04
48.36
50.15
39.10
18.09
-5.96
-25.34
-35.16
-35.17
-29.21
-22.46
-18.23
-16.18
-12.97
-4.88
9.20
26.35
40.53
45.51
38.24
20.60
-1.36
-20.34
-31.23
-33.24
-29.53
-24.70
-21.81
-20.46
-17.26
-8.40
7.37
27.24
45.05
54.21
50.97
36.48
16.13
-3.20
-16.59
-23.06
-25.30
-27.17
-30.85
-35.00
-35.57
-28.48
-12.55
9.06
29.86
42.98
44.50
35.29
20.22
5.37
-5.17
-11.06
-15.13
-20.84
-29.47
-38.64
-43.37
-38.89
-23.72
-1.03
22.47
39.58
46.02
42.15
32.31
21.99
14.68
10.21
5.44
-3.13
-16.57
-32.01
-43.71
-45.99
-36.48
-17.64
4.17
21.77
30.51
30.36
25.18
19.92
17.47
17.03
14.85
7.01
-7.54
-25.50
-40.41
-45.87
-38.89
-21.65
-0.47
17.32
27.00
28.40
25.32
22.66
23.23
26.04
27.02
21.84
8.82
-9.41
-26.97
-37.66
-38.22
-29.98
-17.93
-7.87
-3.19
-3.12
-3.52
0.11
9.52
22.07
31.82
32.63
21.75
1.69
-20.72
-37.61
-43.77
-38.91
-27.07
-13.98
-3.71
3.30
9.64
18.43
30.49
43.00
50.56
48.15
34.15
11.79
-12.02
-29.82
-37.11
-34.20
-25.59
-17.11
-12.68
-12.19
-12.01
-7.69
2.89
17.75
31.35
37.39
32.23
17.05
-2.63
-19.73
-29.09
-29.80
-24.97
-19.31
-16.05
-14.97
-12.92
-6.32
6.07
21.76
35.50
41.99
38.85
28.11
15.23
6.20
4.32
8.41
13.50
13.71
5.63
-9.54
-26.47
-38.61
-41.67
-35.85
-25.23
-15.31
-9.68
-8.17
-7.43
-3.46
5.56
17.92
29.07
34.19
30.87
20.67
8.33
-0.82
-3.76
-1.51
1.61
0.64
-6.91
-19.21
-30.87
-35.91
-31.11
-17.77
-1.03
13.01
20.50
21.74
20.43
21.02
25.69
32.69
37.17
33.95
20.67
-0.35
-22.87
-39.72
-46.35
-42.84
-33.41
-23.69
-17.32
-14.05
-10.44
-2.58
10.95
27.58
41.89
48.35
44.43
32.05
16.66
4.30
-1.56
-1.80
-0.94
-4.26
-14.55
-30.02
-45.13
-53.49
-51.37
-39.73
-23.45
-8.42
1.71
7.34
12.06
19.84
32.15
46.64
58.27
61.98
55.68
41.62
25.35
12.89
7.56
8.22
9.95
6.97
-3.95
-21.36
-39.75
-52.43
-55.17
-48.32
-36.27
-24.71
-17.31
-13.85
-10.88
-4.59
6.17
18.47
26.44
24.53
10.89
-10.98
-33.62
-49.03
-52.55
-44.81
-30.88
-17.11
-7.68
-2.56
1.68
9.09
21.36
36.36
49.21
55.03
51.82
41.79
30.26
22.79
22.07
26.39
30.54
28.72
17.94
0.02
-19.18
-32.92
-37.30
-33.41
-26.61
-23.30
-27.15
-36.83
-46.99
-51.38
-46.66
-34.26
-19.40
-7.96
-3.06
-3.46
-4.59
-1.63
7.54
20.99
33.99
41.69
42.00
36.73
30.48
27.96
31.20
38.35
44.73
45.49
38.40
25.38
11.58
2.58
1.14
5.64
10.74
10.39
1.31
-14.87
-32.42
-44.64
-47.65
-42.58
-34.80
-30.74
-33.99
-43.08
-52.42
-55.76
-49.90
-36.70
-21.90
-11.69
-9.09
-12.26
-15.77
-14.01
-4.45
10.91
26.82
37.91
41.60
39.46
35.97
35.70
40.64
49.05
56.62
58.96
54.16
43.99
32.93
25.62
24.33
27.61
31.20
30.37
22.74
9.81
-3.72
-12.58
-13.93
-9.15
-3.19
-1.81
-8.21
-20.88
-34.30
-42.05
-40.60
-31.52
-20.82
-15.50
-19.46
-30.96
-43.64
-50.12
-46.51
-34.72
-21.39
-14.04
-16.57
-26.89
-38.26
-43.31
-38.38
-25.61
-11.53
-3.10
-3.64
-10.98
-19.04
-21.50
-15.57
-3.31
9.71
17.89
18.78
14.34
9.47
9.00
14.76
24.60
33.73
37.46
33.89
25.08
15.76
10.76
12.36
19.12
26.83
30.95
29.18
22.77
15.71
12.27
14.58
21.31
28.51
31.87
29.27
22.05
14.15
9.73
10.61
15.18
19.26
18.56
11.33
-0.28
-11.33
-16.72
-14.19
-5.77
3.19
6.90
2.45
-8.34
-19.81
-25.71
-22.63
-12.12
0.15
7.70
6.94
-0.67
-9.57
-13.45
-9.11
1.56
12.64
17.62
13.29
1.81
-10.54
-16.94
-14.03
-3.98
6.76
11.11
5.50
-7.89
-22.30
-30.21
-27.59
-16.29
-2.87
5.17
3.67
-5.69
-16.58
-21.80
-17.56
-5.69
7.44
14.74
12.53
2.70
-8.47
-14.10
-10.83
-0.80
9.61
13.52
7.68
-5.45
-19.03
-25.72
-21.87
-9.59
4.52
13.17
12.57
4.58
-4.66
-8.56
-4.03
6.61
17.07
20.90
15.31
2.99
-9.48
-15.53
-12.35
-2.68
6.83
9.43
2.20
-12.01
-26.21
-33.09
-29.22
-16.94
-2.97
5.40
4.53
-3.59
-12.67
-15.98
-10.48
1.34
12.87
17.26
11.51
-1.65
-15.22
-21.99
-18.60
-7.57
4.35
10.05
6.31
-4.28
-14.88
-18.44
-11.86
2.15
16.67
24.60
22.73
13.51
3.42
-0.95
3.20
13.30
23.03
26.07
19.89
7.30
-5.13
-10.90
-7.22
3.39
14.65
20.16
17.18
8.17
-0.73
-3.40
2.61
14.58
26.23
31.32
27.38
17.06
6.58
1.97
5.52
14.40
22.30
23.07
14.40
-0.73
-15.68
-24.02
-23.13
-15.72
-8.18
-6.70
-13.51
-25.43
-35.71
-38.11
-30.67
-16.95
-4.02
1.72
-1.72
-10.79
-18.58
-19.05
-10.63
2.89
14.59
18.52
13.14
2.15
-7.80
-11.09
-6.40
2.64
9.67
9.40
0.92
-11.76
-21.88
-23.89
-16.63
-3.95
7.48
12.00
8.22
-0.34
-7.40
-7.78
-0.41
11.01
20.26
22.25
16.04
5.33
-3.76
-6.38
-1.70
6.59
12.70
12.12
4.48
-6.17
-13.73
-13.62
-5.44
6.79
16.90
20.13
15.78
7.48
0.98
0.65
7.04
16.58
23.80
24.52
18.29
8.61
0.80
-1.24
2.71
9.01
12.31
8.80
-1.44
-14.20
-23.49
-24.97
-18.45
-8.22
-0.65
-0.56
-8.46
-20.14
-29.03
-29.96
-22.16
-9.64
1.05
4.60
0.03
-8.76
-15.36
-14.65
-5.89
6.85
16.99
19.37
13.28
2.95
-4.98
-5.40
2.20
13.51
21.86
22.25
14.27
2.35
-6.99
-8.92
-3.25
5.58
11.06
8.51
-2.08
-15.94
-26.29
-28.21
-21.63
-11.33
-4.22
-5.29
-14.58
-27.06
-35.57
-35.00
-25.35
-11.75
-1.49
0.31
-6.30
-16.17
-22.18
-19.56
-8.76
4.78
13.83
13.65
4.77
-7.31
-15.38
-14.79
-6.16
5.02
11.60
9.08
-1.78
-15.32
-24.26
-23.94
-14.91
-2.52
6.28
7.09
0.59
-8.00
-12.18
-8.08
3.18
16.23
24.67
24.88
18.09
9.57
5.28
8.43
17.49
27.30
32.10
29.03
19.84
9.73
4.30
6.30
14.06
22.59
26.54
23.37
14.81
5.75
1.37
4.10
12.29
21.35
26.43
25.36
19.75
13.92
12.14
16.12
23.99
31.53
34.64
31.71
24.44
16.68
12.01
11.68
14.02
15.49
12.87
5.13
-5.78
-16.05
-22.20
-23.09
-20.75
-19.34
-22.78
-32.29
-45.19
-56.12
-59.81
-54.12
-41.51
-27.89
-19.43
-19.09
-24.93
-31.27
-32.13
-24.75
-11.30
2.44
10.57
10.57
4.91
-0.53
-0.01
8.66
22.81
36.59
44.42
44.24
38.54
32.63
31.30
35.97
43.93
50.13
50.21
43.05
31.27
19.53
11.63
8.28
6.69
2.31
-8.32
-25.13
-43.94
-58.34
-62.90
-56.09
-41.16
-24.53
-12.44
-7.71
-8.63
-10.37
-8.31
-0.82
9.77
18.79
22.22
19.26
12.75
7.35
6.49
10.21
14.96
15.68
8.79
-5.47
-22.79
-36.89
-42.76
-39.28
-29.63
-19.42
-13.38
-12.71
-14.46
-13.58
-6.12
8.19
25.53
40.04
46.88
44.69
35.81
24.57
14.48
6.42
-1.37
-11.52
-25.12
-40.20
-52.22
-56.30
-50.06
-35.13
-16.72
-1.05
7.67
9.24
6.97
5.50
7.61
12.49
16.18
13.95
3.46
-13.29
-30.27
-39.95
-36.87
-20.32
5.14
31.67
51.57
60.56
59.27
52.09
44.85
42.05
45.37
53.77
64.92
76.79
88.56
100.47
112.83
125.31
136.65
145.31
150.26
151.62
150.27
147.64
144.92
142.55
140.22
137.12
132.40
125.50
116.08
103.85
88.10
68.03
43.09
13.33
-20.42
-56.86
-94.47
-130.98
-165.27
-197.03
-226.57
-254.74
-282.73
-311.61
-341.21
-368.98
-389.76
-397.16
-385.85
-354.42
-306.83
-251.49
-198.32
-155.10
-125.07
-107.08
-97.62
-93.06
-91.04
-90.35
-90.06
-88.56
-84.16
-75.03
-60.73
-42.77
-23.96
-7.49
4.52
11.64
14.96
16.38
17.59
19.16
20.49
20.39
17.93
13.29
7.87
3.83
3.27
7.44
16.27
28.53
42.67
57.59
73.04
89.49
107.60
127.79
150.22
175.16
203.02
233.72
265.27
293.22
311.26
313.54
297.64
266.21
226.06
185.07
149.00
119.29
94.58
73.10
54.70
41.16
34.35
33.62
34.90
32.55
22.89
6.98
-9.63
-19.89
-18.88
-6.38
13.61
35.40
54.42
68.61
77.69
81.27
77.56
64.32
40.78
9.55
-23.43
-50.78
-66.32
-66.84
-52.73
-27.54
3.09
32.11
52.40
58.60
48.55
24.07
-9.48
-45.45
-78.60
-106.65
-130.51
-152.72
-175.22
-197.57
-216.48
-226.99
-224.48
-206.89
-175.68
-136.16
-95.66
-60.59
-33.93
-14.39
2.31
20.49
41.70
64.08
83.61
96.33
99.97
94.14
79.81
59.03
35.64
14.26
-0.13
-3.82
4.17
21.07
41.20
57.70
65.16
61.49
47.72
26.76
1.55
-25.85
-54.10
-81.77
-106.78
-126.72
-139.68
-145.28
-144.63
-139.97
-133.51
-126.70
-119.81
-111.68
-100.46
-84.37
-62.26
-33.77
0.57
39.02
78.44
114.48
142.32
158.03
159.86
148.85
128.45
103.33
77.86
55.04
36.40
22.28
12.46
6.65
4.50
5.47
8.55
12.30
15.01
15.54
13.67
10.18
6.63
4.49
4.69
7.52
13.05
21.54
33.47
48.93
66.95
85.38
101.58
113.68
121.43
126.05
129.12
131.33
132.00
129.51
122.45
110.56
95.33
79.50
66.15
57.52
53.93
53.23
51.41
44.13
28.81
6.26
-19.39
-42.68
-59.57
-69.48
-75.14
-80.23
-86.41
-92.03
-93.31
-87.53
-75.70
-62.84
-55.57
-58.19
-70.05
-85.81
-98.58
-103.72
-100.99
-93.92
-87.10
-83.21
-81.83
-80.51
-77.06
-71.26
-64.99
-60.83
-60.19
-62.25
-64.35
-63.42
-57.60
-47.14
-34.31
-22.30
-13.90
-10.36
-10.92
-13.25
-14.63
-13.40
-9.77
-5.69
-3.71
-5.22
-9.38
-13.38
-14.19
-10.55
-4.13
1.29
2.13
-2.59
-10.39
-16.85
-18.48
-15.12
-10.19
-8.37
-12.33
-20.71
-28.86
-31.83
-27.73
-19.14
-11.54
-9.90
-15.66
-25.93
-35.36
-39.36
-36.54
-28.96
-20.41
-13.83
-9.89
-7.15
-3.63
1.58
7.74
13.10
16.35
17.57
18.37
21.02
27.21
37.10
49.25
61.06
69.67
72.84
69.42
59.68
45.23
28.46
11.96
-2.41
-13.98
-23.23
-31.19
-38.64
-45.50
-50.90
-53.80
-53.79
-51.49
-48.31
-45.40
-42.59
-37.96
-28.83
-13.54
6.82
28.15
44.87
52.65
50.96
43.79
37.96
39.91
52.56
73.91
98.25
118.97
131.73
135.99
134.42
130.80
127.85
126.05
124.19
120.83
115.78
110.36
106.44
104.78
104.10
101.55
94.50
82.56
68.49
57.15
52.89
56.95
66.24
74.74
76.39
68.23
52.03
33.23
18.12
10.83
11.75
18.13
26.35
34.02
40.81
47.73
55.20
61.82
64.82
61.73
52.55
40.75
32.26
32.73
44.51
64.76
85.79
97.73
91.88
64.30
18.15
-36.81
-88.43
-126.42
-146.60
-151.91
-150.04
-148.28
-150.46
-155.99
-161.85
-165.54
-166.81
-167.04
-167.11
-166.10
-161.91
-153.32
-141.43
-129.30
-119.67
-112.75
-105.98
-96.09
-81.81
-65.11
-50.02
-39.96
-35.56
-34.75
-34.56
-33.10
-30.39
-27.62
-25.87
-25.12
-24.46
-22.85
-20.05
-16.58
-13.38
-11.38
-11.29
-13.55
-18.38
-25.61
-34.58
-44.28
-53.78
-62.66
-71.09
-79.35
-86.85
-91.48
-89.90
-78.88
-57.07
-26.27
8.54
41.06
65.92
80.65
86.26
86.27
84.85
85.04
88.01
93.41
99.84
105.56
108.06
104.24
91.13
67.50
35.27
-0.42
-32.94
-56.83
-69.78
-72.77
-68.30
-58.35
-43.36
-23.16
1.33
26.96
48.98
63.19
68.11
65.84
60.53
56.29
55.13
56.32
57.25
54.95
47.59
35.11
19.48
4.01
-7.83
-13.35
-11.87
-5.03
3.40
8.75
7.14
-3.06
-20.89
-43.44
-67.47
-90.63
-111.75
-129.94
-143.49
-149.61
-145.39
-129.95
-105.92
-79.38
-57.44
-44.48
-39.57
-36.38
-26.85
-6.18
23.56
54.04
75.31
81.47
74.10
60.90
50.69
47.84
50.13
51.24
45.86
33.86
20.40
12.16
12.49
19.16
26.13
27.94
23.28
15.49
9.66
8.97
12.64
16.93
18.08
14.94
9.63
5.85
6.20
10.51
15.91
18.71
16.62
10.20
2.57
-2.29
-1.72
4.02
11.93
17.86
18.85
14.86
8.75
4.40
4.34
8.17
12.76
14.46
11.49
5.19
-0.93
-3.61
-2.07
1.60
3.67
1.43
-5.10
-13.10
-18.50
-18.47
-13.21
-6.19
-2.57
-6.67
-19.55
-38.17
-56.50
-68.24
-69.75
-61.52
-47.61
-33.25
-22.22
-15.39
-11.12
-7.23
-2.71
1.64
4.18
3.87
1.35
-1.19
-1.16
2.96
10.77
20.27
28.71
34.04
35.91
35.74
36.07
39.13
45.48
53.49
60.09
62.28
58.95
51.53
43.14
36.95
34.54
35.40
37.50
38.86
38.21
35.11
29.32
20.34
7.78
-7.98
-25.15
-41.10
-53.28
-60.29
-62.13
-59.74
-54.32
-46.83
-38.12
-28.98
-20.26
-12.56
-5.92
0.24
6.74
13.99
21.63
28.35
32.67
33.93
32.74
30.99
30.97
34.28
40.56
47.65
52.20
51.54
45.01
34.37
22.77
12.92
5.90
0.90
-3.52
-8.17
-12.52
-15.30
-15.38
-12.65
-8.17
-3.46
0.27
2.57
3.64
3.96
3.65
2.18
-1.50
-8.29
-17.89
-28.29
-36.42
-39.70
-37.65
-32.32
-27.01
-24.16
-23.69
-23.12
-19.61
-12.21
-2.93
4.40
6.57
3.26
-2.75
-7.36
-7.51
-2.90
4.36
11.15
14.86
14.47
10.73
5.74
2.35
2.92
8.30
17.21
26.71
33.38
35.10
32.08
26.86
23.16
24.20
31.09
42.09
52.89
58.20
53.89
38.97
16.24
-8.77
-30.19
-44.30
-50.46
-50.36
-46.55
-41.11
-35.45
-30.87
-28.83
-30.53
-35.87
-42.86
-48.20
-48.83
-43.66
-34.12
-23.33
-14.27
-8.39
-5.28
-3.65
-2.44
-1.60
-1.87
-4.10
-8.40
-13.82
-18.45
-20.27
-18.13
-12.63
-6.00
-1.09
0.22
-1.72
-4.24
-3.78
2.34
14.06
28.22
39.81
43.80
36.89
18.12
-11.44
-49.15
-90.68
-129.87
-159.37
-172.47
-165.88
-141.60
-106.04
-66.93
-29.59
4.52
36.06
64.70
87.24
99.04
97.63
85.51
69.48
56.42
48.66
42.57
31.79
12.74
-12.08
-34.97
-48.19
-49.18
-41.78
-33.18
-28.52
-27.51
-25.51
-17.82
-3.75
12.44
24.40
28.15
24.64
18.85
16.17
18.61
23.77
26.91
24.52
16.74
7.39
1.57
2.84
11.49
24.64
37.63
45.96
46.82
40.14
28.60
16.75
9.00
7.51
10.88
14.89
15.03
9.44
0.37
-7.23
-8.91
-3.84
4.32
9.81
8.51
0.61
-9.50
-16.01
-15.32
-8.03
1.56
8.22
8.68
3.31
-4.53
-10.60
-12.09
-8.94
-3.44
1.17
2.43
-0.18
-5.23
-10.22
-12.80
-11.76
-7.46
-1.43
4.45
8.82
11.31
12.38
12.83
13.13
13.05
11.89
9.27
6.25
5.74
11.44
25.51
46.14
67.01
79.73
78.30
63.18
41.75
24.59
19.28
25.83
36.84
42.43
36.80
22.03
6.36
-1.62
1.16
10.36
17.45
15.58
4.03
-11.65
-23.47
-26.21
-20.32
-11.09
-5.02
-5.97
-13.27
-22.78
-29.57
-30.66
-26.21
-18.90
-12.19
-8.56
-8.54
-10.79
-12.98
-13.02
-9.92
-4.31
1.90
6.25
6.85
3.36
-2.71
-8.55
-11.32
-9.66
-4.55
1.07
4.04
2.95
-0.85
-3.96
-3.17
2.23
9.60
14.36
12.96
5.43
-4.26
-10.43
-9.26
-1.35
8.55
14.50
13.14
5.76
-2.70
-7.05
-5.18
0.70
5.71
5.69
-0.15
-8.79
-15.47
-16.85
-12.83
-6.39
-1.36
-0.02
-1.85
-4.18
-4.24
-0.93
4.53
9.44
11.23
8.72
2.70
-4.52
-10.10
-11.84
-9.04
-2.90
3.90
8.40
8.66
4.78
-1.24
-6.53
-8.94
-8.14
-5.65
-3.79
-4.09
-6.32
-8.61
-8.74
-5.69
-0.39
4.69
6.99
5.32
0.65
-4.47
-7.39
-6.82
-3.52
0.14
1.68
-0.01
-4.01
-7.86
-9.20
-7.22
-3.18
0.28
0.76
-2.49
-8.13
-13.52
-16.19
-15.19
-11.49
-7.30
-4.84
-5.04
-7.24
-9.64
-10.49
-9.06
-6.06
-3.14
-1.91
-2.98
-5.47
-7.49
-7.10
-3.58
2.02
7.27
9.68
8.19
3.83
-0.77
-2.93
-1.48
2.52
6.46
7.73
5.43
0.99
-2.68
-3.15
-0.07
4.36
6.74
4.66
-1.68
-9.30
-14.12
-13.45
-7.87
-1.05
2.10
-1.54
-11.39
-23.25
-31.54
-32.11
-23.96
-9.09
9.18
27.61
43.75
55.76
61.90
60.98
53.48
42.42
32.94
30.11
36.38
50.28
67.05
80.68
86.16
80.74
64.49
40.15
12.60
-12.14
-28.49
-33.32
-27.44
-15.38
-3.59
2.74
2.13
-2.72
-7.09
-7.31
-3.04
2.88
6.85
6.97
4.19
1.60
2.26
7.20
14.66
20.99
22.79
19.00
11.52
4.17
0.54
1.96
6.97
12.13
13.97
10.78
3.52
-4.78
-10.70
-12.31
-10.12
-6.71
-5.22
-7.57
-13.38
-20.20
-24.91
-25.51
-22.19
-17.30
-13.98
-14.55
-19.18
-25.90
-31.65
-33.91
-31.88
-26.78
-20.88
-16.09
-12.94
-10.62
-8.04
-5.08
-3.01
-3.96
-9.45
-19.10
-30.21
-38.71
-41.05
-35.98
-25.38
-13.58
-5.53
-4.54
-10.67
-20.63
-29.37
-32.54
-28.64
-19.75
-10.31
-4.66
-4.54
-8.23
-11.66
-10.99
-5.08
3.85
11.61
14.68
12.36
6.98
2.15
0.22
0.77
1.06
-1.93
-9.15
-18.52
-25.93
-27.78
-23.11
-14.28
-5.58
-0.78
-1.01
-4.31
-6.90
-5.48
0.88
10.27
19.08
24.07
24.07
20.48
16.28
14.25
15.35
18.27
20.33
19.10
14.00
6.78
0.61
-1.77
0.43
5.49
10.12
11.31
8.00
1.65
-4.54
-7.55
-6.15
-1.61
3.10
5.05
2.99
-1.95
-7.02
-9.44
-7.99
-3.66
1.00
3.39
2.44
-0.86
-4.06
-4.89
-2.59
1.54
4.92
5.25
1.90
-3.62
-8.51
-10.25
-8.05
-3.29
1.25
3.03
1.21
-2.87
-6.51
-7.29
-4.46
0.53
4.93
6.28
3.91
-0.63
-4.50
-5.24
-2.27
2.77
7.01
8.01
5.27
0.45
-3.59
-4.52
-1.87
2.72
6.47
7.08
4.06
-0.98
-5.39
-6.99
-5.33
-1.79
1.24
1.84
-0.27
-3.61
-5.93
-5.62
-2.72
1.08
3.47
2.84
-0.65
-5.10
-7.97
-7.52
-3.92
0.88
4.18
4.04
0.39
-4.85
-8.84
-9.44
-6.43
-1.66
2.05
2.50
-0.55
-5.31
-8.96
-9.36
-6.33
-1.77
1.51
1.48
-1.90
-6.61
-9.79
-9.34
-5.20
0.61
5.12
6.10
3.34
-1.25
-4.78
-4.97
-1.48
3.97
8.63
10.26
8.49
4.93
2.13
2.06
4.94
9.16
12.23
12.30
9.34
5.16
2.26
2.35
5.29
9.20
11.49
10.46
6.36
1.29
-2.03
-1.88
1.49
6.01
8.99
8.57
4.85
-0.26
-4.19
-5.19
-3.35
-0.39
1.42
0.55
-2.79
-6.82
-9.19
-8.49
-5.10
-1.03
1.20
-0.02
-4.36
-9.68
-13.23
-13.26
-10.09
-5.91
-3.57
-4.87
-9.52
-15.29
-19.28
-19.73
-17.09
-13.79
-12.73
-15.62
-21.89
-29.03
-34.05
-35.29
-33.39
-30.97
-31.06
-35.33
-43.18
-51.99
-58.70
-61.56
-61.21
-60.36
-62.17
-68.43
-78.44
-89.44
-98.01
-102.03
-101.90
-100.36
-100.88
-105.60
-114.10
-123.40
-129.70
-130.08
-123.86
-112.44
-97.96
-81.66
-63.04
-40.65
-13.50
17.38
49.07
78.11
102.27
121.79
139.26
157.93
179.40
203.37
226.26
243.07
249.96
246.27
234.74
219.97
206.03
193.95
182.47
168.84
150.95
129.07
106.03
85.80
71.32
62.93
58.30
53.91
46.78
36.00
23.24
11.52
3.39
-0.39
-1.36
-2.52
-6.53
-14.24
-23.90
-32.13
-35.88
-34.29
-29.21
-24.21
-22.62
-25.48
-30.96
-35.41
-35.59
-30.49
-22.02
-13.85
-9.46
-10.15
-14.26
-18.19
-18.56
-14.05
-6.16
1.80
6.53
6.66
3.58
0.58
0.96
6.18
15.33
25.82
34.97
41.40
45.59
49.15
53.38
58.26
62.66
65.49
66.91
68.79
73.97
84.54
100.32
118.51
134.97
146.59
153.20
158.19
167.13
184.82
212.27
245.60
277.20
299.09
306.45
299.67
284.08
267.67
257.87
258.66
269.56
285.95
300.80
306.71
297.82
270.88
225.76
165.37
95.11
22.09
-46.27
-103.79
-147.08
-176.06
-193.81
-205.53
-216.42
-230.05
-247.96
-270.06
-295.57
-323.48
-352.18
-378.51
-397.68
-403.96
-393.02
-363.79
-319.43
-266.80
-214.72
-171.91
-144.56
-135.52
-144.00
-166.43
-197.08
-228.80
-253.63
-263.57
-252.49
-218.82
-167.98
-112.25
-67.81
-48.28
-58.55
-92.30
-134.14
-166.20
-175.52
-158.57
-121.19
-75.02
-31.98
0.08
19.03
27.44
29.46
28.27
24.75
17.86
5.95
-11.57
-32.92
-53.71
-67.83
-70.06
-58.34
-35.14
-6.78
19.08
36.53
43.20
40.43
32.17
22.95
15.89
11.61
8.79
5.62
1.23
-3.72
-7.56
-8.47
-5.80
-0.78
3.64
3.96
-2.13
-14.35
-29.36
-42.16
-48.50
-47.02
-39.99
-32.04
-27.79
-29.62
-36.40
-44.11
-47.55
-43.00
-30.29
-13.02
3.22
13.48
15.41
10.07
0.94
-8.10
-14.17
-15.64
-11.72
-1.95
13.53
33.64
56.04
77.56
95.48
108.24
115.67
118.60
118.52
116.81
114.54
111.91
108.29
102.90
96.24
91.74
95.68
114.21
149.15
195.35
241.78
276.49
292.62
291.93
282.04
270.57
259.49
244.04
217.42
177.03
128.03
81.32
47.28
30.43
28.30
35.05
46.91
64.58
91.23
127.82
170.01
208.76
234.71
242.70
234.04
214.82
191.93
169.59
148.40
127.06
104.42
80.94
58.30
37.95
19.61
1.44
-18.89
-42.26
-67.06
-89.68
-105.98
-113.72
-113.79
-110.21
-108.30
-112.49
-124.86
-145.14
-172.24
-205.13
-243.05
-284.04
-323.79
-355.43
-371.84
-368.36
-345.28
-308.13
-265.10
-224.26
-190.75
-165.93
-148.56
-136.49
-127.93
-121.95
-117.87
-114.65
-110.86
-104.96
-96.20
-84.74
-71.88
-59.44
-49.03
-41.48
-36.48
-32.92
-29.44
-25.01
-19.53
-13.72
-8.68
-5.15
-3.24
-2.09
-0.89
0.96
3.30
5.27
6.13
5.56
4.08
2.72
2.43
3.40
5.12
6.58
7.03
6.40
5.30
4.65
4.95
6.11
7.30
7.67
6.73
4.74
2.54
1.08
0.92
1.92
3.38
4.44
4.59
3.87
2.82
2.13
2.18
2.87
3.67
3.95
3.36
2.05
0.61
-0.27
-0.20
0.71
1.89
2.60
2.38
1.29
-0.12
-1.12
-1.26
-0.56
0.49
1.28
1.38
0.85
0.13
-0.26
0.01
0.84
1.80
2.39
2.35
1.87
1.41
1.47
2.22
3.30
4.00
3.70
2.27
0.27
-1.35
-1.73
-0.65
1.33
3.23
4.17
3.86
2.77
1.75
1.52
2.19
3.29
4.04
3.87
2.76
1.22
-0.01
-0.39
0.14
1.12
1.90
1.99
1.31
0.25
-0.62
-0.85
-0.39
0.45
1.13
1.28
0.83
0.12
-0.36
-0.22
0.59
1.68
2.49
2.55
1.75
0.47
-0.64
-1.03
-0.52
0.58
1.67
2.20
1.93
1.15
0.39
0.17
0.62
1.45
2.13
2.19
1.55
0.59
-0.08
-0.01
0.83
1.90
2.47
1.98
0.49
-1.31
-2.46
-2.25
-0.67
1.59
3.48
4.16
3.42
1.80
0.22
-0.54
-0.25
0.69
1.53
1.69
1.05
0.00
-0.79
-0.80
0.06
1.35
2.40
2.67
2.06
0.99
0.11
-0.07
0.52
1.47
2.17
2.17
1.44
0.40
-0.41
-0.56
-0.04
0.76
1.30
1.16
0.33
-0.83
-1.77
-2.05
-1.61
-0.70
0.20
0.68
0.68
0.43
0.33
0.64
1.32
1.97
2.18
1.68
0.65
-0.39
-0.83
-0.33
0.94
2.32
2.99
2.45
0.82
-1.13
-2.41
-2.32
-0.85
1.31
3.14
3.82
3.21
1.75
0.24
-0.68
-0.81
-0.49
-0.18
-0.23
-0.63
-1.00
-0.91
-0.19
0.93
1.91
2.17
1.46
0.05
-1.39
-2.15
-1.82
-0.58
0.95
2.05
2.26
1.61
0.58
-0.24
-0.44
-0.02
0.65
1.10
1.04
0.52
-0.13
-0.50
-0.36
0.19
0.78
1.00
0.67
-0.02
-0.62
-0.64
0.07
1.28
2.39
2.83
2.33
1.17
0.02
-0.44
0.14
1.46
2.76
3.17
2.31
0.51
-1.32
-2.16
-1.54
0.23
2.24
3.50
3.52
2.60
1.51
1.00
1.35
2.16
2.70
2.41
1.28
-0.15
-1.05
-0.89
0.25
1.72
2.58
2.17
0.46
-1.90
-3.89
-4.64
-3.87
-2.04
-0.06
1.16
1.17
0.21
-1.01
-1.74
-1.61
-0.79
0.16
0.67
0.53
0.00
-0.40
-0.25
0.46
1.29
1.67
1.26
0.20
-1.01
-1.71
-1.57
-0.76
0.26
0.87
0.81
0.23
-0.38
-0.47
0.27
1.71
3.27
4.23
3.98
2.44
0.13
-2.02
-3.11
-2.72
-1.12
0.83
2.13
2.25
1.34
0.10
-0.66
-0.58
0.07
0.60
0.44
-0.52
-1.73
-2.40
-1.97
-0.52
1.29
2.53
2.60
1.50
-0.10
-1.32
-1.54
-0.75
0.52
1.50
1.64
0.89
-0.28
-1.17
-1.28
-0.54
0.65
1.63
1.89
1.35
0.39
-0.37
-0.47
0.15
1.10
1.76
1.71
0.95
-0.11
-0.87
-0.94
-0.37
0.42
0.89
0.72
0.02
-0.72
-0.97
-0.46
0.68
1.88
2.47
2.07
0.78
-0.77
-1.77
-1.66
-0.50
1.12
2.35
2.59
1.84
0.66
-0.19
-0.22
0.46
1.28
1.51
0.83
-0.49
-1.74
-2.20
-1.56
-0.17
1.23
1.87
1.43
0.24
-1.00
-1.55
-1.14
-0.09
0.95
1.30
0.75
-0.36
-1.39
-1.75
-1.24
-0.21
0.75
1.13
0.78
0.02
-0.62
-0.69
-0.14
0.70
1.27
1.17
0.37
-0.74
-1.55
-1.64
-0.97
0.07
0.91
1.07
0.53
-0.30
-0.82
-0.54
0.57
2.13
3.42
3.85
3.15
1.60
-0.16
-1.43
-1.77
-1.25
-0.35
0.31
0.35
-0.15
-0.71
-0.80
-0.16
0.92
1.79
1.81
0.80
-0.84
-2.30
-2.83
-2.19
-0.78
0.67
1.40
1.14
0.20
-0.79
-1.26
-1.02
-0.39
0.09
-0.02
-0.76
-1.72
-2.29
-2.04
-1.00
0.37
1.42
1.67
1.09
0.09
-0.75
-0.99
-0.59
0.14
0.74
0.90
0.69
0.44
0.55
1.19
2.14
2.88
2.94
2.12
0.74
-0.53
-1.06
-0.50
0.93
2.61
3.79
3.97
3.09
1.56
0.02
-0.97
-1.20
-0.83
-0.29
0.01
-0.06
-0.32
-0.36
0.12
1.05
2.03
2.48
2.01
0.69
-0.90
-2.01
-2.10
-1.17
0.24
1.37
1.60
0.84
-0.44
-1.51
-1.74
-1.01
0.32
1.53
2.04
1.67
0.77
-0.10
-0.48
-0.31
0.06
0.10
-0.50
-1.58
-2.62
-2.99
-2.37
-1.00
0.49
1.35
1.19
0.21
-0.97
-1.61
-1.29
-0.18
1.14
1.98
1.94
1.17
0.22
-0.28
0.03
1.01
2.14
2.81
2.61
1.61
0.25
-0.86
-1.26
-0.89
-0.10
0.57
0.65
0.08
-0.76
-1.30
-1.10
-0.17
1.02
1.77
1.64
0.70
-0.49
-1.23
-1.09
-0.20
0.84
1.41
1.19
0.37
-0.47
-0.77
-0.33
0.56
1.32
1.46
0.87
-0.10
-0.85
-0.91
-0.29
0.60
1.13
0.92
0.02
-1.07
-1.70
-1.51
-0.63
0.37
0.83
0.40
-0.74
-1.95
-2.54
-2.17
-1.00
0.32
1.11
1.02
0.21
-0.65
-0.91
-0.22
1.21
2.70
3.55
3.31
2.04
0.29
-1.24
-1.97
-1.72
-0.75
0.41
1.27
1.55
1.37
1.08
1.02
1.30
1.74
1.92
1.50
0.46
-0.83
-1.80
-2.00
-1.34
-0.19
0.88
1.42
1.28
0.77
0.33
0.29
0.69
1.16
1.23
0.62
-0.54
-1.73
-2.29
-1.85
-0.55
0.96
1.91
1.79
0.70
-0.71
-1.64
-1.59
-0.62
0.69
1.61
1.71
1.11
0.33
-0.03
0.29
1.03
1.56
1.29
0.09
-1.63
-3.05
-3.42
-2.45
-0.50
1.60
3.02
3.28
2.48
1.15
-0.05
-0.66
-0.62
-0.18
0.28
0.49
0.47
0.42
0.59
1.05
1.59
1.85
1.49
0.47
-0.89
-2.01
-2.35
-1.71
-0.42
0.87
1.49
1.19
0.17
-0.93
-1.50
-1.26
-0.42
0.46
0.85
0.52
-0.25
-0.88
-0.87
-0.12
1.02
1.92
2.04
1.29
0.05
-1.00
-1.34
-0.83
0.11
0.86
0.89
0.12
-1.02
-1.85
-1.89
-1.11
-0.01
0.70
0.52
-0.50
-1.77
-2.48
-2.12
-0.78
0.90
2.08
2.27
1.53
0.42
-0.40
-0.54
-0.05
0.61
0.95
0.73
0.12
-0.43
-0.47
0.16
1.26
2.30
2.72
2.27
1.14
-0.13
-0.88
-0.77
0.06
1.03
1.49
1.07
0.00
-1.12
-1.59
-1.09
0.15
1.44
2.00
1.46
0.04
-1.54
-2.45
-2.22
-0.98
0.56
1.59
1.62
0.75
-0.37
-0.98
-0.65
0.42
1.56
1.96
1.23
-0.32
-1.87
-2.52
-1.82
-0.07
1.83
2.90
2.59
1.14
-0.66
-1.82
-1.77
-0.63
0.94
2.13
2.48
2.04
1.25
0.64
0.47
0.67
0.94
1.01
0.79
0.43
0.23
0.41
0.98
1.74
2.34
2.48
2.06
1.29
0.51
0.09
0.14
0.49
0.75
0.57
-0.16
-1.12
-1.85
-1.93
-1.26
-0.19
0.74
1.02
0.52
-0.45
-1.29
-1.47
-0.84
0.24
1.11
1.19
0.33
-1.07
-2.27
-2.64
-2.02
-0.79
0.33
0.74
0.28
-0.66
-1.38
-1.36
-0.54
0.63
1.44
1.39
0.44
-0.93
-2.01
-2.30
-1.72
-0.70
0.18
0.49
0.27
-0.12
-0.22
0.14
0.76
1.18
1.03
0.28
-0.69
-1.28
-1.01
0.17
1.84
3.30
3.92
3.46
2.20
0.74
-0.23
-0.35
0.31
1.29
1.97
1.93
1.13
0.02
-0.83
-0.97
-0.41
0.40
0.84
0.45
-0.74
-2.18
-3.11
-2.97
-1.76
-0.06
1.27
1.57
0.73
-0.73
-1.99
-2.42
-1.87
-0.79
0.12
0.32
-0.22
-1.03
-1.45
-1.07
0.03
1.26
1.94
1.65
0.55
-0.74
-1.50
-1.31
-0.30
0.94
1.76
1.82
1.30
0.73
0.60
1.07
1.81
2.24
1.96
0.98
-0.20
-0.90
-0.67
0.46
1.97
3.12
3.34
2.52
1.06
-0.34
-1.08
-0.92
-0.08
0.86
1.37
1.15
0.37
-0.46
-0.84
-0.54
0.25
1.01
1.23
0.70
-0.36
-1.38
-1.85
-1.57
-0.81
-0.13
-0.07
-0.79
-1.96
-2.92
-3.04
-2.14
-0.58
0.89
1.56
1.15
-0.03
-1.23
-1.71
-1.11
0.32
1.87
2.78
2.65
1.64
0.35
-0.54
-0.62
0.01
0.87
1.40
1.35
0.85
0.36
0.27
0.64
1.21
1.53
1.35
0.75
0.12
-0.10
0.28
1.08
1.88
2.23
1.89
1.01
-0.04
-0.81
-1.01
-0.63
0.02
0.50
0.42
-0.31
-1.42
-2.38
-2.73
-2.30
-1.39
-0.55
-0.26
-0.62
-1.30
-1.72
-1.43
-0.47
0.71
1.42
1.21
0.13
-1.22
-2.05
-1.83
-0.60
1.02
2.13
2.08
0.84
-0.96
-2.42
-2.75
-1.80
-0.08
1.54
2.29
1.92
0.79
-0.33
-0.79
-0.33
0.76
1.87
2.45
2.33
1.81
1.37
1.38
1.80
2.21
2.14
1.35
0.07
-1.10
-1.51
-0.91
0.47
1.96
2.82
2.63
1.50
0.00
-1.14
-1.45
-0.92
-0.02
0.62
0.53
-0.30
-1.42
-2.11
-1.93
-0.85
0.62
1.76
2.03
1.38
0.23
-0.73
-0.99
-0.45
0.51
1.32
1.52
1.05
0.26
-0.31
-0.29
0.29
1.03
1.36
0.95
-0.11
-1.32
-2.08
-2.01
-1.20
-0.16
0.49
0.35
-0.52
-1.64
-2.37
-2.35
-1.57
-0.46
0.42
0.74
0.56
0.32
0.46
1.14
2.02
2.49
2.02
0.56
-1.31
-2.74
-3.01
-1.93
-0.01
1.88
2.96
2.91
1.98
0.85
0.16
0.21
0.82
1.50
1.68
1.10
-0.05
-1.26
-1.92
-1.72
-0.83
0.23
0.80
0.55
-0.36
-1.40
-1.92
-1.55
-0.41
0.95
1.87
1.94
1.19
0.11
-0.66
-0.69
0.01
1.01
1.70
1.65
0.87
-0.22
-1.03
-1.15
-0.59
0.18
0.59
0.25
-0.76
-1.95
-2.68
-2.57
-1.70
-0.57
0.22
0.31
-0.15
-0.60
-0.49
0.33
1.46
2.19
1.94
0.71
-0.88
-1.92
-1.75
-0.39
1.50
2.92
3.19
2.24
0.68
-0.64
-1.05
-0.46
0.65
1.55
1.66
0.91
-0.25
-1.12
-1.11
-0.16
1.25
2.31
2.34
1.19
-0.62
-2.24
-2.84
-2.12
-0.47
1.28
2.24
2.02
0.89
-0.38
-0.97
-0.52
0.67
1.81
2.11
1.26
-0.36
-1.89
-2.50
-1.87
-0.34
1.27
2.16
2.02
1.08
-0.00
-0.59
-0.46
0.15
0.73
0.82
0.36
-0.28
-0.54
-0.07
1.01
2.10
2.44
1.63
-0.08
-1.90
-2.88
-2.48
-0.87
1.11
2.50
2.66
1.65
0.18
-0.89
-1.01
-0.20
0.96
1.71
1.55
0.53
-0.83
-1.77
-1.75
-0.77
0.63
1.67
1.75
0.79
-0.69
-1.89
-2.18
-1.42
-0.09
1.06
1.36
0.67
-0.58
-1.60
-1.77
-0.93
0.47
1.64
1.91
1.09
-0.39
-1.75
-2.26
-1.66
-0.25
1.30
2.26
2.32
1.65
0.76
0.23
0.29
0.80
1.31
1.41
1.01
0.42
0.15
0.57
1.56
2.53
2.77
1.89
0.14
-1.68
-2.65
-2.32
-0.92
0.70
1.63
1.40
0.26
-0.99
-1.53
-1.02
0.23
1.44
1.89
1.27
-0.09
-1.46
-2.11
-1.69
-0.48
0.83
1.50
1.15
-0.00
-1.29
-1.97
-1.64
-0.50
0.84
1.65
1.55
0.68
-0.38
-0.97
-0.76
0.12
1.16
1.77
1.59
0.73
-0.35
-1.11
-1.18
-0.56
0.36
1.06
1.16
0.63
-0.17
-0.77
-0.78
-0.23
0.49
0.87
0.56
-0.26
-1.04
-1.12
-0.20
1.40
2.83
3.19
2.05
-0.22
-2.57
-3.86
-3.43
-1.50
0.96
2.79
3.24
2.37
0.88
-0.33
-0.72
-0.33
0.29
0.53
0.12
-0.68
-1.26
-1.11
-0.07
1.40
2.57
2.82
1.96
0.45
-0.91
-1.40
-0.79
0.55
1.82
2.29
1.65
0.21
-1.25
-1.97
-1.55
-0.22
1.32
2.28
2.18
1.11
-0.34
-1.44
-1.69
-1.08
-0.08
0.66
0.66
-0.08
-1.13
-1.86
-1.85
-1.13
-0.12
0.59
0.65
0.16
-0.38
-0.38
0.39
1.61
2.56
2.50
1.24
-0.77
-2.54
-3.17
-2.31
-0.40
1.57
2.59
2.22
0.79
-0.84
-1.76
-1.56
-0.50
0.62
1.07
0.53
-0.66
-1.74
-1.97
-1.07
0.57
2.15
2.84
2.33
0.94
-0.52
-1.28
-0.99
0.04
1.09
1.45
0.87
-0.31
-1.40
-1.74
-1.08
0.24
1.52
2.10
1.67
0.46
-0.91
-1.78
-1.79
-1.08
-0.17
0.37
0.22
-0.45
-1.18
-1.46
-1.05
-0.22
0.50
0.61
0.00
-0.93
-1.51
-1.16
0.19
1.96
3.25
3.32
2.10
0.22
-1.25
-1.46
-0.23
1.83
3.64
4.30
3.53
1.86
0.22
-0.60
-0.36
0.55
1.38
1.53
0.87
-0.20
-1.01
-1.03
-0.19
1.04
1.94
1.94
0.93
-0.65
-2.03
-2.58
-2.11
-1.00
0.04
0.36
-0.19
-1.22
-2.04
-2.05
-1.13
0.28
1.47
1.83
1.21
0.02
-1.07
-1.45
-0.98
0.02
0.90
1.13
0.55
-0.53
-1.49
-1.80
-1.25
-0.19
0.78
1.10
0.58
-0.40
-1.14
-0.97
0.25
1.97
3.25
3.25
1.77
-0.54
-2.52
-3.15
-2.14
-0.09
1.87
2.72
2.17
0.78
-0.46
-0.72
0.13
1.49
2.42
2.24
0.93
-0.82
-2.11
-2.29
-1.36
-0.01
0.87
0.69
-0.49
-1.99
-2.90
-2.68
-1.42
0.19
1.29
1.31
0.35
-0.96
-1.78
-1.53
-0.24
1.49
2.85
3.21
2.45
1.06
-0.21
-0.69
-0.22
0.84
1.74
1.85
0.95
-0.52
-1.82
-2.27
-1.68
-0.50
0.53
0.77
0.13
-0.86
-1.37
-0.76
0.94
2.99
4.31
4.09
2.28
-0.32
-2.45
-3.13
-2.12
-0.06
1.92
2.87
2.48
1.24
0.03
-0.37
0.19
1.27
2.10
2.12
1.27
0.04
-0.85
-0.88
-0.03
1.18
2.01
1.91
0.87
-0.55
-1.58
-1.66
-0.78
0.49
1.36
1.28
0.27
-1.09
-1.99
-1.92
-0.92
0.41
1.28
1.14
0.06
-1.41
-2.51
-2.71
-1.97
-0.77
0.25
0.62
0.29
-0.38
-0.88
-0.86
-0.28
0.48
0.96
0.83
0.13
-0.71
-1.10
-0.63
0.66
2.22
3.22
3.06
1.71
-0.22
-1.73
-2.05
-1.03
0.71
2.23
2.74
2.10
0.87
-0.13
-0.33
0.25
1.03
1.28
0.65
-0.61
-1.82
-2.23
-1.56
-0.08
1.43
2.22
1.91
0.75
-0.56
-1.24
-0.88
0.40
1.97
3.05
3.12
2.15
0.62
-0.71
-1.26
-0.85
0.17
1.16
1.51
1.03
-0.02
-1.06
-1.58
-1.43
-0.85
-0.29
-0.14
-0.43
-0.89
-1.10
-0.81
-0.10
0.62
0.88
0.43
-0.61
-1.73
-2.32
-1.95
-0.69
0.88
1.96
1.95
0.84
-0.75
-1.89
-1.92
-0.82
0.76
1.91
2.00
1.06
-0.24
-1.08
-0.98
-0.10
0.90
1.28
0.70
-0.60
-1.92
-2.56
-2.18
-0.99
0.33
1.07
0.87
-0.07
-1.12
-1.59
-1.13
0.05
1.32
1.99
1.75
0.80
-0.24
-0.76
-0.48
0.37
1.22
1.49
0.97
-0.10
-1.16
-1.68
-1.42
-0.60
0.25
0.63
0.32
-0.52
-1.40
-1.82
-1.57
-0.79
0.03
0.43
0.21
-0.41
-0.89
-0.69
0.40
2.00
3.34
3.62
2.50
0.39
-1.73
-2.81
-2.35
-0.62
1.44
2.81
2.96
2.07
0.91
0.26
0.48
1.31
2.08
2.14
1.31
-0.11
-1.45
-2.09
-1.82
-0.87
0.12
0.55
0.15
-0.82
-1.76
-2.02
-1.32
0.09
1.54
2.27
1.93
0.73
-0.68
-1.51
-1.33
-0.27
1.05
1.87
1.75
0.76
-0.52
-1.42
-1.55
-0.96
-0.13
0.37
0.25
-0.40
-1.15
-1.51
-1.30
-0.68
-0.09
0.06
-0.38
-1.12
-1.64
-1.41
-0.25
1.48
3.03
3.61
2.84
1.01
-1.02
-2.24
-2.07
-0.64
1.27
2.69
2.98
2.20
0.95
0.01
-0.17
0.28
0.83
0.91
0.34
-0.62
-1.38
-1.47
-0.77
0.37
1.28
1.42
0.65
-0.67
-1.88
-2.33
-1.82
-0.64
0.54
1.05
0.63
-0.47
-1.61
-2.15
-1.81
-0.83
0.16
0.56
0.13
-0.83
-1.72
-1.94
-1.26
0.02
1.31
2.00
1.82
1.01
0.09
-0.37
-0.11
0.71
1.55
1.88
1.44
0.43
-0.53
-0.81
-0.06
1.48
3.06
3.81
3.16
1.27
-1.04
-2.72
-2.98
-1.80
0.10
1.65
2.03
1.13
-0.43
-1.66
-1.85
-0.94
0.49
1.56
1.70
0.95
-0.10
-0.71
-0.50
0.40
1.33
1.61
0.96
-0.37
-1.65
-2.17
-1.59
-0.17
1.38
2.30
2.15
1.07
-0.29
-1.21
-1.24
-0.45
0.57
1.14
0.80
-0.34
-1.69
-2.51
-2.32
-1.18
0.32
1.39
1.50
0.65
-0.63
-1.63
-1.85
-1.24
-0.29
0.43
0.51
0.03
-0.52
-0.54
0.24
1.62
2.94
3.46
2.79
1.17
-0.67
-1.82
-1.75
-0.57
1.03
2.17
2.31
1.52
0.43
-0.20
0.03
0.89
1.67
1.65
0.54
-1.25
-2.83
-3.36
-2.49
-0.55
1.53
2.86
2.93
1.89
0.43
-0.63
-0.79
-0.12
0.85
1.43
1.19
0.18
-1.08
-1.93
-1.91
-1.04
0.22
1.20
1.39
0.75
-0.34
-1.27
-1.57
-1.16
-0.37
0.26
0.31
-0.23
-0.99
-1.47
-1.35
-0.71
-0.01
0.24
-0.21
-1.14
-1.93
-1.95
-0.89
0.96
2.80
3.71
3.18
1.40
-0.78
-2.27
-2.37
-1.06
0.90
2.45
2.84
2.01
0.61
-0.42
-0.48
0.37
1.46
1.94
1.37
-0.05
-1.52
-2.18
-1.60
-0.02
1.71
2.70
2.48
1.23
-0.27
-1.18
-1.06
-0.07
1.11
1.74
1.40
0.24
-1.13
-2.05
-2.15
-1.54
-0.69
-0.16
-0.25
-0.86
-1.57
-1.89
-1.58
-0.74
0.20
0.76
0.69
0.10
-0.58
-0.90
-0.63
0.12
0.88
1.19
0.80
-0.07
-0.88
-1.03
-0.22
1.32
2.86
3.61
3.10
1.53
-0.31
-1.44
-1.26
0.15
2.02
3.37
3.55
2.59
1.13
0.04
-0.17
0.42
1.22
1.54
1.04
-0.06
-1.14
-1.60
-1.20
-0.23
0.66
0.87
0.23
-0.93
-1.95
-2.22
-1.61
-0.47
0.55
0.84
0.22
-0.99
-2.16
-2.68
-2.27
-1.16
0.11
0.91
0.89
0.13
-0.91
-1.68
-1.80
-1.30
-0.51
0.11
0.24
-0.07
-0.48
-0.60
-0.21
0.54
1.23
1.45
1.04
0.20
-0.54
-0.65
0.08
1.36
2.48
2.68
1.57
-0.54
-2.76
-4.01
-3.66
-1.83
0.61
2.54
3.20
2.58
1.36
0.45
0.42
1.22
2.21
2.65
2.13
0.84
-0.54
-1.30
-1.04
0.07
1.36
2.10
1.85
0.71
-0.71
-1.66
-1.64
-0.72
0.57
1.47
1.45
0.51
-0.88
-2.01
-2.37
-1.90
-0.99
-0.22
-0.01
-0.41
-1.06
-1.47
-1.30
-0.58
0.34
0.98
1.02
0.53
-0.14
-0.54
-0.41
0.15
0.70
0.81
0.27
-0.73
-1.61
-1.77
-0.88
0.81
2.57
3.48
2.98
1.21
-1.01
-2.56
-2.65
-1.21
1.04
3.03
3.92
3.53
2.38
1.30
0.91
1.29
2.00
2.37
2.00
0.97
-0.21
-0.89
-0.74
0.12
1.08
1.48
0.92
-0.46
-2.04
-3.07
-3.08
-2.21
-1.05
-0.38
-0.63
-1.67
-2.82
-3.29
-2.67
-1.11
0.67
1.87
2.02
1.25
0.18
-0.51
-0.45
0.22
1.01
1.35
1.02
0.22
-0.55
-0.83
-0.47
0.28
0.89
0.86
0.04
-1.29
-2.47
-2.81
-1.95
-0.13
1.87
3.06
2.82
1.26
-0.81
-2.26
-2.29
-0.87
1.25
2.98
3.50
2.72
1.27
0.08
-0.23
0.36
1.28
1.76
1.33
0.11
-1.26
-2.00
-1.67
-0.38
1.14
2.06
1.85
0.60
-1.01
-2.10
-2.11
-1.08
0.36
1.37
1.40
0.48
-0.82
-1.71
-1.65
-0.62
0.84
1.96
2.18
1.39
0.05
-1.16
-1.67
-1.35
-0.55
0.15
0.31
-0.12
-0.76
-1.07
-0.75
0.12
1.06
1.53
1.30
0.56
-0.11
-0.10
0.81
2.28
3.51
3.73
2.59
0.47
-1.65
-2.75
-2.29
-0.49
1.71
3.26
3.53
2.63
1.27
0.29
0.15
0.65
1.21
1.20
0.40
-0.84
-1.85
-2.06
-1.32
0.01
1.21
1.62
1.00
-0.33
-1.66
-2.32
-1.98
-0.92
0.19
0.64
0.11
-1.17
-2.52
-3.23
-2.96
-1.93
-0.75
-0.09
-0.24
-1.01
-1.82
-2.13
-1.69
-0.74
0.19
0.58
0.21
-0.68
-1.56
-1.90
-1.48
-0.46
0.63
1.25
1.13
0.42
-0.32
-0.46
0.35
1.93
3.53
4.29
3.66
1.83
-0.34
-1.74
-1.61
-0.05
2.09
3.64
3.77
2.47
0.54
-0.97
-1.29
-0.44
0.90
1.82
1.72
0.71
-0.56
-1.29
-1.07
-0.07
1.02
1.46
0.93
-0.31
-1.55
-2.07
-1.61
-0.47
0.61
0.96
0.33
-0.92
-2.04
-2.33
-1.53
-0.03
1.43
2.08
1.61
0.31
-1.09
-1.84
-1.61
-0.67
0.31
0.63
0.01
-1.24
-2.38
-2.72
-2.02
-0.59
0.82
1.51
1.23
0.28
-0.58
-0.69
0.24
1.83
3.29
3.76
2.88
0.99
-1.00
-2.10
-1.73
-0.08
2.05
3.64
4.02
3.17
1.73
0.51
0.05
0.34
0.88
1.06
0.55
-0.47
-1.45
-1.79
-1.28
-0.19
0.80
1.05
0.31
-1.04
-2.20
-2.38
-1.29
0.63
2.46
3.22
2.47
0.53
-1.68
-3.18
-3.41
-2.50
-1.17
-0.21
-0.09
-0.69
-1.50
-1.91
-1.63
-0.82
0.04
0.44
0.20
-0.44
-0.99
-0.95
-0.20
0.97
1.96
2.24
1.65
0.50
-0.55
-0.83
-0.09
1.38
2.81
3.38
2.68
0.99
-0.88
-1.98
-1.76
-0.41
1.30
2.42
2.38
1.34
-0.02
-0.86
-0.75
0.10
0.99
1.21
0.49
-0.82
-1.95
-2.19
-1.31
0.31
1.81
2.39
1.74
0.23
-1.31
-2.00
-1.44
0.08
1.76
2.74
2.56
1.40
-0.04
-0.96
-0.93
-0.12
0.87
1.35
0.97
-0.07
-1.19
-1.75
-1.49
-0.66
0.15
0.33
-0.34
-1.59
-2.76
-3.24
-2.77
-1.59
-0.36
0.29
0.06
-0.82
-1.69
-1.86
-0.95
0.79
2.59
3.52
3.06
1.39
-0.66
-2.02
-2.02
-0.70
1.20
2.69
3.14
2.55
1.53
0.81
0.83
1.41
1.96
1.84
0.82
-0.78
-2.21
-2.76
-2.15
-0.66
0.95
1.88
1.72
0.63
-0.75
-1.65
-1.68
-0.95
-0.04
0.38
0.00
-0.98
-1.94
-2.20
-1.45
0.06
1.64
2.55
2.37
1.28
-0.13
-1.16
-1.40
-0.91
-0.14
0.40
0.46
0.11
-0.24
-0.23
0.24
0.96
1.47
1.41
0.72
-0.27
-0.98
-0.93
0.04
1.51
2.71
2.88
1.71
-0.40
-2.51
-3.60
-3.15
-1.43
0.65
2.06
2.22
1.36
0.25
-0.24
0.23
1.29
2.12
1.97
0.71
-1.10
-2.48
-2.67
-1.57
0.26
1.78
2.19
1.28
-0.42
-1.94
-2.44
-1.67
-0.08
1.48
2.17
1.72
0.46
-0.83
-1.41
-0.97
0.22
1.47
2.10
1.81
0.86
-0.16
-0.64
-0.35
0.44
1.19
1.37
0.80
-0.25
-1.23
-1.65
-1.34
-0.55
0.18
0.36
-0.19
-1.24
-2.16
-2.33
-1.44
0.25
1.99
2.90
2.45
0.81
-1.18
-2.50
-2.47
-1.16
0.68
2.09
2.46
1.88
1.00
0.59
0.98
1.86
2.53
2.37
1.24
-0.35
-1.59
-1.83
-1.00
0.42
1.54
1.66
0.60
-1.15
-2.66
-3.10
-2.17
-0.28
1.65
2.66
2.30
0.83
-0.92
-2.00
-1.88
-0.74
0.69
1.57
1.36
0.20
-1.27
-2.29
-2.37
-1.60
-0.49
0.34
0.54
0.21
-0.18
-0.14
0.50
1.48
2.19
2.12
1.13
-0.38
-1.66
-2.00
-1.11
0.62
2.35
3.16
2.62
0.96
-0.97
-2.22
-2.23
-1.11
0.45
1.64
1.97
1.52
0.82
0.44
0.64
1.15
1.46
1.10
-0.01
-1.43
-2.48
-2.58
-1.67
-0.17
1.11
1.49
0.77
-0.64
-1.94
-2.37
-1.69
-0.30
0.98
1.38
0.68
-0.71
-1.93
-2.24
-1.42
0.09
1.44
1.92
1.31
0.03
-1.15
-1.55
-1.00
0.12
1.11
1.42
0.94
0.06
-0.57
-0.49
0.34
1.47
2.26
2.25
1.38
0.09
-0.95
-1.18
-0.42
0.98
2.26
2.66
1.80
-0.06
-2.07
-3.26
-3.01
-1.44
0.65
2.25
2.69
2.00
0.85
0.08
0.18
0.93
1.64
1.59
0.54
-1.06
-2.36
-2.62
-1.64
0.08
1.61
2.12
1.31
-0.40
-2.11
-2.95
-2.57
-1.23
0.28
1.18
1.07
0.15
-0.92
-1.45
-1.07
0.03
1.26
1.94
1.74
0.81
-0.28
-0.92
-0.75
0.09
1.09
1.64
1.40
0.49
-0.65
-1.45
-1.63
-1.26
-0.73
-0.44
-0.57
-0.92
-1.05
-0.57
0.56
1.99
3.04
3.14
2.09
0.30
-1.43
-2.30
-1.94
-0.59
1.03
2.14
2.32
1.75
1.00
0.70
1.08
1.88
2.46
2.30
1.26
-0.23
-1.48
-1.87
-1.29
-0.13
0.85
1.03
0.24
-1.12
-2.29
-2.64
-2.00
-0.76
0.32
0.63
-0.04
-1.29
-2.39
-2.71
-2.00
-0.59
0.85
1.65
1.49
0.57
-0.58
-1.35
-1.42
-0.90
-0.21
0.18
0.06
-0.41
-0.80
-0.73
-0.09
0.86
1.58
1.66
1.03
0.02
-0.73
-0.68
0.33
1.94
3.41
3.98
3.33
1.78
0.12
-0.80
-0.56
0.58
1.83
2.35
1.80
0.48
-0.84
-1.45
-1.16
-0.36
0.24
0.09
-0.83
-2.03
-2.82
-2.72
-1.75
-0.32
0.89
1.40
1.10
0.27
-0.55
-0.91
-0.64
0.04
0.70
0.94
0.62
-0.03
-0.56
-0.62
-0.12
0.63
1.13
1.03
0.29
-0.70
-1.40
-1.43
-0.82
-0.01
0.44
0.17
-0.76
-1.86
-2.53
-2.42
-1.62
-0.60
0.02
-0.10
-0.84
-1.69
-1.97
-1.27
0.35
2.29
3.72
3.97
2.91
1.09
-0.51
-1.03
-0.16
1.63
3.36
4.11
3.52
2.02
0.49
-0.25
0.07
1.02
1.85
1.90
1.06
-0.22
-1.24
-1.46
-0.86
0.12
0.80
0.68
-0.27
-1.59
-2.53
-2.50
-1.36
0.42
2.00
2.62
2.02
0.57
-0.93
-1.68
-1.36
-0.28
0.87
1.39
0.99
-0.01
-0.98
-1.33
-0.90
-0.02
0.71
0.79
0.10
-0.99
-1.86
-2.04
-1.46
-0.44
0.41
0.67
0.27
-0.47
-0.99
-0.83
0.07
1.36
2.38
2.53
1.65
0.09
-1.38
-2.02
-1.52
-0.21
1.18
1.90
1.69
0.87
0.14
0.05
0.67
1.53
1.91
1.37
0.03
-1.47
-2.38
-2.25
-1.20
0.14
1.00
0.89
-0.11
-1.41
-2.21
-2.00
-0.79
0.81
1.98
2.10
1.09
-0.52
-1.94
-2.49
-2.02
-0.87
0.26
0.83
0.69
0.17
-0.19
0.03
0.80
1.69
2.14
1.78
0.72
-0.50
-1.23
-1.13
-0.31
0.67
1.13
0.75
-0.32
-1.50
-2.08
-1.66
-0.32
1.38
2.63
2.84
1.91
0.28
-1.22
-1.85
-1.34
-0.00
1.42
2.19
1.99
1.09
0.14
-0.24
0.14
0.91
1.40
1.09
-0.06
-1.50
-2.50
-2.51
-1.54
-0.12
0.95
1.12
0.36
-0.85
-1.73
-1.75
-0.89
0.38
1.37
1.57
0.93
-0.12
-0.94
-1.05
-0.44
0.52
1.26
1.41
1.01
0.45
0.23
0.59
1.36
1.99
1.93
0.95
-0.67
-2.24
-3.07
-2.80
-1.63
-0.20
0.74
0.77
-0.04
-1.12
-1.78
-1.57
-0.53
0.84
1.82
1.86
0.93
-0.48
-1.61
-1.81
-0.96
0.52
1.87
2.47
2.19
1.44
0.88
0.99
1.73
2.51
2.59
1.57
-0.33
-2.32
-3.47
-3.26
-1.85
0.02
1.40
1.73
1.05
-0.06
-0.83
-0.80
-0.04
0.92
1.43
1.14
0.18
-0.88
-1.42
-1.09
-0.02
1.21
1.93
1.74
0.75
-0.50
-1.32
-1.31
-0.57
0.36
0.83
0.48
-0.52
-1.60
-2.10
-1.70
-0.63
0.51
1.06
0.75
-0.15
-0.96
-1.02
-0.07
1.57
3.06
3.59
2.77
0.91
-1.09
-2.27
-2.09
-0.74
1.00
2.18
2.25
1.31
0.05
-0.77
-0.73
-0.03
0.70
0.77
-0.03
-1.37
-2.50
-2.73
-1.82
-0.18
1.43
2.25
2.00
0.96
-0.21
-0.84
-0.67
0.06
0.83
1.13
0.82
0.17
-0.33
-0.33
0.19
0.87
1.22
0.90
-0.10
-1.36
-2.34
-2.58
-2.01
-0.96
0.02
0.42
0.07
-0.80
-1.69
-2.07
-1.75
-0.92
-0.06
0.32
0.03
-0.67
-1.25
-1.17
-0.23
1.29
2.68
3.22
2.54
0.90
-0.91
-1.96
-1.71
-0.33
1.39
2.50
2.46
1.46
0.26
-0.26
0.28
1.55
2.71
2.96
2.04
0.43
-1.01
-1.53
-0.95
0.25
1.34
1.64
1.06
0.02
-0.79
-0.85
-0.14
0.88
1.53
1.30
0.21
-1.27
-2.40
-2.64
-1.92
-0.67
0.46
0.97
0.74
0.08
-0.52
-0.68
-0.38
0.10
0.38
0.22
-0.29
-0.82
-1.00
-0.63
0.17
1.02
1.47
1.22
0.37
-0.69
-1.39
-1.31
-0.42
0.94
2.11
2.46
1.73
0.17
-1.54
-2.64
-2.69
-1.84
-0.68
0.09
0.09
-0.52
-1.14
-1.18
-0.42
0.80
1.80
1.99
1.30
0.20
-0.57
-0.51
0.40
1.58
2.34
2.16
1.11
-0.28
-1.28
-1.40
-0.65
0.50
1.38
1.51
0.87
-0.09
-0.78
-0.74
0.00
0.97
1.49
1.13
-0.07
-1.53
-2.48
-2.43
-1.41
-0.01
0.97
0.96
0.04
-1.20
-1.94
-1.65
-0.43
1.02
1.88
1.61
0.40
-1.05
-1.84
-1.44
0.03
1.89
3.25
3.50
2.57
0.96
-0.55
-1.28
-1.00
-0.02
1.07
1.66
1.55
0.96
0.42
0.39
0.96
1.83
2.40
2.24
1.33
0.07
-0.91
-1.18
-0.73
-0.01
0.45
0.26
-0.49
-1.30
-1.60
-1.06
0.15
1.44
2.11
1.75
0.51
-0.96
-1.93
-1.98
-1.23
-0.30
0.15
-0.23
-1.23
-2.20
-2.48
-1.82
-0.52
0.72
1.26
0.87
-0.07
-0.86
-0.94
-0.20
0.93
1.70
1.55
0.41
-1.23
-2.56
-2.96
-2.24
-0.74
0.85
1.87
1.94
1.13
-0.08
-1.06
-1.32
-0.75
0.37
1.49
2.12
2.07
1.55
0.98
0.74
0.89
1.15
1.12
0.59
-0.27
-1.00
-1.13
-0.51
0.58
1.58
1.95
1.49
0.43
-0.67
-1.30
-1.20
-0.53
0.26
0.67
0.49
-0.16
-0.90
-1.32
-1.22
-0.74
-0.23
-0.05
-0.39
-1.11
-1.80
-2.10
-1.80
-1.10
-0.42
-0.22
-0.68
-1.56
-2.30
-2.36
-1.54
-0.15
1.12
1.61
1.09
-0.06
-1.07
-1.27
-0.44
1.02
2.42
3.09
2.77
1.69
0.42
-0.43
-0.52
0.09
1.01
1.75
1.96
1.63
1.08
0.81
1.11
1.89
2.72
3.00
2.40
1.05
-0.45
-1.40
-1.40
-0.59
0.42
0.98
0.75
-0.07
-0.88
-1.10
-0.52
0.51
1.35
1.44
0.68
-0.49
-1.36
-1.37
-0.50
0.72
1.52
1.37
0.28
-1.19
-2.29
-2.50
-1.84
-0.83
-0.12
-0.16
-0.88
-1.78
-2.28
-2.04
-1.15
-0.08
0.59
0.53
-0.20
-1.13
-1.69
-1.52
-0.61
0.65
1.74
2.23
1.99
1.25
0.43
-0.02
0.13
0.75
1.49
1.92
1.82
1.30
0.73
0.49
0.72
1.18
1.43
1.09
0.12
-1.07
-1.87
-1.87
-1.11
-0.11
0.44
0.16
-0.86
-2.02
-2.62
-2.25
-1.02
0.45
1.45
1.53
0.80
-0.16
-0.68
-0.35
0.68
1.80
2.29
1.74
0.36
-1.17
-2.03
-1.76
-0.51
1.05
2.11
2.15
1.30
0.17
-0.48
-0.25
0.65
1.56
1.70
0.76
-0.99
-2.72
-3.60
-3.17
-1.60
0.38
1.93
2.48
2.00
0.90
-0.17
-0.71
-0.57
-0.00
0.52
0.62
0.24
-0.32
-0.56
-0.11
1.00
2.30
3.10
2.89
1.67
0.01
-1.31
-1.70
-1.14
-0.16
0.52
0.45
-0.36
-1.35
-1.83
-1.44
-0.35
0.83
1.42
1.09
0.11
-0.86
-1.15
-0.50
0.75
1.86
2.13
1.36
-0.07
-1.34
-1.77
-1.15
0.08
1.11
1.29
0.46
-0.89
-1.94
-2.07
-1.16
0.28
1.41
1.54
0.57
-1.06
-2.49
-2.99
-2.35
-0.93
0.56
1.49
1.58
0.99
0.17
-0.40
-0.48
-0.11
0.44
0.85
0.94
0.73
0.47
0.44
0.85
1.60
2.34
2.62
2.17
1.06
-0.26
-1.21
-1.42
-0.92
-0.14
0.35
0.26
-0.30
-0.86
-0.90
-0.23
0.88
1.85
2.10
1.46
0.25
-0.87
-1.31
-0.90
0.01
0.74
0.72
-0.14
-1.38
-2.26
-2.25
-1.34
-0.07
0.80
0.75
-0.15
-1.32
-1.97
-1.66
-0.48
0.97
1.94
1.95
1.03
-0.32
-1.42
-1.79
-1.36
-0.43
0.49
1.00
0.96
0.52
-0.02
-0.40
-0.53
-0.50
-0.51
-0.69
-1.00
-1.26
-1.19
-0.66
0.23
1.14
1.66
1.49
0.69
-0.34
-1.03
-0.94
-0.06
1.14
1.97
1.93
1.03
-0.24
-1.14
-1.14
-0.27
0.94
1.80
1.82
1.03
-0.07
-0.84
-0.86
-0.19
0.69
1.20
0.99
0.17
-0.75
-1.21
-0.86
0.16
1.31
1.94
1.69
0.70
-0.44
-1.04
-0.74
0.31
1.48
2.07
1.70
0.59
-0.61
-1.23
-0.93
0.03
1.03
1.47
1.11
0.19
-0.79
-1.41
-1.53
-1.31
-1.06
-0.96
-1.01
-1.01
-0.74
-0.12
0.78
1.70
2.34
2.47
2.02
1.18
0.30
-0.22
-0.18
0.34
0.95
1.19
0.80
-0.08
-0.98
-1.39
-1.04
-0.14
0.77
1.09
0.57
-0.53
-1.54
-1.82
-1.14
0.17
1.35
1.67
0.84
-0.78
-2.39
-3.15
-2.69
-1.32
0.20
1.01
0.69
-0.51
-1.85
-2.48
-2.01
-0.70
0.68
1.26
0.69
-0.71
-2.09
-2.63
-1.97
-0.49
1.03
1.86
1.79
1.18
0.62
0.54
0.93
1.42
1.54
1.11
0.36
-0.23
-0.19
0.57
1.76
2.78
3.03
2.25
0.65
-1.18
-2.51
-2.87
-2.22
-1.03
0.02
0.41
0.01
-0.77
-1.36
-1.28
-0.47
0.68
1.58
1.77
1.22
0.33
-0.29
-0.20
0.66
1.85
2.75
2.86
2.13
1.01
0.14
0.04
0.72
1.76
2.44
2.24
1.11
-0.49
-1.82
-2.27
-1.71
-0.56
0.47
0.70
-0.06
-1.42
-2.66
-3.11
-2.53
-1.22
0.18
1.03
1.08
0.52
-0.18
-0.63
-0.65
-0.44
-0.28
-0.40
-0.78
-1.15
-1.18
-0.65
0.32
1.36
1.97
1.79
0.83
-0.51
-1.57
-1.83
-1.12
0.18
1.44
2.04
1.80
1.07
0.45
0.44
1.11
2.06
2.70
2.63
1.90
0.96
0.35
0.39
0.93
1.44
1.37
0.48
-0.96
-2.31
-2.88
-2.36
-0.98
0.58
1.56
1.45
0.33
-1.23
-2.47
-2.80
-2.16
-1.03
-0.13
-0.06
-0.90
-2.16
-3.11
-3.10
-2.00
-0.26
1.36
2.25
2.27
1.79
1.35
1.27
1.51
1.69
1.42
0.62
-0.40
-1.07
-0.95
0.03
1.48
2.75
3.27
2.77
1.50
0.01
-1.07
-1.35
-0.89
-0.09
0.48
0.43
-0.25
-1.14
-1.73
-1.64
-0.92
-0.01
0.54
0.38
-0.43
-1.40
-1.93
-1.67
-0.69
0.49
1.22
1.10
0.20
-0.94
-1.63
-1.43
-0.41
0.86
1.67
1.54
0.55
-0.75
-1.60
-1.55
-0.69
0.38
0.94
0.52
-0.73
-2.18
-3.06
-2.86
-1.63
0.04
1.41
1.97
1.75
1.24
1.01
1.34
2.05
2.59
2.44
1.45
0.05
-1.07
-1.31
-0.54
0.78
1.85
2.04
1.17
-0.30
-1.60
-2.03
-1.41
-0.12
1.08
1.52
0.93
-0.33
-1.53
-2.03
-1.56
-0.44
0.68
1.19
0.89
0.11
-0.53
-0.50
0.32
1.49
2.35
2.33
1.36
-0.07
-1.19
-1.39
-0.60
0.68
1.64
1.62
0.50
-1.20
-2.65
-3.13
-2.45
-1.00
0.46
1.26
1.11
0.24
-0.75
-1.27
-1.02
-0.14
0.86
1.42
1.27
0.53
-0.33
-0.83
-0.80
-0.42
-0.12
-0.29
-0.98
-1.83
-2.31
-2.00
-0.91
0.57
1.82
2.38
2.14
1.35
0.40
-0.40
-1.04
-1.63
-2.31
-3.06
-3.62
-3.72
-3.24
-2.49
-1.93
-2.10
-3.20
-4.86
-6.46
-7.22
-6.67
-4.73
-1.93
0.80
2.12
0.99
-3.03
-9.25
-15.78
-20.22
-20.42
-15.73
-7.28
2.46
10.73
15.76
17.35
16.67
15.24
14.08
13.17
11.85
9.54
6.27
2.89
0.42
-0.35
0.36
1.59
2.29
1.84
0.58
-0.59
-0.75
0.34
2.23
3.76
4.14
3.11
1.20
-0.58
-1.48
-1.17
-0.03
1.26
2.07
2.09
1.37
0.22
-0.95
-1.85
-2.36
-2.52
-2.53
-2.59
-2.80
-3.12
-3.50
-3.88
-4.38
-5.27
-6.77
-8.86
-11.15
-12.88
-13.26
-11.87
-8.89
-5.18
-1.92
-0.09
-0.13
-1.68
-3.82
-5.56
-6.17
-5.62
-4.47
-3.69
-4.25
-6.75
-11.09
-16.37
-21.12
-24.10
-24.84
-24.24
-24.41
-27.59
-35.12
-46.55
-60.01
-73.20
-84.28
-92.33
-96.35
-94.83
-86.25
-70.56
-50.34
-30.39
-15.49
-7.29
-3.05
2.79
14.81
32.67
49.83
56.29
43.32
8.36
-43.42
-101.38
-153.74
-191.56
-210.52
-211.27
-197.61
-174.97
-148.95
-123.57
-100.39
-78.44
-55.40
-29.43
-0.42
29.64
58.01
82.73
103.58
121.37
136.50
147.71
152.23
147.77
134.68
116.54
98.92
86.74
81.75
82.23
84.04
83.26
78.15
69.75
61.02
55.03
53.67
56.66
62.01
67.09
69.52
67.90
61.84
51.85
39.30
26.52
16.61
12.76
16.80
27.35
39.26
45.07
38.51
18.29
-10.12
-36.26
-48.89
-41.58
-15.77
19.79
52.57
71.10
68.29
42.59
-3.04
-62.60
-128.34
-191.52
-243.44
-277.04
-288.83
-280.09
-256.45
-225.61
-194.49
-166.89
-142.83
-119.46
-93.06
-60.83
-21.51
24.27
73.99
123.15
165.49
194.53
206.13
200.43
183.00
162.46
146.27
136.70
129.66
117.62
94.89
62.36
28.14
3.63
-2.63
10.13
34.43
58.81
73.84
76.49
70.22
61.77
56.58
56.08
57.87
58.48
56.30
52.58
50.11
50.51
52.11
50.24
39.39
16.81
-15.13
-49.11
-75.43
-85.77
-76.53
-50.12
-14.19
21.09
46.22
55.49
48.94
32.61
17.09
13.90
30.91
68.74
119.65
170.19
206.31
218.49
204.56
169.07
120.27
66.85
15.98
-27.15
-58.93
-77.23
-81.99
-75.66
-62.74
-48.30
-36.07
-27.37
-21.48
-17.06
-13.57
-11.55
-12.06
-15.50
-20.97
-26.54
-30.17
-30.75
-28.52
-25.21
-23.17
-24.62
-30.60
-40.63
-52.76
-64.12
-71.88
-74.16
-70.65
-62.68
-52.61
-42.87
-34.96
-29.02
-24.06
-18.68
-11.95
-3.91
4.52
12.04
17.60
20.83
21.95
21.44
19.63
16.52
11.98
5.99
-0.94
-7.84
-13.39
-16.42
-16.34
-13.53
-9.13
-4.64
-1.35
0.23
0.41
0.10
0.34
1.78
4.48
7.98
11.59
14.66
16.81
17.98
18.39
18.45
18.62
19.25
20.36
21.59
22.29
21.84
19.96
16.94
13.58
10.82
9.34
9.13
9.48
9.28
7.61
4.23
-0.23
-4.54
-7.53
-8.68
-8.29
-7.25
-6.44
-6.26
-6.43
-6.37
-5.64
-4.38
-3.37
-3.54
-5.42
-8.72
-12.37
-15.03
-15.79
-14.68
-12.64
-11.04
-10.90
-12.35
-14.53
-16.05
-15.72
-13.18
-9.04
-4.47
-0.53
2.39
4.66
7.03
10.03
13.59
16.99
19.45
20.60
20.86
21.13
22.17
23.96
25.67
26.05
24.24
20.31
15.12
9.80
4.95
0.31
-4.94
-11.52
-19.40
-27.72
-35.08
-40.27
-42.74
-42.78
-41.31
-39.46
-38.21
-38.21
-39.62
-42.18
-45.28
-48.14
-50.11
-50.92
-50.64
-49.55
-47.86
-45.45
-42.02
-37.29
-31.28
-24.32
-16.67
-8.26
1.44
12.99
26.34
40.30
52.68
61.10
64.01
61.55
55.58
48.90
44.09
42.49
43.78
46.38
48.32
48.13
45.37
40.55
34.60
28.22
21.62
14.54
6.86
-1.04
-8.20
-13.38
-15.82
-15.62
-13.83
-11.99
-11.43
-12.58
-14.83
-16.81
-17.01
-14.53
-9.53
-3.15
2.92
7.29
9.44
9.86
9.67
9.89
10.83
11.98
12.55
11.98
10.50
8.99
8.42
9.23
11.14
13.41
15.44
17.23
19.22
21.80
24.74
27.01
27.21
24.29
18.30
10.40
2.31
-4.54
-9.68
-13.64
-17.42
-21.81
-26.79
-31.58
-35.13
-36.82
-36.91
-36.45
-36.79
-38.75
-42.19
-45.93
-48.34
-48.02
-44.41
-38.12
-30.76
-24.37
-20.38
-18.83
-17.86
-14.43
-5.85
8.43
25.73
40.68
47.35
41.56
22.52
-6.79
-40.87
-73.01
-96.52
-105.74
-97.23
-71.47
-33.77
6.70
40.09
59.67
64.49
59.07
50.05
42.34
37.01
31.88
24.09
12.32
-2.60
-18.52
-33.15
-44.78
-51.99
-53.50
-48.52
-37.59
-23.33
-9.84
-0.89
1.97
-0.08
-3.89
-6.30
-5.85
-3.21
-0.19
1.94
3.37
5.50
9.78
16.63
24.86
32.20
36.58
37.35
35.58
33.36
32.42
33.11
34.26
34.07
31.15
25.44
18.22
11.51
6.95
5.08
5.11
5.53
4.93
2.83
-0.16
-2.70
-3.65
-2.73
-0.67
1.23
1.86
0.75
-1.82
-5.22
-8.83
-11.81
-12.85
-10.35
-3.41
7.16
18.66
27.40
30.31
26.54
17.85
7.85
0.13
-3.17
-1.84
2.81
9.07
15.49
21.29
25.91
28.58
28.33
24.29
16.34
5.95
-3.39
-6.88
-0.40
17.09
42.34
68.81
89.73
101.09
103.15
99.42
93.96
89.07
84.49
78.83
71.65
64.43
59.81
59.71
63.94
70.10
74.90
75.86
71.96
63.39
50.86
35.41
18.40
1.34
-14.59
-29.42
-44.71
-62.68
-84.36
-108.05
-129.33
-143.02
-145.87
-138.41
-124.43
-108.65
-94.00
-80.55
-66.83
-52.17
-38.20
-28.14
-24.42
-26.75
-32.10
-36.79
-39.01
-40.07
-43.18
-51.04
-63.70
-78.04
-89.28
-93.27
-88.46
-76.34
-60.53
-45.13
-33.23
-26.15
-23.53
-24.07
-26.54
-30.48
-36.26
-44.26
-53.77
-62.40
-66.65
-63.40
-51.48
-32.35
-9.41
13.71
34.58
52.33
66.93
78.19
85.21
86.92
83.17
75.39
66.40
59.23
55.68
55.69
57.63
59.36
59.37
57.23
53.41
48.58
43.10
36.93
30.01
22.65
15.63
9.89
6.05
3.97
2.71
0.86
-2.78
-8.76
-16.58
-24.77
-31.27
-34.17
-32.55
-27.06
-19.80
-13.52
-10.34
-10.82
-13.76
-16.83
-17.77
-15.47
-10.37
-4.13
1.41
5.21
7.42
9.06
11.27
14.56
18.59
22.47
25.29
26.71
27.11
27.31
28.02
29.42
31.07
32.30
32.66
32.14
31.11
30.05
29.44
29.66
31.05
33.76
37.77
42.80
48.28
53.48
57.59
59.91
59.91
57.39
52.43
45.56
37.57
29.47
22.22
16.56
12.89
11.27
11.48
13.17
15.86
19.14
22.61
25.66
27.19
25.44
17.97
2.10
-24.21
-61.26
-106.90
-156.33
-202.82
-239.27
-259.82
-261.35
-243.93
-210.63
-166.70
-118.51
-72.68
-35.00
-9.28
3.95
7.88
8.65
12.94
25.03
44.81
67.72
87.30
98.39
99.54
93.35
84.70
77.98
75.26
75.89
77.49
77.36
73.61
65.40
52.87
36.88
18.96
1.17
-14.14
-24.85
-29.73
-28.66
-22.88
-14.64
-6.56
-0.91
1.01
-0.64
-4.48
-8.69
-11.83
-13.57
-14.56
-15.79
-17.48
-18.84
-18.62
-15.79
-10.71
-4.95
-0.50
1.51
1.32
0.11
-0.92
-1.65
-2.71
-4.76
-7.61
-9.83
-9.54
-5.76
0.64
7.14
10.98
10.72
7.26
3.27
1.63
3.95
9.68
16.39
21.21
22.09
18.71
12.26
4.85
-1.46
-5.59
-7.36
-7.36
-6.34
-4.88
-3.19
-1.25
0.87
3.03
4.68
5.26
4.57
2.94
1.15
0.18
0.66
2.60
5.37
7.96
9.51
9.68
8.83
7.79
7.46
8.38
10.39
12.63
13.87
13.06
9.82
4.66
-1.16
-6.16
-9.28
-10.28
-9.84
-9.13
-9.10
-10.05
-11.47
-12.42
-12.13
-10.44
-7.95
-5.62
-4.33
-4.31
-5.09
-5.77
-5.56
-4.21
-2.17
-0.40
0.15
-0.91
-3.11
-5.28
-6.05
-4.65
-1.27
2.95
6.52
8.32
8.07
6.31
3.86
1.32
-1.16
-3.77
-6.57
-9.22
-11.02
-11.28
-9.77
-6.94
-3.68
-0.85
1.01
2.08
2.96
4.38
6.61
9.27
11.36
11.78
9.89
5.94
1.05
-3.29
-5.89
-6.38
-5.21
-3.25
-1.32
0.18
1.23
2.04
2.78
3.69
5.16
7.69
11.75
17.42
24.01
30.34
35.23
37.91
38.29
36.62
33.12
27.77
20.37
11.00
0.51
-9.70
-17.84
-22.36
-22.55
-18.78
-12.54
-6.02
-1.38
-0.15
-2.70
-8.28
-15.07
-20.83
-23.34
-20.94
-13.00
-0.50
14.03
26.42
31.96
27.59
13.56
-5.64
-22.71
-30.55
-25.55
-9.58
10.60
26.05
29.34
17.80
-4.96
-30.39
-48.38
-51.80
-40.06
-19.76
-1.73
4.60
-3.49
-20.18
-34.13
-35.19
-20.59
2.98
23.34
30.12
21.03
2.56
-14.12
-20.40
-15.00
-3.80
4.53
4.32
-4.04
-15.17
-22.76
-23.52
-18.90
-13.48
-11.89
-16.17
-25.00
-34.85
-41.84
-43.51
-39.29
-30.27
-18.63
-6.73
3.50
11.06
16.15
19.90
23.76
28.60
34.22
39.34
42.28
41.85
38.00
31.95
25.62
20.92
18.90
19.49
21.60
23.64
24.32
23.29
21.25
19.56
19.31
20.56
22.08
21.73
17.58
8.72
-4.11
-18.66
-31.82
-40.54
-42.82
-38.40
-28.99
-17.85
-8.71
-4.42
-5.77
-11.25
-17.82
-22.40
-23.07
-19.84
-14.20
-8.25
-4.06
-2.98
-5.75
-12.20
-21.01
-29.36
-33.46
-29.57
-16.37
3.31
22.74
33.42
29.42
10.85
-15.04
-36.54
-42.62
-28.65
0.76
33.34
54.80
55.69
35.95
5.04
-22.83
-35.68
-29.83
-11.47
7.01
14.10
5.91
-11.47
-25.89
-26.84
-12.53
8.45
22.40
19.48
0.70
-21.39
-29.98
-14.51
21.92
62.96
87.84
83.34
51.75
9.80
-20.19
-22.91
1.67
38.29
65.16
66.20
39.83
-0.42
-34.19
-46.11
-34.65
-12.27
2.85
-1.54
-24.30
-52.10
-68.60
-65.28
-46.63
-26.90
-20.21
-31.13
-51.61
-66.09
-61.13
-33.57
8.00
48.40
74.18
79.98
69.72
52.91
38.74
31.87
31.33
32.65
31.31
25.36
16.13
6.93
0.71
-1.64
-1.68
-2.27
-5.83
-12.78
-21.43
-28.86
-32.42
-31.12
-26.03
-19.61
-14.53
-12.41
-13.31
-15.80
-17.87
-17.98
-15.77
-12.04
-8.26
-5.70
-4.87
-5.29
-6.04
-6.26
-5.68
-4.65
-3.81
-3.52
-3.61
-3.34
-1.99
0.65
4.01
6.96
8.51
8.38
7.28
6.49
7.11
9.41
12.66
15.60
17.15
17.09
16.02
15.05
15.03
16.08
17.60
18.60
18.26
16.24
12.80
8.59
4.40
0.91
-1.53
-2.95
-3.70
-4.20
-4.77
-5.37
-5.69
-5.34
-4.20
-2.55
-1.01
-0.16
-0.15
-0.58
-0.66
0.19
2.04
4.33
6.16
6.82
6.12
4.47
2.61
1.21
0.55
0.48
0.61
0.58
0.31
0.04
0.12
0.78
1.91
3.17
4.11
4.44
4.22
3.75
3.36
3.15
2.90
2.23
0.95
-0.78
-2.44
-3.39
-3.23
-2.03
-0.34
1.10
1.67
1.18
-0.13
-1.69
-2.94
-3.58
-3.70
-3.68
-3.94
-4.71
-5.88
-7.07
-7.82
-7.87
-7.32
-6.54
-6.02
-5.96
-6.20
-6.28
-5.72
-4.38
-2.61
-1.03
-0.26
-0.53
-1.55
-2.67
-3.24
-2.96
-2.06
-1.13
-0.75
-1.11
-1.93
-2.57
-2.48
-1.48
0.10
1.56
2.24
1.82
0.55
-0.96
-2.06
-2.38
-2.04
-1.46
-1.13
-1.23
-1.62
-1.87
-1.59
-0.61
0.83
2.23
3.10
3.19
2.69
2.15
2.11
2.81
3.99
5.00
5.19
4.31
2.66
1.01
0.10
0.23
1.13
2.11
2.51
2.07
1.04
-0.01
-0.48
-0.10
0.99
2.34
3.39
3.79
3.55
2.99
2.58
2.65
3.18
3.80
4.00
3.47
2.33
1.07
0.27
0.21
0.69
1.20
1.26
0.76
0.00
-0.49
-0.42
0.06
0.35
-0.21
-1.99
-4.74
-7.66
-9.76
-10.34
-9.36
-7.51
-5.81
-5.16
-5.82
-7.37
-8.97
-9.91
-9.99
-9.55
-9.13
-9.07
-9.19
-8.94
-7.74
-5.42
-2.36
0.67
2.90
3.97
4.08
3.81
3.82
4.51
5.77
7.16
8.07
8.14
7.38
6.12
4.89
4.08
3.89
4.19
4.67
4.99
4.97
4.62
4.19
4.00
4.22
4.74
5.21
5.24
4.67
3.72
2.91
2.69
3.13
3.84
4.18
3.71
2.59
1.43
1.01
1.73
3.26
4.68
4.94
3.48
0.56
-2.85
-5.58
-6.88
-6.78
-6.05
-5.73
-6.55
-8.51
-10.86
-12.47
-12.42
-10.47
-7.16
-3.60
-0.80
0.74
1.29
1.64
2.53
4.27
6.55
8.76
10.41
11.44
12.09
12.69
13.17
13.14
12.15
10.16
7.71
5.77
5.12
5.84
7.19
8.07
7.63
5.87
3.61
2.06
2.07
3.71
6.20
8.36
9.15
8.10
5.37
1.56
-2.57
-6.30
-9.08
-10.67
-11.15
-10.94
-10.58
-10.43
-10.52
-10.49
-9.97
-8.88
-7.60
-6.76
-6.80
-7.53
-8.21
-7.95
-6.36
-3.87
-1.55
-0.50
-1.18
-3.11
-5.13
-6.06
-5.32
-3.22
-0.72
1.11
1.67
1.10
0.11
-0.47
-0.14
0.98
2.27
2.98
2.65
1.35
-0.37
-1.78
-2.35
-2.02
-1.08
-0.04
0.76
1.27
1.67
2.11
2.57
2.83
2.58
1.70
0.45
-0.60
-0.76
0.38
2.55
4.80
5.81
4.52
0.80
-4.40
-9.38
-12.48
-12.78
-10.58
-7.13
-4.05
-2.61
-3.20
-5.37
-8.11
-10.44
-11.90
-12.70
-13.46
-14.64
-15.99
-16.52
-14.97
-10.64
-4.04
3.15
8.91
11.90
12.06
10.37
8.04
5.50
2.42
-2.05
-8.10
-14.79
-20.14
-22.05
-19.44
-12.90
-4.67
2.44
6.33
6.64
4.79
3.05
3.33
6.13
10.49
14.72
17.44
18.34
18.07
17.54
17.08
16.46
15.00
12.46
9.41
6.89
5.88
6.65
8.47
9.97
9.95
7.82
4.33
1.32
0.87
4.26
10.99
18.70
24.08
24.40
18.81
8.88
-2.22
-11.21
-16.23
-17.45
-16.51
-15.33
-15.02
-15.48
-15.70
-14.62
-11.87
-7.78
-3.29
0.76
4.18
7.41
11.11
15.53
19.65
21.49
19.02
11.43
0.08
-11.75
-20.32
-23.22
-20.51
-14.58
-8.59
-4.83
-3.58
-3.25
-1.69
2.45
8.73
15.31
19.77
20.43
16.97
10.45
2.96
-2.81
-3.97
1.97
15.99
36.34
57.83
72.81
73.87
57.38
25.78
-12.76
-47.60
-70.31
-78.01
-73.69
-63.72
-54.05
-47.77
-44.81
-43.59
-42.90
-42.73
-43.59
-45.39
-46.79
-45.66
-40.12
-29.76
-15.84
-0.85
12.46
21.96
26.71
26.92
23.76
18.82
13.76
9.95
8.17
8.54
10.56
13.33
15.91
17.65
18.32
18.13
17.46
16.69
15.92
15.00
13.69
11.79
9.45
7.14
5.52
5.24
6.58
9.27
12.55
15.37
16.83
16.52
14.68
12.05
9.54
7.82
7.13
7.33
8.10
9.24
10.79
12.91
15.66
18.78
21.69
23.72
24.42
23.82
22.35
20.56
18.78
16.99
14.89
12.28
9.24
6.29
4.08
3.09
3.22
3.76
3.63
1.87
-1.85
-7.01
-12.40
-16.69
-18.96
-19.11
-17.81
-16.15
-15.17
-15.37
-16.72
-18.72
-20.72
-22.14
-22.58
-21.84
-19.99
-17.38
-14.56
-12.06
-10.14
-8.67
-7.25
-5.52
-3.53
-1.77
-0.90
-1.22
-2.39
-3.48
-3.48
-1.89
0.97
4.18
6.76
8.21
8.70
8.81
9.05
9.55
10.06
10.18
9.73
8.86
7.94
7.27
6.90
6.57
5.90
4.58
2.59
0.14
-2.50
-5.12
-7.71
-10.39
-13.15
-15.64
-17.08
-16.49
-13.28
-7.67
-0.98
4.84
7.93
7.30
3.22
-2.98
-9.62
-15.37
-19.62
-22.32
-23.60
-23.33
-21.16
-16.79
-10.43
-3.09
3.68
8.39
10.22
9.33
6.78
3.92
1.88
1.10
1.33
1.91
2.24
2.02
1.35
0.58
-0.02
-0.28
-0.23
0.05
0.57
1.47
2.91
4.94
7.35
9.61
11.07
11.30
10.24
8.41
6.59
5.51
5.52
6.42
7.60
8.40
8.39
7.60
6.50
5.72
5.79
6.86
8.66
10.64
12.29
13.36
14.03
14.79
16.05
18.00
20.52
23.24
25.78
27.80
28.84
28.16
24.65
17.09
4.83
-11.68
-30.69
-49.46
-65.10
-75.22
-78.45
-74.55
-64.34
-49.55
-32.65
-16.41
-3.35
4.96
8.34
7.93
5.58
2.97
0.97
-0.45
-1.74
-3.24
-4.85
-6.09
-6.45
-5.75
-4.17
-2.10
0.04
1.96
3.59
4.89
5.86
6.43
6.59
6.38
5.98
5.60
5.47
5.73
6.38
7.26
8.13
8.75
9.03
9.03
8.91
8.77
8.53
7.98
6.96
5.56
4.26
3.78
4.70
7.14
10.58
14.06
16.56
17.41
16.55
14.44
11.76
9.10
6.70
4.54
2.51
0.64
-0.87
-1.73
-1.84
-1.48
-1.28
-1.94
-3.89
-6.93
-10.39
-13.56
-16.18
-18.80
-22.52
-28.40
-36.66
-46.28
-55.27
-61.50
-63.91
-62.95
-60.39
-58.11
-56.88
-55.80
-52.74
-45.68
-33.94
-18.66
-2.18
13.19
26.25
37.09
46.40
54.46
60.54
63.21
61.29
54.95
45.98
37.33
31.88
31.21
34.98
41.12
46.85
49.89
49.45
46.34
42.55
40.36
41.32
45.81
53.04
61.34
68.67
72.88
72.26
65.91
54.33
39.51
24.49
12.32
4.92
2.39
3.23
5.21
6.52
6.50
5.56
4.47
3.51
2.19
-0.40
-4.69
-9.67
-12.70
-10.37
0.05
18.92
43.24
67.12
83.54
86.22
71.36
38.53
-9.23
-65.62
-121.76
-167.39
-193.33
-194.38
-171.41
-131.43
-85.24
-43.49
-13.12
4.07
10.37
9.65
4.97
-2.23
-11.48
-22.07
-32.39
-40.28
-44.07
-43.43
-39.49
-34.60
-31.31
-31.46
-35.51
-42.21
-48.81
-52.22
-50.10
-41.72
-28.27
-12.18
3.73
17.12
26.74
32.45
34.78
34.45
32.03
27.98
22.90
17.84
14.16
13.21
15.58
20.74
27.07
32.54
35.56
35.64
33.45
30.28
27.33
25.10
23.45
21.92
20.10
17.97
15.98
14.88
15.50
18.26
22.79
27.81
31.58
32.57
30.28
25.62
20.60
17.59
18.26
23.03
31.07
40.87
51.06
60.93
70.46
79.78
88.51
95.32
98.08
94.48
82.62
61.18
29.23
-13.98
-68.51
-132.38
-200.55
-264.91
-316.26
-347.48
-356.24
-345.68
-322.70
-294.54
-265.91
-237.84
-208.66
-175.97
-138.30
-95.69
-49.44
-1.58
45.37
88.44
124.43
150.61
165.54
169.43
164.21
152.84
138.62
124.70
113.72
107.64
107.28
111.89
119.00
124.84
125.41
118.01
102.46
81.32
59.22
41.14
30.65
28.72
33.70
42.32
51.23
58.23
62.81
65.73
68.03
70.13
71.48
70.93
67.49
61.08
52.87
44.94
39.42
37.59
39.32
43.43
48.51
53.92
60.13
68.23
78.55
89.83
98.98
101.92
95.31
77.67
49.55
12.47
-31.99
-82.46
-136.52
-189.20
-232.59
-257.88
-259.38
-238.14
-202.65
-165.42
-137.15
-121.62
-114.63
-107.46
-92.70
-68.77
-40.53
-15.86
-0.65
4.37
3.43
2.47
5.41
12.38
20.17
25.06
25.22
21.70
17.45
15.48
17.07
21.00
24.41
24.50
20.15
12.67
5.06
0.53
0.99
6.23
14.23
22.11
27.29
28.39
25.45
19.63
12.66
6.20
1.31
-1.75
-3.40
-4.41
-5.48
-6.97
-8.91
-11.10
-13.32
-15.36
-16.87
-17.28
-15.87
-12.30
-6.86
-0.60
5.07
8.99
10.64
10.30
8.82
7.24
6.55
7.40
10.06
14.32
19.42
24.19
27.40
28.23
26.57
23.10
18.96
15.24
12.69
11.69
12.40
14.83
18.78
23.63
28.33
31.71
32.91
31.79
29.09
26.16
24.45
24.99
27.91
32.26
35.98
36.29
30.42
16.76
-4.02
-28.54
-51.53
-67.58
-73.30
-68.53
-56.16
-40.52
-25.41
-12.79
-2.92
4.76
10.48
13.76
13.97
11.09
6.19
1.04
-2.67
-4.20
-3.87
-2.68
-1.71
-1.65
-2.73
-4.82
-7.62
-10.77
-13.82
-16.33
-17.93
-18.42
-17.77
-16.15
-13.86
-11.29
-8.91
-7.15
-6.26
-6.20
-6.66
-7.22
-7.57
-7.78
-8.21
-9.23
-10.93
-12.87
-14.24
-14.11
-11.93
-7.76
-2.36
3.03
7.17
9.18
8.90
6.82
3.92
1.21
-0.64
-1.54
-1.97
-2.61
-3.98
-6.07
-8.25
-9.59
-9.35
-7.46
-4.58
-1.79
-0.03
0.35
-0.28
-1.20
-1.93
-2.48
-3.30
-4.68
-6.38
-7.63
-7.64
-6.29
-4.32
-2.98
-3.25
-5.33
-8.57
-11.99
-14.88
-17.05
-18.56
-19.29
-18.57
-15.48
-9.41
-0.70
9.30
18.78
26.22
30.92
33.00
32.92
31.12
27.84
23.34
18.18
13.29
9.62
7.78
7.71
8.73
10.02
11.03
11.79
12.73
14.33
16.73
19.60
22.31
24.19
24.85
24.20
22.42
19.75
16.42
12.55
8.33
4.12
0.51
-1.85
-2.51
-1.61
-0.11
0.32
-2.36
-9.94
-23.27
-41.66
-62.62
-82.26
-96.21
-101.04
-95.54
-81.19
-61.67
-41.43
-24.10
-11.36
-2.87
2.88
7.48
11.71
15.46
18.19
19.64
20.16
20.61
21.78
23.97
26.70
29.10
30.37
30.36
29.53
28.62
28.06
27.76
27.20
26.08
24.72
24.04
25.01
27.79
31.32
33.62
32.78
28.12
20.68
12.89
7.34
5.45
6.67
8.83
9.16
5.86
-0.84
-8.84
-14.96
-16.50
-12.35
-3.41
7.70
17.16
20.37
12.81
-8.62
-43.65
-87.31
-129.96
-159.77
-166.88
-147.44
-105.68
-52.45
-1.04
37.90
59.81
66.78
64.99
61.17
59.60
61.15
64.07
65.75
64.51
60.33
54.71
49.63
46.20
44.21
42.50
39.86
35.98
31.62
28.05
26.07
25.39
24.76
22.70
18.46
12.43
5.95
0.63
-2.41
-3.11
-2.18
-0.76
0.20
0.18
-0.76
-2.10
-3.16
-3.55
-3.40
-3.36
-4.20
-6.27
-9.32
-12.62
-15.45
-17.51
-19.07
-20.62
-22.42
-24.06
-24.74
-23.38
-19.20
-11.97
-2.27
8.09
15.71
15.68
2.60
-27.00
-72.10
-125.72
-175.98
-209.84
-217.88
-198.04
-156.29
-104.03
-53.47
-13.54
12.14
24.62
27.44
24.47
18.75
12.45
7.30
4.81
6.01
10.93
18.43
26.55
32.98
36.10
35.52
32.15
27.96
25.07
24.87
27.54
31.94
36.19
38.57
38.20
35.32
31.02
26.67
23.27
21.19
20.19
19.71
19.22
18.43
17.31
16.01
14.79
13.88
13.44
13.58
14.28
15.40
16.59
17.33
17.06
15.46
12.76
9.78
7.65
7.29
8.87
11.67
14.34
15.64
15.07
13.11
10.93
9.65
9.83
11.17
12.82
13.82
13.51
11.80
9.05
5.88
2.91
0.55
-1.04
-1.93
-2.31
-2.28
-1.88
-1.03
0.27
1.85
3.30
4.15
4.08
3.13
1.80
0.78
0.64
1.53
3.13
4.78
5.88
6.21
5.96
5.63
5.71
6.42
7.61
8.96
10.17
11.16
12.01
12.89
13.79
14.50
14.74
14.26
13.08
11.48
9.90
8.81
8.36
8.36
8.27
7.48
5.68
3.01
0.14
-2.15
-3.37
-3.62
-3.54
-3.92
-5.24
-7.34
-9.53
-11.08
-11.67
-11.62
-11.65
-12.47
-14.33
-16.96
-19.63
-21.52
-21.92
-20.38
-16.79
-11.46
-5.18
0.76
4.92
6.30
4.81
1.62
-1.27
-1.78
1.35
7.98
16.72
25.41
32.00
35.23
35.08
32.83
30.52
30.19
32.93
38.10
43.13
44.32
38.20
22.78
-1.62
-32.55
-66.03
-97.24
-121.08
-132.92
-129.72
-111.54
-82.36
-49.29
-20.41
-1.83
4.22
-0.59
-12.37
-27.02
-41.53
-53.87
-62.21
-64.72
-60.38
-50.42
-38.94
-31.82
-34.21
-47.94
-70.05
-93.51
-109.65
-111.05
-94.06
-60.17
-15.68
30.14
67.92
91.36
99.18
94.97
85.28
76.36
71.56
70.58
70.70
69.08
64.72
58.79
53.44
50.12
48.66
47.45
44.71
39.82
33.92
29.48
28.98
33.65
43.05
55.28
67.84
78.27
84.08
82.34
69.40
41.83
-1.56
-57.37
-116.71
-166.82
-194.90
-193.13
-162.15
-111.53
-56.45
-12.17
11.37
12.45
-3.09
-24.83
-42.08
-47.43
-38.59
-18.24
7.54
31.70
48.57
55.23
51.85
40.85
25.89
10.84
-0.99
-7.20
-6.52
0.90
13.37
27.84
40.56
48.35
49.81
45.81
39.08
32.98
30.35
32.66
39.90
50.60
62.10
71.13
74.54
70.35
58.59
41.54
22.96
6.76
-4.41
-10.01
-11.26
-10.29
-8.83
-7.51
-5.91
-3.11
1.47
7.51
13.69
17.97
18.35
13.52
3.44
-10.55
-26.05
-40.39
-51.46
-58.15
-60.41
-58.81
-54.04
-46.69
-37.42
-27.33
-18.10
-11.72
-9.60
-11.78
-16.61
-21.18
-22.42
-18.40
-9.10
3.55
16.33
25.87
29.69
26.95
18.71
7.75
-2.29
-8.00
-7.48
-1.07
8.69
18.04
23.58
23.62
18.77
11.40
4.38
-0.19
-1.68
-0.75
1.36
3.58
5.37
6.56
7.01
6.43
4.53
1.38
-2.32
-5.35
-6.48
-5.03
-1.29
3.48
7.61
9.62
8.85
5.68
1.39
-2.24
-3.47
-1.24
4.36
11.87
18.81
22.45
20.88
13.90
3.12
-8.59
-18.18
-23.53
-23.99
-20.29
-14.05
-7.16
-1.25
2.52
3.65
2.29
-0.83
-4.67
-8.31
-11.15
-13.07
-14.19
-14.55
-13.94
-12.07
-8.91
-4.96
-1.18
1.45
2.43
2.15
1.73
2.48
5.21
9.82
15.28
20.12
23.07
23.67
22.38
20.19
18.03
16.34
14.92
13.41
11.68
10.05
9.19
9.56
11.07
13.03
14.46
14.67
13.55
11.54
9.26
7.21
5.48
3.92
2.38
0.91
-0.31
-1.04
-1.22
-0.99
-0.66
-0.58
-0.97
-1.87
-3.15
-4.66
-6.26
-7.92
-9.59
-11.08
-12.00
-11.98
-10.93
-9.37
-8.36
-9.17
-12.59
-18.39
-25.30
-31.40
-35.00
-35.31
-32.78
-28.74
-24.77
-22.05
-20.98
-21.35
-22.53
-23.81
-24.58
-24.32
-22.71
-19.64
-15.33
-10.28
-5.08
-0.27
3.97
7.73
11.27
14.78
18.25
21.36
23.55
24.27
23.16
20.32
16.40
12.51
9.95
9.74
12.20
16.88
22.62
28.07
32.17
34.38
34.72
33.58
31.40
28.59
25.47
22.38
19.70
17.86
17.02
17.06
17.39
17.17
15.67
12.64
8.61
4.68
1.95
0.95
1.28
1.78
1.19
-1.11
-4.68
-8.26
-10.39
-10.18
-7.77
-4.10
-0.40
2.31
3.46
2.88
0.60
-3.14
-7.76
-12.31
-15.54
-16.57
-15.39
-13.09
-11.57
-12.51
-16.51
-22.55
-28.45
-31.92
-31.67
-28.04
-22.59
-17.22
-13.15
-10.51
-8.62
-6.73
-4.60
-2.72
-1.80
-2.23
-3.65
-5.09
-5.42
-3.93
-0.71
3.45
7.36
9.97
10.74
9.82
8.04
6.54
6.33
7.85
10.66
13.55
14.91
13.36
8.16
-0.57
-11.92
-24.42
-36.26
-45.49
-50.38
-49.71
-43.23
-31.82
-17.39
-2.38
10.90
20.91
27.09
29.80
30.04
29.04
27.96
27.66
28.44
30.04
31.63
32.11
30.58
26.82
21.44
15.86
11.79
10.51
12.31
16.21
20.15
21.66
18.64
10.02
-3.84
-21.14
-39.16
-54.93
-66.00
-71.00
-69.79
-63.48
-53.82
-42.64
-31.30
-20.32
-9.58
1.24
12.05
22.04
29.81
33.97
33.73
29.33
21.91
13.09
4.32
-3.40
-9.45
-13.30
-14.22
-11.51
-4.98
4.56
15.15
23.89
27.86
25.08
15.26
0.06
-17.27
-32.97
-43.90
-48.64
-47.78
-43.38
-37.79
-32.44
-27.19
-20.64
-11.19
1.63
16.53
30.78
41.42
46.62
46.50
42.79
37.85
33.38
29.62
25.53
19.81
11.92
2.77
-5.16
-9.10
-7.13
0.77
12.13
22.47
26.65
20.69
3.34
-23.38
-54.94
-85.61
-109.95
-123.95
-125.72
-115.96
-97.69
-75.27
-52.68
-31.71
-11.23
11.65
39.19
70.56
101.15
124.33
134.50
129.67
111.95
86.26
58.28
32.99
14.60
5.97
7.98
18.60
32.71
43.88
47.27
41.97
31.08
19.67
11.51
7.28
4.90
1.45
-5.04
-14.89
-27.44
-41.86
-57.26
-72.30
-84.79
-92.24
-92.91
-86.81
-75.83
-62.73
-49.70
-37.39
-25.07
-11.63
3.33
19.17
34.49
47.96
58.84
67.06
72.70
75.50
74.64
69.12
58.64
44.33
28.87
15.93
9.07
10.34
19.57
33.85
47.98
55.85
52.37
35.50
7.15
-27.61
-62.49
-92.14
-113.54
-125.85
-129.35
-124.26
-110.24
-87.02
-55.21
-16.83
24.99
66.58
104.23
134.06
151.96
154.19
138.91
107.91
67.23
26.03
-6.81
-25.66
-30.09
-24.52
-15.37
-8.25
-6.09
-9.20
-16.77
-28.31
-44.11
-64.30
-87.47
-109.81
-125.85
-130.34
-120.36
-96.45
-62.29
-23.33
14.91
48.13
73.77
90.79
99.43
100.76
96.34
87.98
77.20
64.95
51.47
36.80
21.17
5.58
-8.34
-18.74
-24.33
-24.74
-20.74
-14.13
-7.62
-4.40
-7.50
-18.71
-37.50
-60.43
-81.81
-95.53
-97.33
-86.40
-65.34
-38.70
-10.97
14.96
37.92
57.71
73.99
85.80
92.08
92.44
87.77
79.90
70.72
61.27
51.42
40.49
28.16
15.28
3.88
-3.41
-4.56
1.06
12.19
25.80
37.43
42.26
36.58
19.27
-7.20
-37.03
-62.71
-77.79
-79.32
-69.05
-52.51
-36.50
-26.21
-23.40
-26.47
-31.84
-35.95
-36.72
-33.67
-27.37
-18.57
-7.80
4.29
16.06
24.22
24.15
11.88
-13.14
-46.45
-78.96
-100.12
-102.20
-83.70
-49.97
-11.09
22.06
41.26
42.52
26.10
-4.26
-42.16
-79.40
-107.58
-120.32
-115.62
-96.83
-71.53
-48.30
-33.08
-27.21
-27.53
-28.36
-23.90
-10.02
14.82
49.14
88.50
126.00
153.94
166.40
161.74
143.88
120.71
100.61
88.54
84.42
83.91
81.82
75.77
67.51
61.72
62.33
