1539435408.00
64.000000
-0.00
-0.00
-0.00
-0.00
-0.00
-0.00
-0.00
-0.00
-0.00
-0.00
0.00
0.01
0.01
-0.00
-0.03
-0.05
-0.05
0.00
0.13
0.36
0.66
1.01
1.37
1.72
2.06
2.40
2.79
3.24
3.79
4.43
5.11
5.77
6.38
6.93
7.45
8.00
8.63
9.47
10.46
11.54
12.59
13.56
14.45
15.40
16.59
18.17
20.39
23.12
26.11
29.10
31.87
34.45
37.07
40.13
43.97
49.04
55.12
61.81
68.54
74.88
80.75
86.42
92.51
99.58
108.36
118.67
129.95
141.41
152.30
162.31
171.67
181.47
190.47
201.33
215.18
232.60
252.55
271.84
285.54
288.34
276.45
249.06
209.05
161.04
110.03
59.54
10.95
-36.01
-82.28
-128.54
-174.97
-221.10
-266.32
-309.19
-347.18
-376.83
-394.71
-398.80
-389.42
-369.39
-342.81
-313.86
-285.58
-259.49
-235.92
-214.67
-195.50
-178.20
-162.44
-147.55
-132.90
-118.12
-103.28
-88.92
-75.73
-64.26
-54.59
-46.40
-39.09
-32.13
-25.22
-18.33
-11.63
-5.41
0.02
4.49
7.98
10.62
12.75
14.70
16.75
18.95
21.16
23.05
24.32
24.87
24.80
24.39
23.94
23.63
23.46
23.32
23.08
22.63
22.00
21.23
20.41
19.58
18.76
17.99
17.31
16.76
16.40
16.21
16.13
16.06
15.90
15.58
15.11
14.54
13.94
13.36
12.81
12.30
11.84
11.42
11.04
10.66
10.25
9.81
9.37
9.00
8.76
8.66
8.65
8.63
8.54
8.39
8.23
8.13
8.09
8.05
7.93
7.66
7.28
6.89
6.61
6.48
6.49
6.54
6.53
6.37
6.09
5.71
5.30
4.90
4.54
4.24
3.98
3.78
3.59
3.40
3.15
2.84
2.51
2.23
2.06
2.05
2.16
2.31
2.35
2.18
1.74
1.08
0.29
-0.46
-1.04
-1.40
-1.53
-1.54
-1.52
-1.56
-1.68
-1.85
-2.03
-2.21
-2.40
-2.65
-2.95
-3.26
-3.52
-3.61
-3.50
-3.18
-2.74
-2.29
-1.92
-1.68
-1.53
-1.35
-1.07
-0.64
-0.12
0.39
0.78
1.02
1.13
1.17
1.21
1.25
1.23
1.14
0.97
0.83
0.81
0.99
1.37
1.88
2.39
2.77
2.95
2.95
2.78
2.52
2.21
1.88
1.58
1.36
1.29
1.40
1.68
2.06
2.40
2.59
2.57
2.33
1.97
1.58
1.26
1.10
1.10
1.22
1.38
1.51
1.56
1.57
1.59
1.71
1.98
2.39
2.87
3.33
3.64
3.72
3.50
3.03
2.41
1.82
1.41
1.28
1.42
1.71
2.01
2.22
2.32
2.34
2.34
2.33
2.25
2.03
1.64
1.14
0.66
0.35
0.30
0.51
0.89
1.32
1.67
1.87
1.91
1.80
1.55
1.21
0.80
0.42
0.15
0.07
0.19
0.49
0.87
1.23
1.47
1.53
1.43
1.22
1.00
0.85
0.82
0.86
0.88
0.80
0.61
0.37
0.20
0.20
0.39
0.67
0.90
1.00
0.96
0.86
0.81
0.86
0.98
1.06
1.01
0.81
0.54
0.32
0.22
0.27
0.41
0.55
0.61
0.58
0.47
0.33
0.24
0.24
0.36
0.57
0.82
1.06
1.26
1.39
1.43
1.34
1.11
0.74
0.32
-0.02
-0.09
0.15
0.64
1.15
1.47
1.45
1.14
0.71
0.34
0.13
0.06
0.05
0.07
0.13
0.26
0.50
0.79
1.05
1.18
1.19
1.10
0.97
0.82
0.66
0.45
0.18
-0.11
-0.37
-0.54
-0.61
-0.57
-0.49
-0.39
-0.31
-0.24
-0.15
-0.06
0.04
0.09
0.08
0.03
0.03
0.18
0.53
1.02
1.51
1.85
1.96
1.85
1.60
1.31
0.99
0.65
0.28
-0.08
-0.32
-0.37
-0.21
0.07
0.33
0.46
0.45
0.37
0.34
0.43
0.64
0.87
0.98
0.88
0.52
-0.03
-0.61
-1.07
-1.28
-1.21
-0.89
-0.45
-0.01
0.33
0.51
0.55
0.50
0.41
0.32
0.23
0.15
0.08
0.05
0.11
0.27
0.52
0.79
1.02
1.15
1.15
1.03
0.82
0.55
0.26
0.01
-0.13
-0.10
0.11
0.41
0.67
0.76
0.60
0.29
-0.02
-0.14
0.02
0.39
0.77
0.91
0.68
0.14
-0.47
-0.88
-0.93
-0.65
-0.24
0.09
0.23
0.24
0.24
0.35
0.57
0.75
0.77
0.56
0.15
-0.31
-0.70
-0.94
-1.00
-0.92
-0.72
-0.45
-0.13
0.18
0.40
0.50
0.49
0.40
0.29
0.22
0.20
0.20
0.20
0.20
0.19
0.19
0.25
0.38
0.56
0.77
0.93
0.98
0.87
0.58
0.15
-0.33
-0.73
-0.94
-0.93
-0.71
-0.37
-0.02
0.27
0.43
0.45
0.37
0.25
0.14
0.10
0.15
0.26
0.40
0.49
0.48
0.35
0.13
-0.12
-0.36
-0.53
-0.61
-0.60
-0.51
-0.36
-0.18
-0.01
0.12
0.20
0.25
0.32
0.44
0.60
0.74
0.75
0.56
0.23
-0.14
-0.38
-0.40
-0.24
-0.02
0.09
-0.00
-0.27
-0.55
-0.69
-0.57
-0.22
0.25
0.67
0.91
0.96
0.85
0.69
0.53
0.39
0.24
0.06
-0.15
-0.33
-0.40
-0.34
-0.17
0.03
0.18
0.24
0.25
0.27
0.36
0.49
0.61
0.63
0.48
0.17
-0.24
-0.61
-0.82
-0.79
-0.55
-0.20
0.13
0.33
0.33
0.19
-0.02
-0.23
-0.40
-0.50
-0.57
-0.59
-0.55
-0.43
-0.25
-0.03
0.15
0.22
0.18
0.07
-0.02
-0.01
0.13
0.40
0.75
1.12
1.43
1.64
1.70
1.59
1.34
0.98
0.55
0.12
-0.29
-0.63
-0.85
-0.91
-0.77
-0.44
-0.01
0.41
0.69
0.77
0.67
0.46
0.23
0.04
-0.10
-0.22
-0.32
-0.38
-0.37
-0.28
-0.13
0.02
0.12
0.14
0.07
-0.02
-0.09
-0.10
-0.05
-0.01
-0.03
-0.17
-0.41
-0.65
-0.77
-0.68
-0.39
-0.00
0.32
0.43
0.26
-0.14
-0.59
-0.93
-1.05
-0.92
-0.66
-0.41
-0.29
-0.33
-0.48
-0.62
-0.64
-0.47
-0.11
0.34
0.78
1.09
1.22
1.18
1.02
0.83
0.65
0.52
0.38
0.21
-0.02
-0.26
-0.45
-0.51
-0.42
-0.22
0.01
0.19
0.30
0.35
0.38
0.42
0.47
0.50
0.49
0.44
0.37
0.31
0.30
0.30
0.27
0.19
0.07
-0.07
-0.19
-0.28
-0.33
-0.37
-0.40
-0.41
-0.38
-0.31
-0.19
-0.02
0.15
0.31
0.41
0.42
0.33
0.16
-0.07
-0.30
-0.51
-0.66
-0.72
-0.64
-0.41
-0.04
0.39
0.78
1.01
1.02
0.83
0.52
0.19
-0.06
-0.19
-0.20
-0.13
0.00
0.13
0.21
0.23
0.19
0.12
0.04
-0.03
-0.10
-0.20
-0.35
-0.54
-0.75
-0.90
-0.94
-0.83
-0.57
-0.20
0.20
0.56
0.81
0.91
0.83
0.60
0.29
-0.03
-0.26
-0.37
-0.36
-0.27
-0.14
-0.03
0.02
-0.00
-0.10
-0.25
-0.39
-0.45
-0.35
-0.09
0.27
0.63
0.86
0.90
0.76
0.50
0.21
-0.07
-0.31
-0.48
-0.55
-0.46
-0.21
0.15
0.48
0.67
0.61
0.34
-0.02
-0.34
-0.49
-0.42
-0.16
0.16
0.44
0.55
0.47
0.22
-0.13
-0.45
-0.68
-0.75
-0.67
-0.48
-0.24
-0.01
0.14
0.20
0.15
0.06
-0.03
-0.07
-0.04
0.03
0.11
0.18
0.26
0.39
0.55
0.67
0.70
0.57
0.32
0.04
-0.15
-0.20
-0.10
0.05
0.17
0.21
0.18
0.14
0.10
0.06
-0.00
-0.11
-0.23
-0.33
-0.35
-0.28
-0.18
-0.13
-0.19
-0.34
-0.47
-0.43
-0.18
0.23
0.64
0.87
0.84
0.59
0.24
-0.05
-0.21
-0.21
-0.13
-0.03
0.06
0.15
0.26
0.36
0.43
0.40
0.28
0.09
-0.09
-0.16
-0.12
-0.01
0.07
0.03
-0.16
-0.42
-0.60
-0.59
-0.38
-0.05
0.25
0.39
0.37
0.23
0.08
-0.06
-0.19
-0.36
-0.58
-0.80
-0.93
-0.86
-0.59
-0.20
0.16
0.37
0.37
0.22
0.04
-0.09
-0.13
-0.12
-0.14
-0.24
-0.38
-0.49
-0.49
-0.37
-0.17
0.02
0.13
0.15
0.11
0.07
0.08
0.15
0.24
0.32
0.35
0.32
0.22
0.08
-0.07
-0.17
-0.21
-0.21
-0.18
-0.15
-0.14
-0.12
-0.08
-0.00
0.09
0.14
0.11
0.02
-0.08
-0.09
0.03
0.25
0.47
0.56
0.47
0.27
0.08
0.02
0.13
0.35
0.60
0.80
0.93
0.98
0.95
0.80
0.48
0.01
-0.51
-0.95
-1.16
-1.14
-0.98
-0.81
-0.74
-0.81
-0.95
-1.07
-1.10
-0.98
-0.70
-0.30
0.18
0.65
1.01
1.17
1.10
0.84
0.49
0.15
-0.12
-0.28
-0.36
-0.37
-0.34
-0.28
-0.20
-0.08
0.04
0.16
0.22
0.20
0.07
-0.11
-0.28
-0.36
-0.29
-0.10
0.16
0.40
0.56
0.58
0.47
0.28
0.10
0.01
0.06
0.24
0.46
0.61
0.61
0.49
0.34
0.28
0.36
0.53
0.63
0.53
0.21
-0.26
-0.65
-0.82
-0.69
-0.34
0.05
0.32
0.37
0.22
-0.03
-0.28
-0.43
-0.47
-0.42
-0.32
-0.24
-0.22
-0.25
-0.34
-0.44
-0.53
-0.59
-0.59
-0.50
-0.29
0.01
0.38
0.72
0.93
0.94
0.74
0.41
0.07
-0.15
-0.15
0.07
0.42
0.74
0.94
0.94
0.79
0.60
0.47
0.48
0.61
0.76
0.81
0.66
0.33
-0.11
-0.53
-0.82
-0.95
-0.91
-0.75
-0.51
-0.24
0.02
0.22
0.28
0.18
-0.06
-0.38
-0.68
-0.86
-0.88
-0.73
-0.46
-0.14
0.16
0.36
0.40
0.25
-0.06
-0.43
-0.75
-0.92
-0.91
-0.74
-0.51
-0.30
-0.14
-0.04
0.05
0.12
0.17
0.16
0.09
-0.01
-0.06
0.01
0.23
0.53
0.82
1.00
0.99
0.82
0.56
0.29
0.08
-0.06
-0.16
-0.25
-0.34
-0.44
-0.49
-0.46
-0.33
-0.12
0.10
0.27
0.30
0.19
-0.03
-0.28
-0.46
-0.51
-0.44
-0.27
-0.08
0.10
0.21
0.24
0.21
0.16
0.13
0.17
0.30
0.49
0.67
0.76
0.72
0.55
0.29
0.04
-0.16
-0.27
-0.29
-0.25
-0.17
-0.11
-0.11
-0.19
-0.32
-0.45
-0.52
-0.48
-0.33
-0.15
-0.01
0.06
0.04
-0.01
-0.07
-0.15
-0.26
-0.40
-0.53
-0.57
-0.46
-0.23
0.03
0.19
0.18
0.02
-0.18
-0.31
-0.31
-0.23
-0.14
-0.12
-0.16
-0.21
-0.20
-0.09
0.11
0.32
0.48
0.53
0.46
0.31
0.09
-0.11
-0.22
-0.18
0.05
0.40
0.77
1.04
1.16
1.10
0.94
0.73
0.54
0.36
0.20
0.05
-0.08
-0.19
-0.26
-0.30
-0.33
-0.33
-0.30
-0.25
-0.20
-0.18
-0.16
-0.08
0.13
0.48
0.87
1.14
1.12
0.74
0.10
-0.56
-1.02
-1.15
-0.98
-0.68
-0.43
-0.36
-0.47
-0.70
-0.93
-1.10
-1.15
-1.08
-0.91
-0.68
-0.42
-0.15
0.11
0.36
0.59
0.78
0.91
0.93
0.87
0.78
0.70
0.68
0.70
0.71
0.66
0.53
0.35
0.18
0.08
0.08
0.16
0.25
0.30
0.27
0.20
0.11
0.05
0.00
-0.05
-0.15
-0.31
-0.54
-0.79
-0.96
-1.00
-0.86
-0.55
-0.14
0.25
0.51
0.55
0.39
0.11
-0.19
-0.41
-0.51
-0.49
-0.38
-0.25
-0.13
-0.06
-0.05
-0.09
-0.12
-0.05
0.14
0.42
0.68
0.81
0.76
0.57
0.31
0.05
-0.21
-0.50
-0.82
-1.12
-1.29
-1.21
-0.84
-0.25
0.38
0.89
1.19
1.27
1.17
0.99
0.76
0.48
0.16
-0.21
-0.55
-0.79
-0.84
-0.69
-0.44
-0.24
-0.23
-0.41
-0.65
-0.75
-0.55
-0.03
0.62
1.12
1.23
0.93
0.36
-0.21
-0.54
-0.56
-0.34
-0.07
0.10
0.14
0.11
0.10
0.15
0.27
0.40
0.52
0.59
0.62
0.64
0.64
0.59
0.51
0.38
0.23
0.07
-0.08
-0.25
-0.43
-0.59
-0.68
-0.67
-0.53
-0.30
-0.06
0.10
0.15
0.07
-0.10
-0.32
-0.51
-0.62
-0.60
-0.46
-0.22
0.06
0.31
0.46
0.48
0.38
0.22
0.04
-0.11
-0.22
-0.31
-0.35
-0.32
-0.20
0.00
0.24
0.42
0.44
0.24
-0.15
-0.59
-0.91
-0.98
-0.77
-0.34
0.17
0.60
0.87
0.92
0.77
0.48
0.15
-0.14
-0.29
-0.27
-0.10
0.15
0.40
0.59
0.69
0.72
0.66
0.53
0.32
0.09
-0.06
-0.04
0.18
0.53
0.86
1.02
0.96
0.69
0.31
-0.07
-0.44
-0.78
-1.09
-1.32
-1.39
-1.21
-0.81
-0.29
0.16
0.40
0.41
0.25
0.02
-0.17
-0.33
-0.47
-0.61
-0.74
-0.82
-0.83
-0.75
-0.61
-0.46
-0.29
-0.11
0.08
0.24
0.29
0.19
-0.03
-0.28
-0.48
-0.57
-0.55
-0.48
-0.39
-0.26
-0.06
0.22
0.52
0.71
0.68
0.41
0.01
-0.34
-0.52
-0.46
-0.21
0.11
0.40
0.63
0.76
0.83
0.83
0.78
0.67
0.55
0.44
0.38
0.35
0.31
0.19
-0.02
-0.26
-0.46
-0.51
-0.40
-0.13
0.18
0.40
0.45
0.30
0.04
-0.21
-0.35
-0.34
-0.23
-0.09
-0.01
0.02
0.03
0.11
0.29
0.54
0.80
0.97
0.97
0.81
0.59
0.39
0.34
0.45
0.67
0.90
0.99
0.85
0.50
0.04
-0.39
-0.67
-0.81
-0.86
-0.92
-1.01
-1.09
-1.04
-0.80
-0.44
-0.10
0.07
0.00
-0.24
-0.47
-0.53
-0.36
-0.05
0.24
0.38
0.33
0.17
0.01
-0.08
-0.07
-0.02
0.01
-0.03
-0.11
-0.19
-0.18
-0.05
0.14
0.28
0.26
0.03
-0.33
-0.66
-0.80
-0.69
-0.40
-0.08
0.10
0.08
-0.12
-0.38
-0.59
-0.65
-0.54
-0.28
0.07
0.38
0.54
0.50
0.27
-0.05
-0.33
-0.46
-0.42
-0.27
-0.10
0.05
0.18
0.33
0.49
0.63
0.67
0.58
0.36
0.10
-0.10
-0.18
-0.14
-0.06
-0.00
-0.03
-0.13
-0.25
-0.31
-0.29
-0.21
-0.13
-0.07
-0.05
-0.04
-0.01
0.04
0.09
0.09
0.08
0.07
0.13
0.29
0.52
0.78
1.00
1.12
1.11
1.01
0.81
0.54
0.25
-0.02
-0.21
-0.28
-0.23
-0.16
-0.12
-0.19
-0.36
-0.56
-0.70
-0.71
-0.59
-0.41
-0.22
-0.07
0.03
0.10
0.15
0.15
0.07
-0.08
-0.25
-0.35
-0.33
-0.22
-0.09
-0.06
-0.16
-0.39
-0.63
-0.81
-0.88
-0.81
-0.62
-0.33
0.04
0.48
0.91
1.25
1.44
1.44
1.29
1.06
0.80
0.55
0.31
0.07
-0.15
-0.31
-0.37
-0.29
-0.09
0.16
0.39
0.55
0.58
0.47
0.21
-0.15
-0.56
-0.90
-1.09
-1.08
-0.88
-0.61
-0.36
-0.21
-0.17
-0.18
-0.19
-0.14
-0.06
0.04
0.12
0.17
0.14
0.00
-0.24
-0.58
-0.90
-1.07
-0.98
-0.63
-0.08
0.53
1.03
1.34
1.40
1.25
0.98
0.68
0.45
0.35
0.38
0.45
0.49
0.40
0.19
-0.10
-0.35
-0.47
-0.41
-0.22
0.01
0.18
0.22
0.13
-0.04
-0.18
-0.22
-0.14
0.01
0.14
0.16
0.06
-0.13
-0.32
-0.45
-0.50
-0.49
-0.46
-0.45
-0.42
-0.34
-0.15
0.14
0.50
0.82
1.03
1.08
0.99
0.83
0.70
0.65
0.68
0.73
0.69
0.55
0.34
0.20
0.27
0.60
1.10
1.58
1.85
1.83
1.59
1.34
1.26
1.43
1.84
2.37
2.88
3.25
3.37
3.11
2.33
1.01
-0.73
-2.57
-4.13
-5.09
-5.32
-4.93
-4.18
-3.32
-2.51
-1.82
-1.22
-0.74
-0.41
-0.27
-0.31
-0.47
-0.63
-0.71
-0.66
-0.49
-0.23
0.05
0.29
0.40
0.33
0.08
-0.30
-0.69
-0.97
-1.08
-1.03
-0.94
-0.90
-0.95
-1.04
-1.02
-0.78
-0.30
0.28
0.73
0.85
0.60
0.10
-0.37
-0.54
-0.28
0.34
1.04
1.55
1.67
1.42
0.95
0.50
0.18
0.00
-0.12
-0.29
-0.54
-0.79
-0.94
-0.90
-0.66
-0.31
0.06
0.37
0.59
0.71
0.76
0.69
0.53
0.28
0.00
-0.21
-0.33
-0.37
-0.35
-0.33
-0.30
-0.23
-0.07
0.14
0.36
0.49
0.51
0.44
0.38
0.39
0.49
0.63
0.71
0.67
0.51
0.25
-0.04
-0.29
-0.45
-0.50
-0.45
-0.35
-0.25
-0.23
-0.29
-0.41
-0.52
-0.57
-0.54
-0.47
-0.42
-0.42
-0.47
-0.51
-0.49
-0.34
-0.07
0.30
0.68
1.01
1.22
1.28
1.17
0.92
0.59
0.21
-0.13
-0.37
-0.48
-0.44
-0.28
-0.07
0.08
0.13
0.06
-0.07
-0.20
-0.27
-0.28
-0.25
-0.22
-0.22
-0.27
-0.40
-0.59
-0.80
-0.96
-0.97
-0.79
-0.46
-0.08
0.22
0.33
0.27
0.12
0.00
0.02
0.21
0.51
0.84
1.11
1.24
1.22
1.06
0.81
0.48
0.09
-0.34
-0.79
-1.16
-1.37
-1.32
-1.00
-0.52
-0.01
0.37
0.55
0.57
0.52
0.48
0.47
0.44
0.34
0.17
-0.03
-0.17
-0.18
-0.11
-0.03
-0.03
-0.14
-0.32
-0.44
-0.41
-0.20
0.11
0.40
0.55
0.51
0.36
0.19
0.09
0.08
0.09
0.08
-0.00
-0.09
-0.14
-0.08
0.05
0.19
0.24
0.16
-0.02
-0.24
-0.46
-0.68
-0.92
-1.16
-1.39
-1.50
-1.45
-1.23
-0.89
-0.56
-0.34
-0.26
-0.27
-0.24
-0.05
0.34
0.88
1.39
1.68
1.58
1.10
0.37
-0.37
-0.88
-1.07
-0.96
-0.71
-0.49
-0.35
-0.26
-0.11
0.17
0.58
0.99
1.27
1.32
1.15
0.85
0.55
0.30
0.13
-0.01
-0.11
-0.17
-0.15
-0.02
0.17
0.33
0.39
0.32
0.15
-0.03
-0.15
-0.16
-0.08
0.04
0.13
0.16
0.15
0.11
0.08
0.09
0.14
0.20
0.24
0.20
0.11
0.00
-0.04
0.03
0.16
0.29
0.31
0.19
-0.02
-0.24
-0.40
-0.49
-0.52
-0.53
-0.53
-0.49
-0.38
-0.22
-0.07
0.02
0.00
-0.06
-0.13
-0.15
-0.17
-0.22
-0.35
-0.51
-0.59
-0.51
-0.26
0.07
0.36
0.54
0.61
0.65
0.74
0.88
1.02
1.09
1.03
0.87
0.66
0.43
0.21
0.01
-0.17
-0.32
-0.43
-0.49
-0.50
-0.44
-0.32
-0.11
0.16
0.41
0.54
0.50
0.32
0.11
-0.02
-0.01
0.10
0.21
0.17
-0.06
-0.46
-0.91
-1.29
-1.52
-1.57
-1.45
-1.21
-0.88
-0.52
-0.17
0.09
0.25
0.28
0.21
0.06
-0.14
-0.38
-0.64
-0.85
-0.94
-0.82
-0.49
-0.04
0.40
0.68
0.74
0.65
0.54
0.52
0.61
0.77
0.87
0.83
0.66
0.42
0.23
0.12
0.10
0.10
0.08
0.03
0.00
0.04
0.17
0.36
0.55
0.64
0.61
0.47
0.26
0.09
0.00
0.04
0.15
0.28
0.36
0.34
0.26
0.17
0.13
0.16
0.21
0.24
0.22
0.14
0.04
-0.08
-0.22
-0.37
-0.52
-0.63
-0.64
-0.53
-0.35
-0.17
-0.06
-0.06
-0.09
-0.10
-0.08
-0.07
-0.15
-0.36
-0.63
-0.83
-0.84
-0.60
-0.20
0.21
0.47
0.53
0.43
0.30
0.21
0.21
0.24
0.26
0.25
0.26
0.30
0.42
0.57
0.73
0.81
0.76
0.58
0.28
-0.08
-0.42
-0.64
-0.67
-0.52
-0.27
-0.04
0.09
0.08
-0.02
-0.17
-0.31
-0.45
-0.58
-0.69
-0.76
-0.75
-0.68
-0.58
-0.48
-0.38
-0.26
-0.03
0.30
0.69
1.02
1.18
1.10
0.82
0.43
0.06
-0.19
-0.29
-0.25
-0.13
-0.01
0.08
0.11
0.07
-0.01
-0.14
-0.32
-0.55
-0.80
-0.99
-1.01
-0.80
-0.37
0.16
0.62
0.86
0.83
0.59
0.28
0.04
-0.07
-0.05
0.04
0.12
0.16
0.19
0.19
0.18
0.10
-0.07
-0.32
-0.62
-0.85
-0.93
-0.80
-0.48
-0.09
0.25
0.44
0.43
0.28
0.08
-0.08
-0.14
-0.12
-0.06
-0.02
0.00
0.01
0.02
0.03
0.02
-0.03
-0.12
-0.19
-0.21
-0.18
-0.13
-0.13
-0.23
-0.39
-0.52
-0.56
-0.43
-0.17
0.17
0.52
0.81
1.00
1.04
0.91
0.64
0.29
-0.01
-0.18
-0.16
0.02
0.24
0.40
0.42
0.32
0.16
0.02
-0.05
-0.08
-0.11
-0.15
-0.23
-0.29
-0.29
-0.22
-0.11
-0.04
-0.09
-0.28
-0.57
-0.86
-1.07
-1.14
-1.06
-0.88
-0.67
-0.47
-0.32
-0.21
-0.09
0.08
0.34
0.67
1.02
1.32
1.52
1.59
1.57
1.47
1.28
0.99
0.59
0.16
-0.19
-0.33
-0.23
0.04
0.34
0.50
0.46
0.27
0.05
-0.09
-0.10
-0.00
0.14
0.26
0.30
0.23
0.04
-0.22
-0.50
-0.72
-0.82
-0.78
-0.66
-0.52
-0.40
-0.31
-0.21
-0.08
0.06
0.17
0.20
0.15
0.07
0.02
0.06
0.19
0.36
0.49
0.49
0.34
0.04
-0.30
-0.56
-0.62
-0.44
-0.08
0.31
0.56
0.57
0.34
-0.01
-0.35
-0.55
-0.59
-0.51
-0.36
-0.21
-0.07
0.07
0.21
0.35
0.44
0.42
0.28
0.02
-0.29
-0.55
-0.68
-0.66
-0.54
-0.41
-0.35
-0.42
-0.61
-0.84
-1.00
-1.00
-0.82
-0.49
-0.13
0.17
0.34
0.37
0.35
0.39
0.55
0.79
1.02
1.10
0.97
0.68
0.37
0.16
0.10
0.14
0.15
0.04
-0.21
-0.50
-0.70
-0.69
-0.46
-0.10
0.23
0.41
0.37
0.16
-0.11
-0.36
-0.50
-0.53
-0.47
-0.37
-0.24
-0.06
0.15
0.36
0.53
0.59
0.52
0.33
0.12
-0.03
-0.04
0.09
0.33
0.59
0.78
0.82
0.70
0.39
-0.03
-0.50
-0.90
-1.13
-1.12
-0.88
-0.48
-0.05
0.30
0.47
0.46
0.32
0.14
-0.03
-0.15
-0.20
-0.18
-0.06
0.13
0.36
0.54
0.61
0.53
0.35
0.19
0.17
0.35
0.68
1.02
1.19
1.09
0.76
0.31
-0.10
-0.39
-0.52
-0.53
-0.46
-0.33
-0.13
0.13
0.39
0.60
0.64
0.51
0.21
-0.18
-0.57
-0.87
-1.05
-1.06
-0.91
-0.66
-0.37
-0.14
-0.01
0.03
0.03
0.06
0.11
0.12
0.01
-0.24
-0.57
-0.84
-0.92
-0.74
-0.39
-0.03
0.16
0.14
-0.06
-0.33
-0.55
-0.70
-0.80
-0.85
-0.85
-0.73
-0.43
0.01
0.47
0.83
0.97
0.89
0.70
0.52
0.45
0.51
0.64
0.74
0.76
0.67
0.53
0.38
0.25
0.13
-0.04
-0.26
-0.53
-0.76
-0.86
-0.78
-0.49
-0.07
0.38
0.76
0.99
1.04
0.90
0.59
0.17
-0.25
-0.54
-0.60
-0.39
0.01
0.44
0.72
0.76
0.57
0.23
-0.09
-0.30
-0.33
-0.20
0.03
0.26
0.40
0.37
0.16
-0.17
-0.48
-0.65
-0.59
-0.32
0.00
0.23
0.28
0.16
-0.02
-0.13
-0.13
-0.06
-0.05
-0.15
-0.38
-0.65
-0.84
-0.87
-0.72
-0.43
-0.05
0.32
0.62
0.78
0.75
0.50
0.09
-0.37
-0.74
-0.92
-0.85
-0.54
-0.09
0.38
0.76
0.96
0.92
0.69
0.35
0.01
-0.25
-0.38
-0.40
-0.34
-0.25
-0.17
-0.11
-0.10
-0.15
-0.26
-0.39
-0.49
-0.50
-0.38
-0.16
0.08
0.26
0.31
0.25
0.14
0.03
-0.04
-0.07
-0.07
-0.04
0.04
0.16
0.33
0.48
0.54
0.44
0.21
-0.05
-0.22
-0.22
-0.04
0.23
0.47
0.55
0.43
0.16
-0.17
-0.42
-0.52
-0.43
-0.20
0.06
0.27
0.35
0.32
0.22
0.11
0.01
-0.09
-0.22
-0.36
-0.44
-0.40
-0.22
0.04
0.27
0.33
0.18
-0.11
-0.41
-0.55
-0.45
-0.15
0.25
0.61
0.81
0.84
0.73
0.55
0.37
0.24
0.15
0.06
-0.07
-0.24
-0.45
-0.65
-0.80
-0.89
-0.91
-0.86
-0.75
-0.58
-0.37
-0.13
0.10
0.32
0.53
0.75
0.96
1.11
1.13
0.96
0.58
0.11
-0.31
-0.53
-0.50
-0.29
-0.01
0.22
0.35
0.39
0.36
0.26
0.10
-0.15
-0.41
-0.61
-0.66
-0.54
-0.28
0.04
0.34
0.60
0.78
0.87
0.83
0.64
0.33
0.00
-0.24
-0.32
-0.27
-0.16
-0.10
-0.11
-0.17
-0.23
-0.25
-0.24
-0.26
-0.33
-0.47
-0.60
-0.66
-0.60
-0.40
-0.13
0.14
0.34
0.43
0.44
0.38
0.29
0.16
0.02
-0.12
-0.21
-0.19
-0.04
0.19
0.39
0.45
0.31
0.02
-0.33
-0.62
-0.80
-0.85
-0.81
-0.67
-0.42
-0.07
0.38
0.85
1.24
1.46
1.46
1.22
0.78
0.22
-0.34
-0.78
-0.98
-0.92
-0.64
-0.27
0.07
0.27
0.31
0.21
0.00
-0.29
-0.64
-1.01
-1.33
-1.48
-1.38
-0.99
-0.39
0.28
0.85
1.19
1.26
1.07
0.71
0.28
-0.12
-0.41
-0.52
-0.45
-0.23
0.06
0.30
0.42
0.42
0.34
0.28
0.31
0.43
0.60
0.75
0.83
0.83
0.76
0.66
0.55
0.44
0.30
0.13
-0.08
-0.30
-0.48
-0.58
-0.55
-0.43
-0.28
-0.21
-0.27
-0.47
-0.72
-0.95
-1.06
-1.02
-0.84
-0.59
-0.36
-0.22
-0.20
-0.26
-0.38
-0.51
-0.63
-0.73
-0.80
-0.82
-0.74
-0.53
-0.21
0.18
0.54
0.78
0.84
0.74
0.55
0.35
0.18
0.08
0.07
0.16
0.38
0.70
1.07
1.39
1.57
1.53
1.28
0.91
0.53
0.27
0.17
0.23
0.35
0.42
0.37
0.18
-0.11
-0.42
-0.66
-0.81
-0.87
-0.87
-0.84
-0.77
-0.62
-0.36
0.01
0.39
0.70
0.83
0.75
0.52
0.21
-0.07
-0.27
-0.35
-0.33
-0.22
-0.04
0.15
0.34
0.45
0.43
0.28
0.04
-0.18
-0.29
-0.24
-0.07
0.10
0.13
-0.07
-0.42
-0.76
-0.89
-0.72
-0.32
0.12
0.38
0.34
0.04
-0.33
-0.58
-0.60
-0.40
-0.10
0.19
0.38
0.46
0.48
0.47
0.42
0.33
0.19
0.02
-0.12
-0.19
-0.18
-0.10
-0.01
0.03
-0.02
-0.17
-0.40
-0.63
-0.78
-0.80
-0.72
-0.57
-0.41
-0.27
-0.12
0.09
0.37
0.70
0.98
1.09
0.99
0.70
0.33
-0.02
-0.29
-0.49
-0.64
-0.76
-0.83
-0.77
-0.57
-0.24
0.11
0.35
0.40
0.27
0.04
-0.13
-0.12
0.09
0.43
0.75
0.91
0.85
0.62
0.35
0.16
0.09
0.12
0.16
0.13
-0.02
-0.23
-0.42
-0.54
-0.56
-0.53
-0.53
-0.57
-0.61
-0.56
-0.38
-0.07
0.28
0.51
0.54
0.36
0.07
-0.15
-0.17
0.06
0.42
0.76
0.93
0.87
0.63
0.34
0.09
-0.06
-0.11
-0.11
-0.09
-0.07
-0.02
0.05
0.12
0.17
0.15
0.08
-0.02
-0.11
-0.14
-0.11
-0.02
0.09
0.18
0.22
0.18
0.04
-0.16
-0.37
-0.53
-0.60
-0.58
-0.50
-0.39
-0.27
-0.13
0.04
0.23
0.41
0.51
0.50
0.34
0.09
-0.15
-0.29
-0.26
-0.07
0.19
0.43
0.57
0.61
0.57
0.53
0.50
0.47
0.39
0.20
-0.07
-0.39
-0.67
-0.84
-0.89
-0.82
-0.68
-0.51
-0.35
-0.25
-0.23
-0.31
-0.42
-0.51
-0.53
-0.47
-0.37
-0.27
-0.20
-0.15
-0.10
-0.02
0.06
0.08
0.00
-0.15
-0.30
-0.35
-0.25
-0.03
0.24
0.46
0.59
0.63
0.62
0.59
0.56
0.52
0.47
0.44
0.44
0.50
0.59
0.67
0.70
0.66
0.55
0.37
0.14
-0.09
-0.28
-0.37
-0.36
-0.27
-0.20
-0.24
-0.41
-0.67
-0.89
-0.94
-0.76
-0.39
0.01
0.30
0.37
0.26
0.03
-0.20
-0.37
-0.49
-0.54
-0.49
-0.31
-0.00
0.39
0.76
0.97
0.98
0.81
0.57
0.34
0.22
0.19
0.22
0.28
0.34
0.39
0.41
0.40
0.32
0.20
0.06
-0.06
-0.14
-0.22
-0.31
-0.45
-0.60
-0.72
-0.75
-0.67
-0.54
-0.44
-0.42
-0.48
-0.58
-0.58
-0.44
-0.14
0.23
0.52
0.65
0.58
0.38
0.16
0.03
0.02
0.11
0.22
0.29
0.31
0.27
0.20
0.09
-0.05
-0.21
-0.37
-0.47
-0.48
-0.40
-0.28
-0.20
-0.17
-0.17
-0.14
-0.02
0.19
0.42
0.54
0.48
0.23
-0.13
-0.43
-0.55
-0.46
-0.22
0.04
0.19
0.18
0.09
0.01
0.05
0.23
0.50
0.74
0.82
0.69
0.38
0.01
-0.31
-0.48
-0.47
-0.33
-0.11
0.12
0.30
0.41
0.41
0.28
0.02
-0.32
-0.61
-0.74
-0.64
-0.33
0.06
0.36
0.44
0.30
0.02
-0.25
-0.39
-0.36
-0.21
-0.02
0.10
0.10
-0.02
-0.21
-0.40
-0.54
-0.63
-0.67
-0.65
-0.53
-0.25
0.18
0.70
1.16
1.39
1.31
0.97
0.53
0.22
0.14
0.29
0.56
0.78
0.85
0.73
0.48
0.19
-0.07
-0.26
-0.37
-0.42
-0.46
-0.50
-0.57
-0.65
-0.72
-0.69
-0.52
-0.18
0.27
0.69
0.93
0.89
0.58
0.11
-0.35
-0.65
-0.75
-0.69
-0.58
-0.51
-0.52
-0.55
-0.55
-0.49
-0.39
-0.30
-0.26
-0.26
-0.26
-0.22
-0.12
-0.01
0.07
0.07
-0.00
-0.09
-0.14
-0.10
-0.01
0.10
0.18
0.19
0.16
0.13
0.11
0.11
0.12
0.13
0.14
0.16
0.22
0.29
0.33
0.33
0.30
0.29
0.32
0.41
0.51
0.53
0.45
0.29
0.13
0.05
0.06
0.11
0.15
0.10
-0.03
-0.21
-0.39
-0.54
-0.64
-0.71
-0.73
-0.69
-0.61
-0.50
-0.39
-0.30
-0.22
-0.14
-0.04
0.08
0.18
0.26
0.32
0.35
0.39
0.44
0.49
0.57
0.66
0.78
0.89
0.98
0.99
0.91
0.73
0.48
0.22
-0.02
-0.20
-0.29
-0.27
-0.15
0.06
0.30
0.48
0.56
0.52
0.37
0.18
-0.02
-0.18
-0.34
-0.49
-0.64
-0.77
-0.84
-0.83
-0.73
-0.59
-0.45
-0.34
-0.30
-0.33
-0.40
-0.47
-0.50
-0.48
-0.43
-0.37
-0.35
-0.36
-0.38
-0.33
-0.19
0.02
0.22
0.35
0.35
0.26
0.12
-0.00
-0.10
-0.18
-0.24
-0.26
-0.21
-0.06
0.17
0.43
0.65
0.79
0.81
0.72
0.56
0.38
0.23
0.14
0.07
-0.02
-0.17
-0.39
-0.60
-0.70
-0.59
-0.30
0.07
0.35
0.41
0.25
-0.04
-0.28
-0.37
-0.26
-0.05
0.18
0.36
0.45
0.48
0.46
0.39
0.27
0.15
0.08
0.12
0.26
0.44
0.53
0.42
0.12
-0.27
-0.56
-0.59
-0.35
0.04
0.38
0.52
0.40
0.11
-0.18
-0.34
-0.32
-0.17
-0.00
0.09
0.06
-0.04
-0.15
-0.21
-0.21
-0.15
-0.04
0.11
0.27
0.37
0.36
0.17
-0.16
-0.55
-0.86
-0.96
-0.79
-0.42
0.03
0.41
0.63
0.67
0.55
0.33
0.05
-0.26
-0.59
-0.87
-1.07
-1.15
-1.08
-0.85
-0.48
-0.03
0.44
0.84
1.11
1.24
1.26
1.23
1.21
1.21
1.18
1.04
0.74
0.31
-0.20
-0.65
-0.96
-1.07
-1.00
-0.82
-0.58
-0.34
-0.15
-0.01
0.08
0.14
0.19
0.26
0.35
0.45
0.51
0.45
0.27
-0.03
-0.37
-0.67
-0.82
-0.79
-0.62
-0.39
-0.20
-0.14
-0.22
-0.41
-0.62
-0.79
-0.86
-0.80
-0.60
-0.30
0.03
0.30
0.40
0.28
-0.03
-0.39
-0.63
-0.63
-0.38
0.03
0.43
0.71
0.86
0.94
1.02
1.10
1.11
0.94
0.56
0.06
-0.38
-0.55
-0.38
0.09
0.66
1.08
1.21
1.01
0.57
0.08
-0.32
-0.54
-0.57
-0.50
-0.37
-0.23
-0.10
0.04
0.18
0.27
0.28
0.17
-0.03
-0.24
-0.39
-0.41
-0.33
-0.21
-0.12
-0.09
-0.10
-0.12
-0.13
-0.13
-0.15
-0.20
-0.27
-0.30
-0.24
-0.10
0.10
0.26
0.32
0.27
0.16
0.07
0.08
0.21
0.39
0.51
0.49
0.29
-0.05
-0.39
-0.62
-0.69
-0.60
-0.42
-0.25
-0.16
-0.15
-0.21
-0.25
-0.24
-0.15
-0.04
0.04
0.05
-0.01
-0.09
-0.17
-0.23
-0.27
-0.32
-0.39
-0.44
-0.42
-0.29
-0.06
0.20
0.43
0.55
0.56
0.48
0.37
0.26
0.17
0.07
-0.03
-0.15
-0.26
-0.33
-0.33
-0.25
-0.09
0.11
0.31
0.49
0.63
0.72
0.79
0.80
0.73
0.52
0.15
-0.33
-0.77
-1.00
-0.86
-0.34
0.39
1.06
1.37
1.21
0.67
-0.02
-0.55
-0.73
-0.56
-0.16
0.26
0.55
0.61
0.45
0.15
-0.20
-0.51
-0.72
-0.82
-0.81
-0.73
-0.61
-0.45
-0.27
-0.08
0.08
0.15
0.11
-0.01
-0.14
-0.20
-0.13
0.05
0.31
0.56
0.74
0.82
0.79
0.64
0.42
0.17
-0.07
-0.24
-0.32
-0.28
-0.17
-0.05
0.00
-0.08
-0.30
-0.59
-0.84
-0.94
-0.83
-0.54
-0.17
0.20
0.47
0.64
0.75
0.82
0.87
0.88
0.79
0.59
0.31
-0.00
-0.25
-0.35
-0.30
-0.13
0.05
0.15
0.13
0.00
-0.19
-0.38
-0.53
-0.63
-0.65
-0.59
-0.42
-0.18
0.05
0.18
0.14
-0.06
-0.35
-0.60
-0.70
-0.61
-0.39
-0.11
0.17
0.43
0.66
0.85
0.96
0.94
0.74
0.37
-0.06
-0.43
-0.62
-0.60
-0.41
-0.17
0.05
0.21
0.31
0.40
0.49
0.55
0.54
0.47
0.36
0.27
0.22
0.20
0.16
0.04
-0.14
-0.35
-0.50
-0.54
-0.45
-0.27
-0.04
0.20
0.39
0.50
0.47
0.28
-0.02
-0.33
-0.52
-0.52
-0.36
-0.15
-0.01
-0.00
-0.08
-0.14
-0.12
-0.01
0.13
0.23
0.26
0.24
0.23
0.25
0.28
0.29
0.24
0.15
0.07
0.03
0.03
0.05
0.04
-0.02
-0.11
-0.21
-0.29
-0.36
-0.44
-0.55
-0.65
-0.69
-0.65
-0.50
-0.30
-0.10
0.07
0.15
0.14
0.05
-0.09
-0.26
-0.43
-0.56
-0.61
-0.58
-0.45
-0.26
-0.05
0.12
0.23
0.30
0.36
0.47
0.64
0.81
0.88
0.76
0.45
0.07
-0.21
-0.27
-0.08
0.23
0.46
0.44
0.15
-0.27
-0.62
-0.72
-0.55
-0.21
0.09
0.22
0.17
0.05
-0.02
0.06
0.22
0.37
0.41
0.31
0.13
-0.02
-0.08
-0.10
-0.14
-0.26
-0.45
-0.62
-0.66
-0.50
-0.19
0.15
0.35
0.35
0.15
-0.13
-0.34
-0.39
-0.27
-0.11
0.01
0.00
-0.07
-0.14
-0.13
-0.09
-0.10
-0.25
-0.54
-0.86
-1.02
-0.90
-0.51
0.01
0.46
0.72
0.77
0.74
0.74
0.81
0.91
0.96
0.89
0.73
0.53
0.38
0.30
0.27
0.22
0.13
0.04
0.01
0.08
0.25
0.45
0.58
0.59
0.47
0.28
0.10
0.01
0.02
0.12
0.27
0.43
0.57
0.67
0.74
0.77
0.73
0.59
0.34
-0.01
-0.40
-0.75
-0.97
-1.06
-1.08
-1.09
-1.17
-1.29
-1.38
-1.35
-1.14
-0.78
-0.38
-0.04
0.19
0.32
0.43
0.55
0.69
0.80
0.81
0.71
0.52
0.29
0.07
-0.12
-0.25
-0.30
-0.26
-0.09
0.17
0.43
0.58
0.54
0.32
-0.02
-0.38
-0.69
-0.90
-1.00
-0.96
-0.81
-0.60
-0.39
-0.28
-0.31
-0.44
-0.58
-0.64
-0.56
-0.36
-0.12
0.08
0.18
0.18
0.10
-0.02
-0.14
-0.21
-0.21
-0.13
0.03
0.22
0.43
0.63
0.81
0.94
0.97
0.83
0.52
0.11
-0.29
-0.55
-0.58
-0.41
-0.13
0.11
0.24
0.25
0.21
0.21
0.31
0.47
0.61
0.67
0.59
0.41
0.16
-0.09
-0.29
-0.41
-0.41
-0.24
0.06
0.43
0.74
0.87
0.75
0.42
-0.01
-0.42
-0.70
-0.85
-0.89
-0.86
-0.77
-0.62
-0.41
-0.20
-0.05
-0.00
-0.03
-0.06
-0.02
0.12
0.31
0.47
0.52
0.46
0.30
0.13
-0.01
-0.11
-0.15
-0.11
0.02
0.26
0.58
0.90
1.10
1.09
0.86
0.47
0.04
-0.28
-0.45
-0.47
-0.41
-0.35
-0.34
-0.39
-0.48
-0.60
-0.73
-0.84
-0.86
-0.74
-0.43
0.02
0.44
0.71
0.73
0.56
0.34
0.22
0.27
0.45
0.62
0.68
0.58
0.36
0.12
-0.09
-0.24
-0.32
-0.33
-0.26
-0.09
0.17
0.47
0.70
0.78
0.68
0.40
-0.01
-0.43
-0.80
-1.04
-1.13
-1.09
-0.97
-0.82
-0.68
-0.54
-0.40
-0.22
-0.01
0.19
0.34
0.42
0.43
0.44
0.49
0.60
0.68
0.68
0.53
0.25
-0.09
-0.35
-0.46
-0.39
-0.23
-0.09
-0.07
-0.16
-0.32
-0.46
-0.48
-0.39
-0.25
-0.15
-0.14
-0.21
-0.26
-0.22
-0.05
0.18
0.34
0.35
0.20
-0.04
-0.25
-0.37
-0.37
-0.30
-0.23
-0.17
-0.12
-0.06
0.01
0.07
0.08
0.03
-0.07
-0.16
-0.18
-0.12
-0.01
0.07
0.10
0.07
0.05
0.12
0.32
0.63
0.93
1.10
1.08
0.91
0.69
0.53
0.48
0.49
0.50
0.47
0.38
0.27
0.15
0.03
-0.09
-0.16
-0.16
-0.06
0.08
0.15
0.06
-0.20
-0.52
-0.75
-0.76
-0.55
-0.22
0.06
0.20
0.18
0.11
0.10
0.23
0.49
0.81
1.06
1.14
1.02
0.73
0.38
0.09
-0.08
-0.14
-0.18
-0.29
-0.51
-0.80
-1.08
-1.24
-1.23
-1.06
-0.81
-0.56
-0.36
-0.23
-0.17
-0.16
-0.20
-0.32
-0.52
-0.77
-1.03
-1.18
-1.16
-0.95
-0.59
-0.17
0.22
0.54
0.77
0.93
1.02
1.02
0.91
0.70
0.41
0.11
-0.12
-0.25
-0.27
-0.22
-0.14
-0.04
0.05
0.12
0.18
0.23
0.27
0.33
0.41
0.50
0.58
0.60
0.53
0.37
0.13
-0.11
-0.27
-0.32
-0.26
-0.16
-0.05
0.05
0.14
0.23
0.26
0.17
-0.06
-0.40
-0.71
-0.84
-0.69
-0.32
0.10
0.39
0.43
0.26
0.03
-0.12
-0.14
-0.09
-0.10
-0.22
-0.42
-0.56
-0.54
-0.33
-0.03
0.23
0.32
0.20
-0.01
-0.17
-0.19
-0.04
0.22
0.47
0.61
0.60
0.46
0.24
-0.02
-0.27
-0.46
-0.56
-0.55
-0.45
-0.28
-0.09
0.09
0.22
0.32
0.38
0.39
0.30
0.10
-0.16
-0.41
-0.53
-0.43
-0.15
0.24
0.58
0.79
0.83
0.76
0.67
0.61
0.63
0.70
0.77
0.79
0.71
0.52
0.22
-0.12
-0.44
-0.64
-0.72
-0.69
-0.63
-0.59
-0.56
-0.49
-0.34
-0.12
0.11
0.24
0.18
-0.05
-0.38
-0.68
-0.86
-0.86
-0.74
-0.55
-0.33
-0.13
0.08
0.28
0.47
0.61
0.64
0.55
0.33
0.08
-0.11
-0.16
-0.05
0.13
0.24
0.15
-0.17
-0.64
-1.08
-1.32
-1.27
-0.99
-0.66
-0.44
-0.44
-0.62
-0.87
-1.06
-1.12
-1.09
-1.05
-1.10
-1.28
-1.54
-1.80
-1.96
-1.99
-1.92
-1.84
-1.84
-1.99
-2.31
-2.75
-3.22
-3.66
-4.04
-4.39
-4.76
-5.17
-5.63
-6.06
-6.41
-6.64
-6.76
-6.75
-6.54
-5.98
-4.87
-3.06
-0.56
2.39
5.36
7.81
9.32
9.68
8.99
7.56
5.82
4.14
2.73
1.60
0.68
-0.11
-0.77
-1.17
-1.18
-0.78
-0.11
0.61
1.13
1.34
1.29
1.09
0.86
0.64
0.41
0.16
-0.07
-0.19
-0.11
0.12
0.36
0.44
0.30
0.11
0.30
1.30
3.35
6.22
9.25
11.56
12.50
11.86
10.09
7.98
6.29
5.43
5.30
5.44
5.38
4.88
4.07
3.22
2.62
2.31
2.16
1.91
1.43
0.73
0.01
-0.46
-0.55
-0.29
0.08
0.28
0.11
-0.46
-1.30
-2.16
-2.86
-3.28
-3.46
-3.52
-3.57
-3.68
-3.87
-4.11
-4.30
-4.35
-4.20
-3.82
-3.26
-2.66
-2.17
-1.91
-1.89
-2.01
-2.11
-2.06
-1.80
-1.40
-0.96
-0.58
-0.29
-0.04
0.26
0.67
1.16
1.61
1.88
1.84
1.46
0.87
0.25
-0.18
-0.32
-0.17
0.15
0.47
0.71
0.83
0.90
0.94
0.97
0.94
0.80
0.57
0.31
0.08
-0.05
-0.07
-0.02
0.03
0.06
0.06
0.04
0.03
0.03
0.04
0.04
0.02
-0.01
-0.06
-0.17
-0.36
-0.64
-0.98
-1.35
-1.69
-1.94
-2.06
-2.08
-2.03
-1.99
-2.00
-2.05
-2.12
-2.11
-1.94
-1.57
-1.02
-0.42
0.08
0.32
0.24
-0.09
-0.51
-0.85
-0.95
-0.77
-0.36
0.15
0.63
0.99
1.19
1.21
1.07
0.80
0.44
0.06
-0.27
-0.46
-0.47
-0.32
-0.07
0.21
0.42
0.53
0.56
0.55
0.56
0.60
0.66
0.69
0.64
0.52
0.35
0.18
0.01
-0.18
-0.43
-0.74
-1.03
-1.22
-1.19
-0.92
-0.49
-0.07
0.18
0.17
-0.10
-0.49
-0.87
-1.12
-1.22
-1.19
-1.10
-0.97
-0.82
-0.63
-0.41
-0.18
0.05
0.28
0.55
0.89
1.31
1.78
2.20
2.49
2.59
2.49
2.25
1.99
1.83
1.86
2.12
2.60
3.21
3.83
4.32
4.62
4.69
4.58
4.30
3.89
3.36
2.76
2.15
1.62
1.23
0.97
0.74
0.39
-0.15
-0.86
-1.60
-2.19
-2.50
-2.54
-2.39
-2.25
-2.23
-2.40
-2.73
-3.10
-3.43
-3.60
-3.55
-3.27
-2.78
-2.13
-1.42
-0.70
0.01
0.77
1.64
2.57
3.42
3.92
3.85
3.12
1.86
0.40
-0.90
-1.80
-2.25
-2.35
-2.25
-2.04
-1.70
-1.21
-0.55
0.21
0.92
1.46
1.76
1.85
1.76
1.54
1.18
0.68
0.04
-0.69
-1.37
-1.81
-1.87
-1.48
-0.70
0.26
1.15
1.70
1.75
1.26
0.36
-0.78
-1.91
-2.84
-3.43
-3.64
-3.48
-3.07
-2.55
-2.08
-1.73
-1.50
-1.29
-0.99
-0.50
0.13
0.80
1.37
1.73
1.86
1.77
1.54
1.23
0.90
0.59
0.36
0.25
0.26
0.41
0.64
0.91
1.16
1.36
1.46
1.43
1.27
1.00
0.67
0.39
0.25
0.32
0.56
0.89
1.19
1.35
1.31
1.10
0.79
0.47
0.22
0.05
-0.05
-0.13
-0.21
-0.32
-0.41
-0.45
-0.42
-0.30
-0.13
0.05
0.18
0.27
0.33
0.38
0.39
0.30
-0.02
-0.60
-1.37
-2.17
-2.79
-3.08
-3.05
-2.84
-2.63
-2.52
-2.50
-2.46
-2.28
-1.90
-1.38
-0.84
-0.38
-0.04
0.23
0.50
0.79
1.04
1.16
1.09
0.84
0.54
0.35
0.39
0.69
1.17
1.70
2.15
2.39
2.36
2.05
1.52
0.90
0.31
-0.20
-0.62
-1.01
-1.40
-1.75
-1.90
-1.73
-1.17
-0.34
0.52
1.14
1.38
1.25
0.94
0.64
0.52
0.62
0.87
1.16
1.36
1.40
1.22
0.83
0.27
-0.37
-0.99
-1.46
-1.69
-1.70
-1.52
-1.26
-1.01
-0.78
-0.56
-0.32
-0.05
0.20
0.36
0.38
0.30
0.17
0.09
0.13
0.27
0.41
0.44
0.24
-0.18
-0.70
-1.12
-1.28
-1.13
-0.75
-0.35
-0.13
-0.17
-0.46
-0.85
-1.20
-1.41
-1.46
-1.41
-1.27
-1.06
-0.81
-0.56
-0.41
-0.45
-0.70
-1.07
-1.42
-1.53
-1.30
-0.74
-0.02
0.64
1.00
1.01
0.72
0.32
-0.02
-0.21
-0.27
-0.27
-0.26
-0.24
-0.18
-0.03
0.17
0.35
0.41
0.27
-0.04
-0.41
-0.72
-0.85
-0.74
-0.44
0.01
0.55
1.09
1.59
1.95
2.10
1.98
1.57
0.95
0.30
-0.22
-0.45
-0.36
-0.04
0.31
0.51
0.45
0.17
-0.15
-0.30
-0.14
0.32
0.91
1.38
1.54
1.32
0.82
0.21
-0.36
-0.81
-1.15
-1.43
-1.66
-1.82
-1.86
-1.74
-1.46
-1.08
-0.69
-0.37
-0.15
-0.00
0.16
0.42
0.83
1.34
1.85
2.19
2.24
1.95
1.40
0.73
0.09
-0.39
-0.68
-0.81
-0.83
-0.78
-0.72
-0.69
-0.73
-0.88
-1.14
-1.48
-1.79
-1.95
-1.88
-1.58
-1.12
-0.65
-0.26
-0.04
0.04
0.03
0.01
0.05
0.20
0.46
0.78
1.09
1.29
1.33
1.21
0.96
0.62
0.26
-0.11
-0.45
-0.74
-0.96
-1.07
-1.05
-0.88
-0.56
-0.12
0.40
0.90
1.28
1.48
1.48
1.33
1.11
0.92
0.80
0.76
0.78
0.81
0.83
0.81
0.73
0.61
0.48
0.40
0.42
0.54
0.70
0.77
0.65
0.31
-0.14
-0.57
-0.82
-0.86
-0.78
-0.71
-0.79
-1.00
-1.26
-1.41
-1.38
-1.18
-0.89
-0.64
-0.46
-0.34
-0.21
-0.04
0.15
0.29
0.31
0.20
-0.02
-0.29
-0.56
-0.79
-0.99
-1.10
-1.10
-0.95
-0.68
-0.38
-0.13
-0.01
-0.00
-0.05
-0.07
-0.05
-0.04
-0.10
-0.23
-0.38
-0.45
-0.39
-0.23
-0.10
-0.07
-0.16
-0.29
-0.34
-0.24
-0.07
0.09
0.15
0.09
0.01
0.04
0.20
0.45
0.66
0.73
0.63
0.45
0.27
0.14
0.00
-0.21
-0.58
-1.06
-1.52
-1.81
-1.80
-1.50
-0.98
-0.37
0.22
0.70
1.05
1.26
1.34
1.28
1.13
0.94
0.79
0.74
0.77
0.84
0.88
0.81
0.63
0.35
0.01
-0.33
-0.62
-0.84
-0.93
-0.92
-0.81
-0.68
-0.57
-0.52
-0.48
-0.38
-0.16
0.17
0.53
0.83
0.99
0.99
0.87
0.71
0.54
0.36
0.16
-0.06
-0.25
-0.36
-0.34
-0.19
0.00
0.17
0.23
0.20
0.14
0.18
0.41
0.82
1.29
1.61
1.59
1.17
0.46
-0.29
-0.82
-1.00
-0.84
-0.51
-0.21
-0.06
-0.02
-0.04
-0.05
-0.08
-0.19
-0.41
-0.70
-0.92
-0.97
-0.77
-0.38
0.08
0.49
0.74
0.81
0.72
0.54
0.34
0.20
0.12
0.10
0.10
0.10
0.10
0.10
0.09
0.07
0.02
-0.06
-0.14
-0.17
-0.10
0.10
0.38
0.69
0.95
1.13
1.23
1.23
1.11
0.89
0.59
0.27
-0.02
-0.24
-0.40
-0.53
-0.64
-0.74
-0.82
-0.86
-0.87
-0.85
-0.82
-0.79
-0.76
-0.71
-0.64
-0.57
-0.48
-0.38
-0.24
-0.06
0.18
0.46
0.71
0.90
0.98
0.95
0.84
0.70
0.54
0.37
0.16
-0.08
-0.32
-0.51
-0.57
-0.49
-0.31
-0.10
0.08
0.23
0.37
0.52
0.66
0.71
0.60
0.32
-0.05
-0.36
-0.48
-0.38
-0.15
0.08
0.18
0.11
-0.06
-0.20
-0.23
-0.11
0.08
0.20
0.14
-0.13
-0.55
-0.95
-1.20
-1.19
-0.94
-0.57
-0.19
0.07
0.16
0.10
-0.06
-0.25
-0.40
-0.43
-0.29
-0.01
0.38
0.74
0.95
0.93
0.65
0.21
-0.26
-0.63
-0.81
-0.78
-0.59
-0.32
-0.05
0.18
0.35
0.44
0.45
0.36
0.17
-0.11
-0.38
-0.54
-0.52
-0.33
-0.04
0.20
0.31
0.27
0.14
0.03
0.03
0.16
0.37
0.55
0.63
0.58
0.43
0.24
0.06
-0.08
-0.16
-0.23
-0.27
-0.31
-0.32
-0.31
-0.29
-0.32
-0.39
-0.50
-0.60
-0.64
-0.61
-0.52
-0.43
-0.39
-0.38
-0.37
-0.29
-0.10
0.19
0.56
0.94
1.28
1.52
1.61
1.52
1.23
0.82
0.41
0.13
0.07
0.26
0.61
1.01
1.34
1.57
1.65
1.59
1.35
0.93
0.36
-0.27
-0.82
-1.18
-1.28
-1.13
-0.84
-0.50
-0.23
-0.04
0.05
0.12
0.20
0.32
0.43
0.50
0.51
0.51
0.58
0.79
1.17
1.62
1.98
2.12
2.03
1.76
1.41
1.04
0.67
0.29
-0.02
-0.14
0.06
0.57
1.24
1.82
2.10
2.00
1.56
0.92
0.18
-0.61
-1.40
-2.09
-2.54
-2.64
-2.40
-1.97
-1.58
-1.41
-1.46
-1.56
-1.48
-1.14
-0.64
-0.27
-0.30
-0.83
-1.75
-2.73
-3.46
-3.72
-3.52
-3.05
-2.53
-2.16
-1.97
-1.90
-1.85
-1.72
-1.51
-1.30
-1.18
-1.28
-1.67
-2.36
-3.24
-4.04
-4.39
-3.88
-2.32
0.13
2.95
5.43
6.93
7.20
6.45
5.19
4.02
3.30
3.08
3.11
3.10
2.84
2.27
1.48
0.58
-0.35
-1.24
-2.01
-2.60
-2.94
-3.04
-2.94
-2.75
-2.58
-2.50
-2.55
-2.77
-3.12
-3.56
-3.99
-4.28
-4.27
-3.87
-3.12
-2.23
-1.49
-1.14
-1.24
-1.65
-2.10
-2.30
-2.12
-1.56
-0.75
0.18
1.13
2.03
2.79
3.31
3.50
3.33
2.93
2.49
2.19
2.09
2.14
2.19
2.13
1.95
1.73
1.57
1.54
1.58
1.62
1.59
1.47
1.33
1.23
1.18
1.16
1.11
1.01
0.91
0.87
0.93
1.05
1.13
1.03
0.72
0.26
-0.18
-0.41
-0.37
-0.11
0.16
0.28
0.16
-0.12
-0.41
-0.55
-0.46
-0.18
0.17
0.44
0.56
0.50
0.30
0.05
-0.17
-0.28
-0.24
-0.07
0.13
0.28
0.29
0.17
-0.00
-0.15
-0.20
-0.17
-0.08
-0.02
-0.01
-0.03
-0.07
-0.08
-0.05
0.05
0.18
0.34
0.45
0.44
0.25
-0.11
-0.54
-0.89
-1.01
-0.85
-0.46
0.02
0.43
0.65
0.65
0.50
0.28
0.08
-0.01
0.04
0.25
0.55
0.87
1.06
1.06
0.82
0.44
0.05
-0.22
-0.32
-0.24
-0.09
0.03
0.02
-0.16
-0.48
-0.88
-1.24
-1.41
-1.33
-0.97
-0.45
0.06
0.41
0.53
0.47
0.37
0.31
0.32
0.31
0.20
-0.01
-0.25
-0.41
-0.41
-0.30
-0.14
-0.04
0.01
0.05
0.14
0.29
0.45
0.54
0.53
0.43
0.29
0.15
0.01
-0.13
-0.27
-0.37
-0.37
-0.26
-0.09
0.07
0.12
0.06
-0.07
-0.17
-0.18
-0.07
0.12
0.31
0.46
0.52
0.48
0.38
0.24
0.10
-0.01
-0.07
-0.05
-0.00
0.03
-0.04
-0.23
-0.51
-0.79
-0.93
-0.87
-0.63
-0.30
-0.04
0.04
-0.06
-0.23
-0.35
-0.34
-0.22
-0.08
-0.04
-0.10
-0.22
-0.27
-0.19
0.01
0.22
0.32
0.25
0.04
-0.18
-0.26
-0.09
0.32
0.86
1.32
1.49
1.26
0.70
-0.03
-0.70
-1.13
-1.26
-1.16
-0.94
-0.67
-0.38
-0.07
0.23
0.46
0.55
0.48
0.32
0.21
0.26
0.50
0.85
1.19
1.37
1.36
1.17
0.87
0.54
0.20
-0.10
-0.38
-0.62
-0.81
-0.93
-0.94
-0.85
-0.65
-0.37
-0.06
0.26
0.53
0.72
0.80
0.76
0.64
0.49
0.37
0.32
0.33
0.33
0.26
0.07
-0.20
-0.49
-0.74
-0.90
-0.96
-0.92
-0.78
-0.51
-0.12
0.30
0.61
0.67
0.41
-0.08
-0.65
-1.08
-1.24
-1.16
-0.93
-0.69
-0.52
-0.39
-0.24
-0.03
0.24
0.50
0.68
0.74
0.68
0.55
0.38
0.21
0.07
-0.03
-0.10
-0.16
-0.25
-0.38
-0.53
-0.62
-0.58
-0.40
-0.12
0.16
0.40
0.56
0.70
0.86
1.05
1.25
1.35
1.30
1.10
0.81
0.53
0.31
0.16
0.01
-0.19
-0.47
-0.78
-1.04
-1.19
-1.16
-0.98
-0.70
-0.38
-0.09
0.14
0.29
0.34
0.31
0.24
0.17
0.14
0.14
0.16
0.14
0.05
-0.08
-0.22
-0.34
-0.40
-0.41
-0.39
-0.37
-0.36
-0.35
-0.37
-0.43
-0.56
-0.73
-0.90
-0.99
-0.95
-0.77
-0.46
-0.10
0.26
0.53
0.65
0.62
0.46
0.24
0.06
-0.01
0.09
0.31
0.57
0.76
0.80
0.70
0.52
0.35
0.31
0.41
0.63
0.89
1.08
1.07
0.83
0.36
-0.23
-0.80
-1.18
-1.27
-1.08
-0.69
-0.22
0.19
0.48
0.63
0.64
0.52
0.25
-0.15
-0.62
-1.02
-1.20
-1.08
-0.72
-0.28
0.04
0.10
-0.06
-0.28
-0.35
-0.15
0.30
0.83
1.21
1.27
1.00
0.53
0.04
-0.30
-0.47
-0.49
-0.48
-0.47
-0.47
-0.41
-0.22
0.09
0.44
0.67
0.67
0.41
-0.01
-0.42
-0.64
-0.59
-0.29
0.09
0.39
0.50
0.40
0.19
0.00
-0.10
-0.10
-0.05
-0.01
-0.01
-0.01
0.02
0.13
0.29
0.46
0.56
0.53
0.37
0.14
-0.04
-0.06
0.11
0.42
0.73
0.89
0.85
0.62
0.33
0.09
-0.06
-0.13
-0.22
-0.38
-0.59
-0.75
-0.75
-0.57
-0.28
-0.05
-0.03
-0.28
-0.72
-1.15
-1.38
-1.34
-1.09
-0.77
-0.55
-0.48
-0.52
-0.56
-0.50
-0.28
0.06
0.46
0.85
1.19
1.43
1.55
1.49
1.24
0.80
0.24
-0.30
-0.68
-0.81
-0.65
-0.24
0.30
0.81
1.16
1.23
1.05
0.69
0.28
-0.04
-0.21
-0.24
-0.15
0.01
0.18
0.31
0.34
0.21
-0.06
-0.39
-0.63
-0.65
-0.38
0.10
0.62
0.96
1.01
0.74
0.28
-0.20
-0.57
-0.75
-0.74
-0.62
-0.47
-0.35
-0.31
-0.36
-0.44
-0.51
-0.55
-0.51
-0.41
-0.27
-0.14
-0.05
-0.04
-0.10
-0.20
-0.30
-0.32
-0.25
-0.14
-0.04
-0.00
-0.04
-0.09
-0.11
-0.07
-0.00
0.03
0.02
-0.00
0.05
0.22
0.52
0.80
0.93
0.80
0.44
0.00
-0.34
-0.45
-0.30
0.03
0.40
0.66
0.73
0.60
0.35
0.08
-0.13
-0.24
-0.27
-0.23
-0.17
-0.07
0.03
0.15
0.22
0.23
0.12
-0.10
-0.40
-0.70
-0.90
-0.94
-0.77
-0.40
0.10
0.62
1.01
1.16
1.01
0.63
0.16
-0.25
-0.49
-0.54
-0.45
-0.33
-0.26
-0.28
-0.38
-0.51
-0.63
-0.71
-0.79
-0.87
-0.96
-1.03
-1.01
-0.88
-0.64
-0.33
-0.02
0.24
0.40
0.45
0.41
0.30
0.17
0.09
0.11
0.25
0.51
0.80
1.07
1.26
1.35
1.35
1.28
1.13
0.92
0.66
0.41
0.23
0.17
0.21
0.27
0.26
0.12
-0.13
-0.43
-0.68
-0.84
-0.94
-1.04
-1.16
-1.28
-1.33
-1.23
-0.94
-0.52
-0.10
0.24
0.42
0.48
0.46
0.42
0.38
0.30
0.15
-0.07
-0.33
-0.55
-0.64
-0.52
-0.18
0.32
0.86
1.31
1.57
1.58
1.37
0.99
0.55
0.13
-0.18
-0.35
-0.33
-0.16
0.12
0.42
0.63
0.66
0.49
0.17
-0.19
-0.50
-0.69
-0.75
-0.72
-0.62
-0.48
-0.31
-0.17
-0.10
-0.16
-0.34
-0.56
-0.70
-0.65
-0.43
-0.16
-0.02
-0.12
-0.45
-0.81
-0.99
-0.84
-0.36
0.29
0.89
1.26
1.33
1.18
0.91
0.65
0.42
0.24
0.09
-0.04
-0.11
-0.08
0.07
0.29
0.52
0.64
0.59
0.38
0.07
-0.20
-0.32
-0.28
-0.10
0.08
0.16
0.08
-0.10
-0.30
-0.42
-0.43
-0.36
-0.25
-0.15
-0.08
-0.05
-0.08
-0.18
-0.34
-0.52
-0.65
-0.67
-0.56
-0.35
-0.13
0.03
0.09
0.08
0.06
0.07
0.14
0.27
0.41
0.55
0.65
0.72
0.73
0.67
0.55
0.36
0.14
-0.08
-0.25
-0.33
-0.32
-0.23
-0.13
-0.03
0.02
0.02
-0.05
-0.22
-0.47
-0.76
-1.03
-1.17
-1.15
-0.97
-0.72
-0.51
-0.41
-0.40
-0.39
-0.28
0.00
0.40
0.80
1.06
1.11
0.96
0.69
0.42
0.24
0.17
0.18
0.24
0.30
0.35
0.39
0.45
0.52
0.62
0.76
0.88
0.96
0.93
0.75
0.45
0.09
-0.22
-0.39
-0.36
-0.19
0.00
0.10
0.03
-0.16
-0.37
-0.48
-0.45
-0.32
-0.20
-0.20
-0.36
-0.60
-0.82
-0.92
-0.86
-0.65
-0.32
0.06
0.43
0.71
0.82
0.69
0.33
-0.16
-0.64
-0.94
-0.99
-0.80
-0.49
-0.20
-0.03
-0.00
-0.08
-0.18
-0.26
-0.29
-0.29
-0.29
-0.27
-0.23
-0.13
0.04
0.25
0.47
0.64
0.74
0.75
0.67
0.50
0.25
-0.04
-0.30
-0.41
-0.31
0.01
0.44
0.79
0.93
0.80
0.46
0.08
-0.22
-0.35
-0.34
-0.29
-0.29
-0.37
-0.48
-0.52
-0.41
-0.17
0.13
0.36
0.41
0.29
0.10
-0.02
0.01
0.18
0.38
0.47
0.41
0.20
-0.07
-0.26
-0.32
-0.24
-0.08
0.09
0.20
0.24
0.18
0.03
-0.18
-0.41
-0.61
-0.73
-0.73
-0.62
-0.44
-0.25
-0.10
-0.01
0.03
0.05
0.08
0.12
0.13
0.10
-0.02
-0.18
-0.32
-0.34
-0.20
0.09
0.39
0.56
0.51
0.27
-0.03
-0.25
-0.27
-0.09
0.22
0.50
0.67
0.70
0.60
0.42
0.23
0.07
-0.03
-0.04
0.00
0.07
0.09
0.05
-0.06
-0.16
-0.19
-0.15
-0.08
-0.06
-0.11
-0.21
-0.27
-0.21
0.02
0.34
0.66
0.85
0.88
0.79
0.65
0.57
0.55
0.56
0.53
0.45
0.31
0.16
0.06
0.03
0.08
0.18
0.29
0.38
0.40
0.32
0.11
-0.24
-0.68
-1.13
-1.50
-1.71
-1.79
-1.78
-1.72
-1.62
-1.41
-1.04
-0.53
0.01
0.42
0.59
0.53
0.35
0.18
0.10
0.12
0.18
0.23
0.29
0.40
0.58
0.78
0.92
0.90
0.70
0.38
0.03
-0.26
-0.48
-0.65
-0.79
-0.86
-0.78
-0.52
-0.11
0.33
0.63
0.67
0.45
0.10
-0.20
-0.27
-0.08
0.31
0.74
1.06
1.18
1.09
0.87
0.60
0.35
0.17
0.10
0.14
0.21
0.26
0.21
0.04
-0.20
-0.38
-0.45
-0.39
-0.30
-0.31
-0.50
-0.83
-1.17
-1.38
-1.39
-1.20
-0.88
-0.51
-0.14
0.22
0.49
0.60
0.48
0.15
-0.25
-0.55
-0.58
-0.28
0.24
0.80
1.18
1.27
1.06
0.65
0.17
-0.28
-0.60
-0.74
-0.71
-0.52
-0.25
0.03
0.25
0.37
0.39
0.37
0.39
0.49
0.65
0.77
0.77
0.63
0.38
0.10
-0.15
-0.35
-0.50
-0.59
-0.57
-0.42
-0.14
0.19
0.42
0.45
0.27
-0.04
-0.38
-0.64
-0.81
-0.87
-0.80
-0.52
-0.01
0.64
1.22
1.45
1.18
0.48
-0.33
-0.88
-0.91
-0.43
0.30
0.93
1.18
1.02
0.58
0.08
-0.30
-0.51
-0.61
-0.66
-0.68
-0.62
-0.43
-0.12
0.21
0.40
0.33
-0.02
-0.50
-0.91
-1.03
-0.80
-0.29
0.28
0.68
0.81
0.69
0.49
0.40
0.49
0.74
0.99
1.08
0.94
0.61
0.19
-0.24
-0.63
-0.99
-1.33
-1.63
-1.78
-1.72
-1.42
-0.95
-0.40
0.11
0.51
0.78
0.93
0.95
0.87
0.69
0.46
0.24
0.10
0.06
0.14
0.27
0.41
0.49
0.45
0.28
-0.01
-0.36
-0.69
-0.89
-0.87
-0.63
-0.22
0.25
0.65
0.87
0.89
0.69
0.34
-0.10
-0.53
-0.84
-0.96
-0.85
-0.55
-0.18
0.12
0.24
0.14
-0.11
-0.38
-0.57
-0.61
-0.52
-0.35
-0.17
0.02
0.23
0.47
0.71
0.88
0.89
0.69
0.32
-0.12
-0.45
-0.56
-0.42
-0.10
0.24
0.46
0.47
0.26
-0.08
-0.42
-0.61
-0.57
-0.33
-0.02
0.21
0.25
0.10
-0.09
-0.17
-0.02
0.31
0.68
0.88
0.79
0.42
-0.06
-0.44
-0.52
-0.27
0.18
0.59
0.75
0.56
0.08
-0.46
-0.83
-0.88
-0.62
-0.20
0.18
0.36
0.33
0.15
-0.04
-0.16
-0.18
-0.15
-0.09
-0.04
0.02
0.07
0.12
0.11
0.02
-0.16
-0.38
-0.59
-0.75
-0.87
-0.96
-0.98
-0.89
-0.65
-0.24
0.24
0.65
0.87
0.83
0.59
0.28
0.05
-0.03
0.05
0.23
0.43
0.56
0.52
0.29
-0.11
-0.57
-0.93
-1.03
-0.77
-0.21
0.48
1.07
1.38
1.34
1.02
0.59
0.19
-0.08
-0.20
-0.21
-0.14
-0.03
0.09
0.17
0.15
0.00
-0.25
-0.53
-0.72
-0.73
-0.55
-0.25
0.06
0.30
0.41
0.43
0.40
0.36
0.33
0.28
0.21
0.14
0.09
0.08
0.12
0.16
0.20
0.19
0.17
0.14
0.12
0.11
0.09
0.05
0.01
0.01
0.07
0.13
0.10
-0.12
-0.52
-0.96
-1.25
-1.24
-0.91
-0.40
0.07
0.34
0.34
0.19
0.08
0.11
0.32
0.61
0.82
0.87
0.78
0.63
0.51
0.50
0.58
0.68
0.72
0.68
0.57
0.45
0.33
0.19
-0.02
-0.33
-0.71
-1.07
-1.29
-1.31
-1.13
-0.81
-0.44
-0.10
0.19
0.40
0.54
0.59
0.52
0.33
0.03
-0.31
-0.61
-0.84
-0.97
-1.00
-0.92
-0.71
-0.37
0.07
0.52
0.85
0.97
0.85
0.57
0.24
-0.01
-0.12
-0.09
-0.01
0.09
0.18
0.29
0.42
0.54
0.58
0.51
0.33
0.10
-0.10
-0.21
-0.25
-0.24
-0.24
-0.24
-0.23
-0.18
-0.10
-0.01
0.05
0.05
0.01
-0.07
-0.18
-0.34
-0.55
-0.78
-0.97
-1.04
-0.93
-0.66
-0.32
0.00
0.22
0.31
0.30
0.23
0.12
-0.03
-0.25
-0.48
-0.67
-0.72
-0.55
-0.21
0.18
0.45
0.47
0.23
-0.15
-0.49
-0.63
-0.52
-0.21
0.15
0.40
0.48
0.39
0.23
0.08
0.01
0.02
0.08
0.18
0.32
0.49
0.69
0.86
0.94
0.89
0.74
0.54
0.38
0.31
0.34
0.42
0.51
0.54
0.49
0.37
0.21
0.09
0.10
0.27
0.56
0.83
0.93
0.78
0.43
0.02
-0.29
-0.42
-0.39
-0.30
-0.26
-0.28
-0.33
-0.35
-0.31
-0.22
-0.16
-0.17
-0.25
-0.39
-0.54
-0.69
-0.84
-0.98
-1.05
-1.01
-0.81
-0.47
-0.07
0.27
0.46
0.46
0.31
0.11
-0.04
-0.08
0.01
0.17
0.29
0.28
0.09
-0.22
-0.56
-0.79
-0.85
-0.72
-0.50
-0.29
-0.17
-0.15
-0.19
-0.26
-0.30
-0.30
-0.28
-0.20
-0.08
0.09
0.27
0.41
0.48
0.49
0.48
0.47
0.47
0.48
0.46
0.43
0.43
0.48
0.59
0.72
0.81
0.82
0.76
0.65
0.51
0.33
0.10
-0.18
-0.43
-0.55
-0.48
-0.26
-0.03
0.04
-0.15
-0.57
-1.05
-1.42
-1.56
-1.45
-1.19
-0.87
-0.55
-0.27
-0.01
0.20
0.31
0.30
0.19
0.04
-0.06
-0.05
0.09
0.32
0.56
0.74
0.84
0.88
0.89
0.87
0.82
0.67
0.43
0.12
-0.16
-0.30
-0.22
0.08
0.49
0.85
1.02
0.94
0.67
0.33
0.08
-0.04
-0.05
-0.07
-0.23
-0.57
-1.01
-1.38
-1.53
-1.38
-1.01
-0.57
-0.24
-0.10
-0.10
-0.13
-0.11
-0.01
0.13
0.23
0.26
0.25
0.25
0.30
0.41
0.54
0.62
0.60
0.50
0.33
0.15
0.01
-0.07
-0.12
-0.19
-0.31
-0.47
-0.61
-0.68
-0.65
-0.53
-0.37
-0.21
-0.03
0.20
0.50
0.82
1.10
1.22
1.13
0.82
0.41
0.02
-0.27
-0.43
-0.49
-0.51
-0.49
-0.39
-0.17
0.17
0.57
0.85
0.88
0.61
0.13
-0.37
-0.68
-0.68
-0.37
0.11
0.56
0.84
0.90
0.77
0.54
0.25
-0.03
-0.30
-0.54
-0.72
-0.80
-0.78
-0.67
-0.52
-0.38
-0.26
-0.20
-0.20
-0.28
-0.42
-0.59
-0.75
-0.83
-0.80
-0.69
-0.55
-0.42
-0.29
-0.15
0.03
0.24
0.43
0.55
0.61
0.64
0.67
0.72
0.74
0.64
0.42
0.12
-0.15
-0.26
-0.18
0.02
0.20
0.27
0.22
0.13
0.09
0.14
0.24
0.30
0.26
0.12
-0.07
-0.27
-0.46
-0.65
-0.83
-0.98
-1.04
-0.96
-0.72
-0.36
-0.01
0.24
0.35
0.33
0.27
0.25
0.32
0.50
0.72
0.92
1.04
1.05
0.95
0.77
0.57
0.38
0.23
0.13
0.06
-0.00
-0.09
-0.22
-0.35
-0.45
-0.45
-0.36
-0.21
-0.10
-0.07
-0.13
-0.24
-0.32
-0.32
-0.25
-0.18
-0.15
-0.20
-0.29
-0.35
-0.33
-0.22
-0.06
0.09
0.20
0.26
0.28
0.29
0.28
0.26
0.23
0.19
0.17
0.16
0.15
0.13
0.13
0.18
0.31
0.52
0.74
0.86
0.81
0.54
0.10
-0.38
-0.81
-1.08
-1.18
-1.15
-1.06
-0.94
-0.82
-0.68
-0.52
-0.33
-0.18
-0.09
-0.06
-0.04
0.03
0.20
0.42
0.62
0.72
0.70
0.60
0.49
0.45
0.45
0.46
0.44
0.41
0.39
0.42
0.49
0.53
0.48
0.29
-0.01
-0.34
-0.63
-0.79
-0.80
-0.72
-0.59
-0.47
-0.40
-0.36
-0.30
-0.19
-0.05
0.08
0.12
0.01
-0.26
-0.58
-0.83
-0.90
-0.76
-0.47
-0.20
-0.05
-0.07
-0.20
-0.35
-0.43
-0.39
-0.25
-0.06
0.18
0.48
0.83
1.18
1.42
1.43
1.17
0.68
0.14
-0.28
-0.41
-0.23
0.19
0.71
1.19
1.54
1.69
1.64
1.37
0.94
0.41
-0.11
-0.55
-0.89
-1.13
-1.29
-1.36
-1.33
-1.16
-0.90
-0.58
-0.30
-0.09
0.05
0.16
0.26
0.36
0.44
0.45
0.41
0.33
0.26
0.21
0.15
0.07
-0.05
-0.16
-0.23
-0.26
-0.25
-0.24
-0.27
-0.34
-0.43
-0.51
-0.55
-0.55
-0.52
-0.47
-0.40
-0.30
-0.15
0.04
0.23
0.37
0.41
0.32
0.14
-0.07
-0.24
-0.33
-0.33
-0.26
-0.17
-0.11
-0.08
-0.08
-0.06
0.00
0.11
0.22
0.32
0.34
0.27
0.15
0.04
0.01
0.07
0.21
0.33
0.38
0.32
0.18
0.03
-0.07
-0.12
-0.13
-0.13
-0.12
-0.06
0.08
0.34
0.65
0.91
1.00
0.87
0.56
0.19
-0.08
-0.17
-0.11
0.01
0.05
-0.06
-0.28
-0.53
-0.70
-0.73
-0.64
-0.53
-0.45
-0.45
-0.47
-0.49
-0.46
-0.37
-0.28
-0.19
-0.12
-0.04
0.09
0.30
0.54
0.76
0.88
0.86
0.69
0.45
0.21
0.06
0.02
0.09
0.19
0.22
0.14
-0.05
-0.26
-0.43
-0.50
-0.48
-0.42
-0.41
-0.45
-0.50
-0.47
-0.30
0.06
0.53
0.96
1.21
1.20
0.99
0.73
0.56
0.54
0.58
0.52
0.20
-0.39
-1.06
-1.56
-1.68
-1.40
-0.87
-0.33
0.03
0.17
0.18
0.17
0.21
0.29
0.34
0.31
0.21
0.09
0.02
0.03
0.09
0.13
0.11
0.03
-0.08
-0.18
-0.24
-0.26
-0.28
-0.30
-0.31
-0.28
-0.17
0.01
0.25
0.48
0.64
0.68
0.59
0.37
0.06
-0.30
-0.67
-0.97
-1.14
-1.09
-0.83
-0.40
0.09
0.48
0.66
0.61
0.38
0.12
-0.05
-0.05
0.08
0.24
0.31
0.27
0.13
-0.03
-0.10
-0.06
0.09
0.26
0.40
0.46
0.47
0.47
0.50
0.59
0.70
0.76
0.69
0.47
0.12
-0.27
-0.62
-0.88
-1.03
-1.08
-1.04
-0.87
-0.57
-0.15
0.31
0.69
0.89
0.90
0.75
0.55
0.39
0.32
0.29
0.22
0.03
-0.28
-0.63
-0.93
-1.08
-1.02
-0.77
-0.38
0.05
0.46
0.76
0.94
0.95
0.82
0.58
0.29
0.02
-0.15
-0.22
-0.18
-0.09
0.01
0.07
0.07
0.02
-0.09
-0.24
-0.46
-0.71
-0.97
-1.19
-1.29
-1.22
-0.98
-0.61
-0.22
0.11
0.35
0.47
0.51
0.46
0.33
0.15
-0.04
-0.15
-0.12
0.05
0.30
0.48
0.49
0.33
0.07
-0.17
-0.28
-0.24
-0.14
-0.05
-0.02
-0.03
0.01
0.14
0.37
0.64
0.84
0.92
0.87
0.74
0.55
0.34
0.09
-0.17
-0.40
-0.52
-0.47
-0.25
0.05
0.32
0.48
0.51
0.42
0.29
0.15
0.03
-0.05
-0.09
-0.11
-0.14
-0.23
-0.37
-0.56
-0.73
-0.83
-0.81
-0.67
-0.45
-0.21
0.00
0.17
0.26
0.29
0.26
0.19
0.10
0.00
-0.08
-0.14
-0.15
-0.12
-0.09
-0.13
-0.27
-0.52
-0.79
-0.96
-0.92
-0.67
-0.30
0.06
0.29
0.34
0.26
0.15
0.09
0.13
0.25
0.43
0.62
0.77
0.84
0.82
0.69
0.47
0.21
0.01
-0.09
-0.04
0.11
0.29
0.40
0.38
0.24
0.07
-0.07
-0.12
-0.08
0.02
0.14
0.24
0.30
0.31
0.25
0.15
0.03
-0.06
-0.11
-0.13
-0.15
-0.22
-0.31
-0.38
-0.36
-0.20
0.04
0.26
0.35
0.22
-0.09
-0.46
-0.74
-0.78
-0.55
-0.13
0.31
0.57
0.51
0.14
-0.40
-0.84
-0.97
-0.69
-0.09
0.60
1.11
1.29
1.11
0.67
0.14
-0.37
-0.78
-1.09
-1.25
-1.26
-1.09
-0.77
-0.40
-0.14
-0.08
-0.24
-0.51
-0.73
-0.77
-0.58
-0.24
0.11
0.37
0.48
0.49
0.44
0.39
0.34
0.26
0.14
0.02
-0.03
0.02
0.17
0.35
0.48
0.53
0.48
0.40
0.30
0.20
0.09
-0.01
-0.07
-0.05
0.08
0.29
0.49
0.60
0.53
0.29
-0.07
-0.43
-0.68
-0.73
-0.54
-0.16
0.30
0.73
1.03
1.18
1.24
1.27
1.29
1.28
1.19
0.97
0.63
0.22
-0.19
-0.54
-0.79
-0.97
-1.09
-1.17
-1.20
-1.19
-1.11
-0.97
-0.74
-0.42
-0.05
0.29
0.48
0.44
0.15
-0.23
-0.52
-0.54
-0.21
0.34
0.90
1.23
1.20
0.84
0.30
-0.22
-0.60
-0.79
-0.80
-0.67
-0.44
-0.14
0.16
0.36
0.39
0.23
-0.05
-0.32
-0.40
-0.24
0.14
0.58
0.92
1.05
0.95
0.70
0.40
0.12
-0.11
-0.31
-0.46
-0.55
-0.57
-0.50
-0.39
-0.29
-0.24
-0.23
-0.22
-0.16
-0.05
0.03
0.02
-0.10
-0.31
-0.49
-0.56
-0.47
-0.25
0.01
0.23
0.36
0.41
0.43
0.43
0.40
0.31
0.16
-0.05
-0.26
-0.42
-0.50
-0.53
-0.53
-0.53
-0.51
-0.41
-0.19
0.15
0.59
1.02
1.35
1.53
1.50
1.28
0.92
0.47
0.03
-0.32
-0.53
-0.60
-0.55
-0.48
-0.44
-0.46
-0.52
-0.55
-0.52
-0.42
-0.28
-0.16
-0.07
-0.00
0.06
0.11
0.13
0.08
-0.07
-0.29
-0.52
-0.66
-0.64
-0.45
-0.15
0.16
0.39
0.53
0.58
0.60
0.59
0.56
0.48
0.33
0.15
-0.04
-0.18
-0.27
-0.28
-0.23
-0.12
0.02
0.15
0.25
0.27
0.21
0.05
-0.17
-0.43
-0.66
-0.80
-0.79
-0.62
-0.32
0.02
0.29
0.46
0.52
0.54
0.56
0.60
0.61
0.53
0.36
0.14
-0.07
-0.19
-0.24
-0.23
-0.22
-0.24
-0.28
-0.35
-0.44
-0.51
-0.49
-0.35
-0.05
0.33
0.69
0.87
0.78
0.43
-0.05
-0.47
-0.67
-0.56
-0.19
0.32
0.76
0.97
0.86
0.48
0.00
-0.38
-0.52
-0.40
-0.16
0.05
0.09
-0.02
-0.20
-0.31
-0.27
-0.09
0.10
0.19
0.09
-0.19
-0.57
-0.94
-1.19
-1.24
-1.07
-0.70
-0.21
0.25
0.57
0.68
0.58
0.34
0.09
-0.10
-0.17
-0.13
-0.01
0.13
0.28
0.42
0.56
0.67
0.72
0.67
0.48
0.18
-0.16
-0.42
-0.49
-0.33
-0.03
0.29
0.49
0.49
0.34
0.16
0.07
0.14
0.34
0.56
0.68
0.64
0.43
0.11
-0.28
-0.69
-1.07
-1.37
-1.51
-1.39
-0.98
-0.35
0.35
0.89
1.12
1.01
0.66
0.27
-0.01
-0.09
-0.02
0.10
0.14
0.02
-0.27
-0.68
-1.11
-1.39
-1.40
-1.05
-0.43
0.27
0.81
0.99
0.81
0.43
0.08
-0.05
0.06
0.34
0.61
0.79
0.86
0.89
0.93
0.99
1.03
1.00
0.86
0.66
0.46
0.32
0.28
0.29
0.29
0.19
-0.03
-0.35
-0.67
-0.87
-0.87
-0.67
-0.32
0.04
0.30
0.38
0.26
-0.03
-0.42
-0.82
-1.17
-1.37
-1.36
-1.14
-0.73
-0.22
0.25
0.56
0.64
0.52
0.32
0.17
0.16
0.25
0.31
0.18
-0.16
-0.64
-1.05
-1.25
-1.18
-0.93
-0.65
-0.45
-0.32
-0.16
0.11
0.46
0.79
0.93
0.84
0.56
0.24
0.02
-0.04
0.02
0.13
0.24
0.33
0.43
0.57
0.72
0.86
0.92
0.88
0.73
0.47
0.13
-0.26
-0.66
-0.97
-1.12
-1.08
-0.87
-0.58
-0.31
-0.15
-0.10
-0.15
-0.22
-0.23
-0.14
0.05
0.30
0.49
0.55
0.43
0.19
-0.10
-0.32
-0.44
-0.43
-0.39
-0.34
-0.32
-0.29
-0.21
-0.03
0.23
0.49
0.69
0.74
0.65
0.46
0.23
0.01
-0.16
-0.31
-0.49
-0.71
-0.98
-1.21
-1.31
-1.23
-0.95
-0.55
-0.11
0.25
0.49
0.57
0.53
0.40
0.25
0.13
0.11
0.22
0.48
0.81
1.11
1.24
1.09
0.69
0.16
-0.32
-0.57
-0.53
-0.26
0.08
0.35
0.47
0.50
0.51
0.59
0.74
0.86
0.82
0.56
0.11
-0.42
-0.83
-1.02
-0.97
-0.73
-0.44
-0.19
-0.01
0.08
0.11
0.07
-0.05
-0.23
-0.46
-0.67
-0.80
-0.82
-0.75
-0.62
-0.43
-0.23
-0.01
0.17
0.26
0.22
0.09
-0.06
-0.15
-0.10
0.05
0.25
0.41
0.49
0.49
0.47
0.43
0.36
0.21
-0.03
-0.30
-0.50
-0.51
-0.25
0.22
0.76
1.18
1.35
1.26
1.00
0.69
0.45
0.32
0.26
0.21
0.10
-0.08
-0.30
-0.50
-0.62
-0.64
-0.56
-0.43
-0.32
-0.26
-0.31
-0.46
-0.65
-0.79
-0.77
-0.56
-0.22
0.13
0.33
0.30
0.06
-0.25
-0.47
-0.50
-0.38
-0.25
-0.23
-0.38
-0.65
-0.88
-0.93
-0.73
-0.32
0.18
0.62
0.89
0.96
0.87
0.72
0.58
0.51
0.50
0.55
0.62
0.72
0.82
0.93
0.98
0.93
0.72
0.35
-0.09
-0.49
-0.74
-0.76
-0.56
-0.23
0.14
0.44
0.60
0.58
0.40
0.10
-0.25
-0.54
-0.68
-0.62
-0.39
-0.08
0.16
0.23
0.09
-0.19
-0.49
-0.69
-0.73
-0.61
-0.42
-0.28
-0.25
-0.34
-0.48
-0.56
-0.48
-0.23
0.10
0.39
0.50
0.37
0.07
-0.27
-0.50
-0.50
-0.29
0.05
0.40
0.66
0.77
0.73
0.55
0.29
-0.01
-0.26
-0.40
-0.38
-0.19
0.11
0.45
0.72
0.85
0.84
0.74
0.60
0.45
0.27
0.02
-0.30
-0.65
-0.92
-0.99
-0.81
-0.43
0.05
0.49
0.80
0.95
0.96
0.86
0.67
0.40
0.13
-0.07
-0.08
0.13
0.50
0.89
1.12
1.07
0.73
0.21
-0.35
-0.83
-1.17
-1.39
-1.53
-1.59
-1.55
-1.36
-1.03
-0.60
-0.18
0.13
0.29
0.31
0.25
0.14
0.03
-0.06
-0.13
-0.16
-0.12
-0.04
0.06
0.11
0.09
0.02
-0.07
-0.12
-0.12
-0.10
-0.11
-0.16
-0.26
-0.34
-0.37
-0.31
-0.17
-0.01
0.11
0.16
0.13
0.09
0.12
0.28
0.58
0.94
1.25
1.41
1.37
1.13
0.77
0.36
-0.04
-0.38
-0.62
-0.72
-0.64
-0.41
-0.10
0.15
0.23
0.08
-0.26
-0.68
-1.04
-1.22
-1.16
-0.89
-0.49
-0.06
0.29
0.52
0.64
0.69
0.73
0.79
0.83
0.83
0.75
0.57
0.35
0.14
-0.04
-0.19
-0.34
-0.49
-0.63
-0.68
-0.56
-0.27
0.11
0.45
0.60
0.51
0.22
-0.13
-0.40
-0.47
-0.32
-0.04
0.21
0.30
0.15
-0.19
-0.61
-0.95
-1.09
-1.01
-0.76
-0.43
-0.09
0.21
0.47
0.69
0.83
0.87
0.75
0.51
0.20
-0.08
-0.26
-0.32
-0.29
-0.25
-0.24
-0.28
-0.38
-0.48
-0.54
-0.51
-0.40
-0.25
-0.13
-0.10
-0.16
-0.26
-0.29
-0.16
0.12
0.48
0.80
0.95
0.89
0.65
0.34
0.09
-0.02
0.01
0.14
0.29
0.38
0.40
0.38
0.36
0.36
0.36
0.35
0.29
0.25
0.23
0.26
0.30
0.31
0.24
0.13
0.00
-0.07
-0.10
-0.11
-0.14
-0.20
-0.23
-0.19
-0.06
0.11
0.22
0.20
0.02
-0.25
-0.51
-0.65
-0.60
-0.40
-0.14
0.05
0.06
-0.13
-0.45
-0.79
-1.03
-1.08
-0.90
-0.53
-0.01
0.54
1.00
1.27
1.27
1.03
0.62
0.17
-0.18
-0.40
-0.49
-0.51
-0.49
-0.47
-0.42
-0.34
-0.22
-0.09
0.00
0.05
0.06
0.07
0.09
0.15
0.24
0.33
0.41
0.43
0.38
0.23
0.02
-0.22
-0.42
-0.48
-0.38
-0.13
0.18
0.44
0.57
0.53
0.37
0.18
0.02
-0.06
-0.02
0.10
0.27
0.39
0.40
0.24
-0.10
-0.51
-0.88
-1.05
-0.94
-0.58
-0.09
0.35
0.59
0.57
0.32
-0.04
-0.38
-0.62
-0.74
-0.73
-0.63
-0.48
-0.30
-0.12
0.05
0.17
0.24
0.25
0.22
0.17
0.13
0.15
0.24
0.36
0.43
0.36
0.08
-0.35
-0.80
-1.06
-0.97
-0.51
0.14
0.72
0.98
0.84
0.39
-0.13
-0.49
-0.56
-0.37
-0.04
0.29
0.55
0.73
0.87
0.98
1.02
0.92
0.64
0.23
-0.18
-0.46
-0.53
-0.42
-0.25
-0.15
-0.20
-0.38
-0.58
-0.68
-0.62
-0.42
-0.17
0.01
0.07
0.07
0.10
0.25
0.51
0.76
0.86
0.68
0.25
-0.30
-0.73
-0.88
-0.72
-0.35
0.03
0.27
0.33
0.31
0.30
0.35
0.42
0.42
0.30
0.07
-0.17
-0.31
-0.33
-0.25
-0.15
-0.09
-0.08
-0.07
-0.04
0.03
0.11
0.18
0.23
0.29
0.37
0.43
0.44
0.41
0.35
0.31
0.33
0.36
0.34
0.20
-0.06
-0.39
-0.70
-0.88
-0.92
-0.83
-0.69
-0.57
-0.49
-0.45
-0.41
-0.35
-0.23
-0.03
0.25
0.59
0.88
0.99
0.83
0.35
-0.32
-0.98
-1.38
-1.39
-1.01
-0.41
0.18
0.51
0.51
0.23
-0.13
-0.39
-0.42
-0.23
0.09
0.42
0.69
0.86
0.96
0.99
0.97
0.85
0.62
0.34
0.08
-0.05
0.01
0.23
0.50
0.71
0.73
0.55
0.22
-0.13
-0.38
-0.48
-0.42
-0.28
-0.15
-0.08
-0.11
-0.21
-0.32
-0.42
-0.52
-0.63
-0.76
-0.86
-0.85
-0.64
-0.26
0.19
0.53
0.62
0.44
0.07
-0.31
-0.52
-0.53
-0.40
-0.28
-0.28
-0.40
-0.55
-0.58
-0.41
-0.08
0.28
0.53
0.62
0.62
0.67
0.85
1.15
1.43
1.47
1.18
0.62
-0.00
-0.46
-0.64
-0.57
-0.40
-0.32
-0.37
-0.47
-0.49
-0.33
-0.01
0.32
0.50
0.42
0.12
-0.25
-0.53
-0.63
-0.58
-0.49
-0.44
-0.45
-0.46
-0.40
-0.26
-0.09
0.02
0.05
0.05
0.12
0.32
0.66
1.02
1.25
1.26
1.05
0.71
0.34
0.04
-0.18
-0.35
-0.50
-0.58
-0.56
-0.39
-0.11
0.21
0.45
0.52
0.39
0.13
-0.11
-0.25
-0.21
-0.05
0.16
0.31
0.36
0.29
0.12
-0.12
-0.40
-0.65
-0.81
-0.85
-0.75
-0.56
-0.34
-0.17
-0.11
-0.19
-0.36
-0.60
-0.80
-0.90
-0.84
-0.60
-0.22
0.22
0.59
0.82
0.87
0.78
0.64
0.54
0.51
0.59
0.74
0.88
0.96
0.92
0.72
0.40
-0.01
-0.40
-0.69
-0.82
-0.76
-0.56
-0.29
-0.06
0.06
0.01
-0.21
-0.57
-0.95
-1.25
-1.35
-1.24
-0.96
-0.63
-0.35
-0.16
-0.02
0.11
0.27
0.42
0.47
0.34
0.06
-0.26
-0.48
-0.50
-0.30
0.01
0.31
0.48
0.49
0.38
0.25
0.19
0.25
0.42
0.68
0.93
1.11
1.14
1.02
0.80
0.54
0.30
0.14
0.04
0.01
0.04
0.14
0.30
0.47
0.55
0.44
0.16
-0.21
-0.48
-0.52
-0.29
0.10
0.45
0.57
0.41
0.05
-0.35
-0.64
-0.73
-0.63
-0.42
-0.22
-0.07
0.02
0.07
0.15
0.28
0.44
0.58
0.64
0.59
0.43
0.21
-0.05
-0.29
-0.48
-0.60
-0.62
-0.57
-0.50
-0.45
-0.48
-0.59
-0.74
-0.86
-0.89
-0.84
-0.70
-0.53
-0.36
-0.20
-0.04
0.12
0.28
0.43
0.51
0.52
0.43
0.31
0.21
0.18
0.25
0.35
0.39
0.27
0.01
-0.30
-0.51
-0.48
-0.21
0.24
0.70
1.02
1.12
0.99
0.68
0.27
-0.21
-0.68
-1.10
-1.39
-1.51
-1.43
-1.17
-0.78
-0.32
0.17
0.62
0.96
1.11
1.04
0.77
0.41
0.07
-0.17
-0.32
-0.43
-0.52
-0.60
-0.60
-0.44
-0.13
0.24
0.54
0.63
0.48
0.16
-0.21
-0.52
-0.68
-0.67
-0.49
-0.18
0.22
0.63
0.93
1.02
0.85
0.52
0.20
0.06
0.22
0.58
0.98
1.20
1.11
0.77
0.32
-0.06
-0.29
-0.35
-0.36
-0.38
-0.47
-0.61
-0.73
-0.78
-0.75
-0.65
-0.48
-0.29
-0.09
0.09
0.22
0.30
0.33
0.33
0.30
0.22
0.09
-0.08
-0.22
-0.28
-0.21
-0.02
0.23
0.44
0.55
0.56
0.51
0.47
0.45
0.42
0.29
0.02
-0.37
-0.76
-1.02
-1.06
-0.89
-0.59
-0.24
0.08
0.35
0.55
0.68
0.70
0.60
0.39
0.15
-0.03
-0.09
-0.01
0.13
0.28
0.37
0.39
0.34
0.23
0.06
-0.18
-0.41
-0.56
-0.54
-0.30
0.10
0.54
0.84
0.87
0.63
0.20
-0.26
-0.61
-0.79
-0.82
-0.77
-0.71
-0.66
-0.61
-0.53
-0.44
-0.36
-0.32
-0.34
-0.39
-0.39
-0.30
-0.09
0.18
0.44
0.64
0.74
0.75
0.71
0.65
0.61
0.59
0.58
0.56
0.53
0.47
0.39
0.27
0.12
-0.08
-0.34
-0.64
-0.93
-1.14
-1.19
-1.02
-0.66
-0.20
0.23
0.48
0.49
0.27
-0.09
-0.48
-0.81
-1.05
-1.19
-1.24
-1.19
-0.99
-0.64
-0.13
0.47
1.02
1.38
1.44
1.19
0.72
0.19
-0.25
-0.48
-0.50
-0.36
-0.18
-0.05
-0.00
-0.02
-0.04
-0.03
0.02
0.07
0.10
0.12
0.18
0.30
0.50
0.68
0.78
0.71
0.49
0.20
-0.06
-0.22
-0.27
-0.25
-0.22
-0.18
-0.14
-0.07
-0.00
0.02
-0.03
-0.14
-0.26
-0.30
-0.23
-0.07
0.12
0.26
0.35
0.41
0.46
0.50
0.51
0.42
0.25
0.04
-0.14
-0.23
-0.23
-0.18
-0.11
-0.05
0.02
0.10
0.18
0.26
0.31
0.31
0.25
0.14
-0.01
-0.15
-0.22
-0.16
0.02
0.22
0.33
0.24
-0.01
-0.29
-0.41
-0.26
0.13
0.60
0.95
1.07
0.99
0.82
0.69
0.65
0.66
0.63
0.48
0.22
-0.13
-0.50
-0.80
-1.03
-1.16
-1.17
-1.06
-0.83
-0.52
-0.25
-0.12
-0.20
-0.44
-0.71
-0.86
-0.83
-0.62
-0.35
-0.16
-0.09
-0.16
-0.28
-0.41
-0.53
-0.61
-0.64
-0.55
-0.32
0.03
0.44
0.80
1.02
1.06
0.93
0.68
0.34
-0.03
-0.34
-0.53
-0.53
-0.38
-0.15
0.04
0.12
0.10
0.05
0.05
0.14
0.28
0.38
0.40
0.35
0.30
0.29
0.32
0.31
0.20
-0.05
-0.35
-0.60
-0.68
-0.57
-0.30
0.03
0.32
0.50
0.56
0.47
0.26
-0.05
-0.40
-0.70
-0.84
-0.73
-0.39
0.12
0.63
0.97
1.05
0.86
0.51
0.14
-0.13
-0.26
-0.30
-0.33
-0.40
-0.49
-0.55
-0.51
-0.35
-0.17
-0.08
-0.14
-0.33
-0.53
-0.61
-0.47
-0.11
0.36
0.81
1.12
1.21
1.10
0.82
0.46
0.09
-0.21
-0.39
-0.44
-0.36
-0.23
-0.10
-0.01
0.07
0.16
0.30
0.46
0.58
0.59
0.48
0.31
0.18
0.19
0.32
0.50
0.59
0.50
0.20
-0.22
-0.65
-0.97
-1.12
-1.07
-0.88
-0.57
-0.20
0.21
0.60
0.92
1.07
0.97
0.61
0.11
-0.38
-0.67
-0.69
-0.48
-0.21
-0.03
-0.02
-0.14
-0.26
-0.28
-0.16
0.01
0.13
0.11
-0.03
-0.20
-0.28
-0.23
-0.06
0.13
0.21
0.15
-0.03
-0.23
-0.35
-0.34
-0.25
-0.19
-0.23
-0.40
-0.59
-0.67
-0.56
-0.25
0.15
0.54
0.79
0.89
0.81
0.58
0.22
-0.21
-0.61
-0.83
-0.76
-0.38
0.17
0.70
1.01
1.03
0.82
0.57
0.40
0.37
0.40
0.39
0.26
0.03
-0.20
-0.36
-0.41
-0.39
-0.37
-0.38
-0.43
-0.47
-0.48
-0.49
-0.52
-0.59
-0.70
-0.78
-0.77
-0.65
-0.47
-0.28
-0.15
-0.07
-0.02
0.05
0.14
0.26
0.37
0.44
0.47
0.46
0.46
0.45
0.43
0.37
0.27
0.17
0.13
0.21
0.41
0.66
0.89
1.05
1.11
1.09
1.00
0.80
0.47
-0.01
-0.52
-0.93
-1.07
-0.91
-0.52
-0.08
0.24
0.36
0.32
0.23
0.16
0.13
0.11
0.09
0.08
0.14
0.28
0.45
0.53
0.43
0.15
-0.21
-0.48
-0.55
-0.41
-0.21
-0.09
-0.17
-0.42
-0.71
-0.88
-0.84
-0.63
-0.34
-0.09
0.06
0.11
0.11
0.10
0.08
0.02
-0.12
-0.36
-0.61
-0.77
-0.73
-0.45
-0.00
0.46
0.79
0.90
0.82
0.66
0.48
0.35
0.22
0.10
-0.01
-0.06
-0.02
0.10
0.22
0.24
0.12
-0.11
-0.35
-0.52
-0.56
-0.51
-0.43
-0.38
-0.36
-0.31
-0.17
0.12
0.48
0.80
0.91
0.74
0.36
-0.05
-0.29
-0.26
-0.02
0.25
0.36
0.26
0.03
-0.19
-0.26
-0.18
-0.05
0.04
0.05
0.03
0.05
0.13
0.23
0.28
0.22
0.09
-0.05
-0.13
-0.15
-0.14
-0.18
-0.29
-0.42
-0.45
-0.32
-0.03
0.31
0.57
0.66
0.56
0.34
0.08
-0.17
-0.39
-0.58
-0.71
-0.75
-0.67
-0.47
-0.20
0.07
0.28
0.37
0.37
0.29
0.15
-0.04
-0.26
-0.52
-0.76
-0.93
-0.97
-0.84
-0.56
-0.17
0.21
0.46
0.53
0.44
0.31
0.29
0.45
0.77
1.13
1.35
1.34
1.09
0.71
0.34
0.05
-0.12
-0.24
-0.35
-0.46
-0.53
-0.50
-0.37
-0.16
0.06
0.23
0.28
0.18
-0.06
-0.38
-0.65
-0.77
-0.65
-0.33
0.04
0.30
0.32
0.09
-0.27
-0.60
-0.78
-0.81
-0.78
-0.79
-0.89
-1.03
-1.09
-0.96
-0.63
-0.14
0.40
0.85
1.15
1.25
1.14
0.86
0.47
0.10
-0.17
-0.27
-0.22
-0.10
-0.04
-0.08
-0.20
-0.33
-0.34
-0.19
0.05
0.29
0.42
0.40
0.30
0.23
0.25
0.34
0.39
0.30
0.03
-0.34
-0.67
-0.79
-0.64
-0.27
0.19
0.61
0.88
0.96
0.88
0.65
0.34
-0.01
-0.32
-0.52
-0.55
-0.39
-0.09
0.28
0.61
0.83
0.89
0.83
0.70
0.56
0.44
0.32
0.15
-0.08
-0.36
-0.61
-0.73
-0.67
-0.47
-0.24
-0.07
-0.02
-0.08
-0.14
-0.10
0.09
0.37
0.59
0.59
0.30
-0.23
-0.82
-1.24
-1.36
-1.18
-0.83
-0.49
-0.25
-0.14
-0.06
0.07
0.28
0.54
0.78
0.97
1.07
1.10
1.06
0.90
0.64
0.29
-0.05
-0.29
-0.40
-0.41
-0.40
-0.41
-0.44
-0.38
-0.17
0.20
0.61
0.94
1.03
0.88
0.54
0.16
-0.15
-0.32
-0.37
-0.35
-0.29
-0.24
-0.19
-0.16
-0.14
-0.17
-0.29
-0.51
-0.78
-1.01
-1.08
-0.94
-0.58
-0.14
0.26
0.47
0.44
0.23
-0.07
-0.36
-0.55
-0.59
-0.50
-0.29
-0.03
0.20
0.30
0.21
-0.04
-0.32
-0.46
-0.36
-0.04
0.35
0.62
0.65
0.45
0.17
-0.03
-0.07
0.00
0.08
0.06
-0.07
-0.25
-0.39
-0.42
-0.35
-0.23
-0.07
0.10
0.29
0.47
0.59
0.64
0.63
0.61
0.63
0.72
0.80
0.79
0.60
0.26
-0.15
-0.48
-0.62
-0.53
-0.26
0.09
0.42
0.66
0.78
0.78
0.66
0.43
0.07
-0.36
-0.78
-1.07
-1.10
-0.85
-0.39
0.13
0.55
0.76
0.75
0.57
0.33
0.08
-0.13
-0.31
-0.43
-0.49
-0.48
-0.41
-0.29
-0.14
0.03
0.20
0.35
0.45
0.42
0.22
-0.13
-0.55
-0.92
-1.14
-1.16
-1.04
-0.86
-0.70
-0.57
-0.44
-0.26
-0.02
0.24
0.46
0.58
0.60
0.54
0.44
0.33
0.19
0.03
-0.14
-0.28
-0.32
-0.23
-0.01
0.29
0.60
0.82
0.89
0.79
0.56
0.27
0.02
-0.16
-0.28
-0.40
-0.60
-0.90
-1.22
-1.42
-1.38
-1.00
-0.37
0.33
0.87
1.11
1.04
0.80
0.57
0.48
0.56
0.74
0.90
0.94
0.87
0.71
0.53
0.37
0.20
0.01
-0.19
-0.38
-0.48
-0.46
-0.37
-0.27
-0.24
-0.30
-0.39
-0.42
-0.30
-0.03
0.30
0.58
0.74
0.76
0.69
0.58
0.44
0.27
0.03
-0.26
-0.55
-0.77
-0.86
-0.80
-0.63
-0.46
-0.36
-0.40
-0.56
-0.80
-1.00
-1.08
-1.01
-0.79
-0.47
-0.12
0.21
0.48
0.67
0.75
0.72
0.62
0.48
0.36
0.26
0.20
0.14
0.06
-0.02
-0.05
-0.00
0.13
0.31
0.46
0.53
0.49
0.37
0.21
0.07
-0.04
-0.09
-0.09
-0.05
0.02
0.11
0.20
0.22
0.15
-0.03
-0.28
-0.51
-0.62
-0.54
-0.30
0.03
0.34
0.51
0.52
0.38
0.15
-0.08
-0.27
-0.35
-0.33
-0.21
-0.04
0.09
0.12
0.01
-0.19
-0.41
-0.54
-0.53
-0.37
-0.12
0.15
0.39
0.57
0.70
0.79
0.84
0.82
0.71
0.51
0.27
0.08
-0.01
0.03
0.13
0.19
0.12
-0.10
-0.39
-0.63
-0.69
-0.56
-0.31
-0.08
0.03
-0.04
-0.23
-0.46
-0.63
-0.75
-0.81
-0.86
-0.86
-0.76
-0.49
-0.05
0.50
1.02
1.34
1.36
1.09
0.64
0.21
-0.05
-0.09
0.01
0.11
0.12
0.02
-0.12
-0.19
-0.12
0.06
0.27
0.46
0.56
0.56
0.47
0.29
0.01
-0.31
-0.59
-0.76
-0.72
-0.50
-0.20
0.02
0.04
-0.17
-0.52
-0.89
-1.13
-1.18
-1.04
-0.77
-0.44
-0.11
0.19
0.42
0.53
0.51
0.37
0.22
0.14
0.21
0.38
0.55
0.60
0.46
0.14
-0.24
-0.55
-0.70
-0.67
-0.51
-0.28
-0.02
0.22
0.43
0.58
0.65
0.65
0.61
0.58
0.60
0.65
0.68
0.68
0.64
0.58
0.51
0.40
0.22
-0.06
-0.42
-0.77
-1.04
-1.14
-1.07
-0.88
-0.64
-0.41
-0.20
-0.00
0.17
0.28
0.30
0.21
0.06
-0.07
-0.14
-0.12
-0.07
-0.06
-0.13
-0.29
-0.46
-0.54
-0.48
-0.25
0.09
0.43
0.68
0.79
0.77
0.63
0.45
0.27
0.16
0.13
0.17
0.25
0.30
0.29
0.23
0.15
0.10
0.10
0.13
0.15
0.14
0.07
-0.05
-0.19
-0.33
-0.44
-0.53
-0.58
-0.57
-0.51
-0.40
-0.29
-0.22
-0.20
-0.26
-0.39
-0.56
-0.73
-0.85
-0.84
-0.66
-0.31
0.15
0.56
0.81
0.80
0.58
0.32
0.20
0.31
0.62
0.95
1.11
1.01
0.69
0.33
0.07
-0.02
-0.01
-0.01
-0.10
-0.26
-0.38
-0.37
-0.17
0.15
0.44
0.60
0.55
0.37
0.16
0.02
0.00
0.06
0.10
0.07
-0.05
-0.21
-0.36
-0.43
-0.43
-0.37
-0.33
-0.32
-0.33
-0.34
-0.31
-0.22
-0.11
-0.03
-0.07
-0.22
-0.45
-0.68
-0.81
-0.80
-0.64
-0.40
-0.14
0.06
0.19
0.28
0.36
0.48
0.61
0.73
0.78
0.76
0.69
0.67
0.75
0.91
1.05
1.02
0.72
0.18
-0.44
-0.91
-1.04
-0.81
-0.37
0.07
0.32
0.29
0.03
-0.33
-0.64
-0.84
-0.90
-0.85
-0.73
-0.59
-0.43
-0.25
-0.05
0.15
0.31
0.37
0.32
0.16
-0.05
-0.26
-0.42
-0.54
-0.61
-0.63
-0.58
-0.45
-0.25
0.00
0.26
0.49
0.67
0.81
0.90
0.94
0.90
0.80
0.67
0.54
0.44
0.37
0.31
0.25
0.17
0.10
0.06
0.06
0.06
0.04
-0.02
-0.11
-0.22
-0.31
-0.34
-0.29
-0.16
0.03
0.25
0.46
0.58
0.53
0.28
-0.16
-0.66
-1.06
-1.22
-1.08
-0.72
-0.29
0.03
0.14
0.08
-0.04
-0.07
0.04
0.22
0.33
0.24
-0.05
-0.41
-0.65
-0.63
-0.32
0.12
0.48
0.60
0.46
0.17
-0.12
-0.28
-0.32
-0.33
-0.40
-0.56
-0.72
-0.79
-0.70
-0.49
-0.25
-0.09
-0.04
-0.03
0.07
0.35
0.81
1.31
1.67
1.71
1.41
0.87
0.31
-0.11
-0.27
-0.21
-0.05
0.07
0.08
-0.01
-0.16
-0.32
-0.46
-0.58
-0.67
-0.72
-0.70
-0.63
-0.54
-0.49
-0.47
-0.49
-0.47
-0.38
-0.20
0.01
0.20
0.31
0.36
0.40
0.50
0.70
0.96
1.17
1.20
0.96
0.48
-0.07
-0.47
-0.53
-0.20
0.36
0.93
1.29
1.33
1.09
0.70
0.30
-0.04
-0.32
-0.54
-0.69
-0.76
-0.72
-0.61
-0.48
-0.39
-0.36
-0.40
-0.48
-0.58
-0.70
-0.82
-0.90
-0.89
-0.75
-0.49
-0.14
0.20
0.48
0.65
0.73
0.73
0.65
0.51
0.35
0.24
0.25
0.39
0.60
0.76
0.74
0.51
0.13
-0.26
-0.51
-0.55
-0.40
-0.17
0.04
0.15
0.13
0.00
-0.18
-0.36
-0.44
-0.35
-0.10
0.26
0.61
0.80
0.74
0.45
0.03
-0.36
-0.60
-0.63
-0.49
-0.27
-0.09
-0.02
-0.08
-0.24
-0.41
-0.51
-0.47
-0.35
-0.23
-0.24
-0.44
-0.78
-1.11
-1.26
-1.13
-0.73
-0.20
0.29
0.60
0.69
0.63
0.51
0.43
0.43
0.48
0.55
0.60
0.62
0.58
0.45
0.26
0.01
-0.20
-0.31
-0.26
-0.05
0.20
0.38
0.38
0.23
0.02
-0.11
-0.07
0.12
0.39
0.63
0.78
0.81
0.74
0.61
0.43
0.21
-0.03
-0.28
-0.50
-0.65
-0.69
-0.61
-0.46
-0.34
-0.33
-0.48
-0.76
-1.04
-1.15
-0.99
-0.55
0.04
0.60
0.95
0.99
0.77
0.40
0.03
-0.23
-0.35
-0.34
-0.24
-0.09
0.12
0.40
0.69
0.93
1.02
0.92
0.65
0.33
0.08
-0.03
0.02
0.16
0.28
0.33
0.26
0.10
-0.09
-0.29
-0.47
-0.62
-0.74
-0.83
-0.89
-0.93
-0.93
-0.87
-0.73
-0.51
-0.23
0.07
0.32
0.49
0.56
0.56
0.53
0.49
0.45
0.37
0.25
0.09
-0.04
-0.08
-0.03
0.09
0.20
0.24
0.17
0.01
-0.19
-0.35
-0.43
-0.41
-0.30
-0.13
0.05
0.20
0.26
0.20
0.05
-0.14
-0.33
-0.46
-0.52
-0.50
-0.44
-0.38
-0.35
-0.37
-0.46
-0.62
-0.78
-0.87
-0.80
-0.54
-0.14
0.30
0.66
0.85
0.84
0.69
0.47
0.27
0.12
0.02
-0.04
-0.05
-0.00
0.14
0.38
0.67
0.92
1.04
0.96
0.72
0.42
0.17
0.08
0.15
0.34
0.55
0.70
0.74
0.65
0.45
0.17
-0.14
-0.42
-0.60
-0.62
-0.47
-0.20
0.09
0.29
0.30
0.13
-0.15
-0.41
-0.52
-0.48
-0.32
-0.16
-0.12
-0.24
-0.46
-0.65
-0.70
-0.55
-0.24
0.12
0.41
0.54
0.49
0.29
0.00
-0.30
-0.58
-0.79
-0.89
-0.86
-0.68
-0.38
-0.02
0.31
0.51
0.55
0.42
0.21
0.03
-0.06
-0.01
0.10
0.22
0.29
0.29
0.26
0.25
0.27
0.28
0.25
0.18
0.14
0.19
0.37
0.60
0.77
0.73
0.45
0.04
-0.33
-0.49
-0.40
-0.15
0.09
0.16
0.05
-0.16
-0.34
-0.38
-0.26
-0.06
0.16
0.35
0.48
0.56
0.55
0.40
0.09
-0.34
-0.77
-1.03
-1.02
-0.74
-0.30
0.09
0.29
0.23
-0.04
-0.39
-0.69
-0.87
-0.92
-0.87
-0.76
-0.59
-0.39
-0.19
-0.03
0.06
0.10
0.10
0.11
0.12
0.12
0.06
-0.04
-0.11
-0.03
0.27
0.75
1.24
1.54
1.50
1.12
0.53
-0.07
-0.47
-0.59
-0.47
-0.22
0.01
0.13
0.10
-0.02
-0.19
-0.35
-0.46
-0.49
-0.40
-0.22
0.02
0.28
0.49
0.63
0.69
0.66
0.53
0.32
0.04
-0.25
-0.45
-0.46
-0.26
0.07
0.37
0.48
0.31
-0.06
-0.49
-0.80
-0.87
-0.72
-0.46
-0.24
-0.15
-0.19
-0.30
-0.36
-0.29
-0.08
0.21
0.48
0.64
0.67
0.60
0.50
0.42
0.37
0.33
0.29
0.25
0.23
0.23
0.24
0.20
0.07
-0.16
-0.43
-0.68
-0.82
-0.82
-0.73
-0.63
-0.57
-0.55
-0.50
-0.37
-0.15
0.13
0.39
0.55
0.58
0.49
0.36
0.25
0.22
0.27
0.35
0.41
0.38
0.27
0.14
0.05
0.03
0.08
0.11
0.07
-0.05
-0.19
-0.23
-0.11
0.14
0.41
0.54
0.46
0.21
-0.08
-0.26
-0.26
-0.11
0.08
0.17
0.12
-0.05
-0.26
-0.41
-0.47
-0.44
-0.37
-0.29
-0.18
-0.04
0.16
0.39
0.57
0.67
0.66
0.57
0.48
0.41
0.37
0.30
0.15
-0.09
-0.33
-0.47
-0.40
-0.13
0.24
0.56
0.67
0.57
0.32
0.06
-0.08
-0.06
0.04
0.13
0.13
0.07
-0.01
-0.06
-0.10
-0.20
-0.39
-0.64
-0.83
-0.83
-0.60
-0.19
0.21
0.42
0.37
0.16
-0.08
-0.18
-0.12
0.01
0.10
0.03
-0.17
-0.41
-0.55
-0.51
-0.29
-0.01
0.22
0.31
0.22
0.03
-0.17
-0.31
-0.35
-0.30
-0.18
0.03
0.32
0.64
0.92
1.05
0.94
0.61
0.12
-0.39
-0.81
-1.06
-1.10
-0.96
-0.68
-0.32
0.01
0.22
0.26
0.15
-0.02
-0.15
-0.16
-0.08
-0.00
0.02
-0.05
-0.16
-0.25
-0.29
-0.27
-0.22
-0.14
-0.04
0.10
0.28
0.45
0.53
0.47
0.29
0.06
-0.09
-0.09
0.09
0.39
0.71
0.97
1.11
1.08
0.88
0.56
0.20
-0.10
-0.26
-0.28
-0.24
-0.24
-0.36
-0.60
-0.87
-1.07
-1.12
-1.00
-0.77
-0.50
-0.24
-0.05
0.04
0.03
-0.07
-0.21
-0.33
-0.34
-0.21
0.01
0.26
0.44
0.48
0.39
0.21
0.05
0.01
0.11
0.31
0.50
0.58
0.48
0.21
-0.12
-0.43
-0.64
-0.72
-0.71
-0.66
-0.59
-0.51
-0.41
-0.28
-0.10
0.11
0.32
0.54
0.76
0.99
1.19
1.32
1.30
1.06
0.64
0.11
-0.38
-0.69
-0.77
-0.67
-0.44
-0.17
0.11
0.40
0.66
0.84
0.88
0.75
0.50
0.20
-0.08
-0.32
-0.55
-0.78
-0.99
-1.12
-1.12
-0.99
-0.77
-0.55
-0.38
-0.25
-0.15
-0.04
0.08
0.20
0.31
0.37
0.34
0.21
-0.03
-0.33
-0.61
-0.77
-0.80
-0.72
-0.64
-0.59
-0.57
-0.48
-0.23
0.23
0.82
1.40
1.83
1.99
1.91
1.63
1.28
0.95
0.70
0.56
0.47
0.36
0.16
-0.14
-0.48
-0.74
-0.82
-0.70
-0.44
-0.13
0.12
0.27
0.33
0.31
0.21
-0.02
-0.41
-0.88
-1.29
-1.49
-1.36
-0.93
-0.34
0.22
0.61
0.76
0.73
0.59
0.41
0.23
0.05
-0.08
-0.14
-0.08
0.07
0.23
0.29
0.18
-0.07
-0.37
-0.59
-0.66
-0.57
-0.36
-0.11
0.11
0.24
0.30
0.30
0.28
0.27
0.29
0.33
0.36
0.35
0.32
0.28
0.28
0.31
0.36
0.39
0.39
0.33
0.20
0.01
-0.20
-0.40
-0.52
-0.52
-0.40
-0.20
-0.02
0.11
0.15
0.14
0.09
0.02
-0.08
-0.23
-0.40
-0.57
-0.68
-0.70
-0.66
-0.62
-0.63
-0.70
-0.76
-0.75
-0.63
-0.42
-0.21
-0.07
-0.05
-0.09
-0.14
-0.13
-0.02
0.16
0.39
0.65
0.93
1.21
1.44
1.51
1.34
0.91
0.31
-0.27
-0.66
-0.76
-0.60
-0.32
-0.06
0.07
0.10
0.08
0.11
0.19
0.27
0.27
0.11
-0.21
-0.61
-0.99
-1.25
-1.33
-1.21
-0.96
-0.64
-0.33
-0.11
0.00
0.02
-0.01
-0.05
-0.06
-0.01
0.09
0.25
0.45
0.70
0.94
1.14
1.21
1.13
0.91
0.60
0.27
0.01
-0.16
-0.20
-0.12
0.07
0.31
0.54
0.68
0.69
0.57
0.39
0.22
0.08
-0.06
-0.28
-0.63
-1.07
-1.50
-1.77
-1.78
-1.51
-1.04
-0.51
-0.04
0.28
0.41
0.36
0.20
0.03
-0.07
-0.03
0.14
0.38
0.59
0.72
0.75
0.73
0.71
0.70
0.68
0.62
0.50
0.37
0.25
0.21
0.26
0.38
0.50
0.54
0.46
0.28
0.05
-0.13
-0.22
-0.21
-0.18
-0.20
-0.32
-0.49
-0.59
-0.52
-0.26
0.10
0.41
0.53
0.45
0.24
0.04
-0.06
-0.04
0.03
0.06
-0.01
-0.13
-0.23
-0.24
-0.12
0.06
0.24
0.31
0.22
-0.03
-0.37
-0.67
-0.85
-0.83
-0.62
-0.30
-0.00
0.18
0.20
0.08
-0.11
-0.28
-0.43
-0.55
-0.64
-0.70
-0.65
-0.46
-0.14
0.23
0.52
0.63
0.53
0.27
0.01
-0.12
-0.04
0.23
0.53
0.69
0.59
0.18
-0.41
-0.98
-1.34
-1.34
-0.97
-0.33
0.36
0.92
1.20
1.20
0.98
0.71
0.49
0.39
0.42
0.53
0.70
0.89
1.09
1.22
1.19
0.94
0.46
-0.13
-0.68
-1.04
-1.18
-1.13
-0.99
-0.82
-0.66
-0.47
-0.26
-0.06
0.09
0.11
0.02
-0.16
-0.37
-0.56
-0.71
-0.78
-0.77
-0.66
-0.46
-0.21
0.02
0.16
0.19
0.13
0.06
0.05
0.15
0.35
0.59
0.78
0.85
0.75
0.53
0.29
0.13
0.08
0.15
0.25
0.30
0.23
0.09
-0.07
-0.13
-0.07
0.10
0.30
0.45
0.49
0.41
0.25
0.06
-0.11
-0.26
-0.39
-0.51
-0.63
-0.72
-0.75
-0.72
-0.64
-0.55
-0.50
-0.46
-0.41
-0.28
-0.07
0.17
0.33
0.34
0.21
0.01
-0.14
-0.14
-0.03
0.11
0.15
0.03
-0.20
-0.41
-0.52
-0.49
-0.38
-0.32
-0.35
-0.46
-0.53
-0.46
-0.21
0.15
0.50
0.72
0.74
0.60
0.38
0.18
0.05
-0.02
-0.04
-0.05
-0.04
0.00
0.10
0.22
0.34
0.39
0.35
0.25
0.12
0.05
0.06
0.16
0.31
0.44
0.50
0.45
0.30
0.12
-0.05
-0.17
-0.20
-0.16
-0.07
0.05
0.17
0.26
0.34
0.40
0.45
0.47
0.46
0.42
0.33
0.19
0.04
-0.10
-0.22
-0.32
-0.43
-0.58
-0.74
-0.89
-0.98
-0.96
-0.81
-0.55
-0.21
0.14
0.44
0.64
0.70
0.62
0.42
0.16
-0.07
-0.24
-0.33
-0.36
-0.39
-0.47
-0.58
-0.64
-0.56
-0.26
0.21
0.72
1.12
1.27
1.15
0.80
0.33
-0.15
-0.57
-0.88
-1.04
-1.01
-0.79
-0.38
0.14
0.70
1.16
1.45
1.51
1.34
0.98
0.51
0.04
-0.31
-0.46
-0.38
-0.15
0.13
0.33
0.38
0.29
0.12
-0.03
-0.11
-0.12
-0.12
-0.16
-0.27
-0.44
-0.59
-0.69
-0.72
-0.70
-0.68
-0.68
-0.73
-0.78
-0.80
-0.73
-0.54
-0.23
0.18
0.61
0.97
1.17
1.15
0.93
0.58
0.23
-0.01
-0.08
-0.01
0.13
0.26
0.33
0.33
0.27
0.17
0.05
-0.07
-0.20
-0.34
-0.47
-0.57
-0.62
-0.59
-0.52
-0.45
-0.40
-0.42
-0.48
-0.56
-0.62
-0.64
-0.63
-0.62
-0.62
-0.62
-0.59
-0.48
-0.32
-0.12
0.04
0.13
0.15
0.17
0.23
0.36
0.57
0.79
0.96
1.04
1.01
0.86
0.62
0.35
0.10
-0.07
-0.10
0.03
0.27
0.56
0.79
0.89
0.80
0.52
0.11
-0.37
-0.78
-1.02
-1.03
-0.82
-0.49
-0.15
0.08
0.15
0.06
-0.15
-0.38
-0.57
-0.65
-0.62
-0.51
-0.36
-0.22
-0.08
0.06
0.23
0.41
0.53
0.57
0.51
0.42
0.39
0.50
0.74
1.00
1.14
1.10
0.90
0.64
0.42
0.28
0.19
0.07
-0.11
-0.33
-0.48
-0.50
-0.35
-0.13
0.04
0.09
-0.00
-0.16
-0.25
-0.19
-0.01
0.23
0.44
0.57
0.62
0.63
0.61
0.51
0.27
-0.13
-0.61
-1.03
-1.25
-1.23
-1.02
-0.79
-0.65
-0.62
-0.62
-0.56
-0.41
-0.24
-0.13
-0.15
-0.28
-0.44
-0.54
-0.54
-0.45
-0.33
-0.22
-0.12
-0.02
0.11
0.28
0.49
0.69
0.87
0.97
0.97
0.85
0.64
0.40
0.21
0.12
0.13
0.18
0.22
0.18
0.06
-0.10
-0.19
-0.15
0.05
0.33
0.59
0.70
0.60
0.32
-0.04
-0.32
-0.47
-0.48
-0.43
-0.43
-0.51
-0.62
-0.66
-0.58
-0.40
-0.22
-0.17
-0.30
-0.54
-0.76
-0.80
-0.60
-0.20
0.24
0.59
0.72
0.64
0.39
0.06
-0.23
-0.42
-0.43
-0.22
0.21
0.78
1.37
1.80
1.94
1.69
1.12
0.38
-0.32
-0.76
-0.88
-0.72
-0.43
-0.16
-0.00
0.03
-0.02
-0.11
-0.21
-0.29
-0.29
-0.20
-0.01
0.22
0.39
0.41
0.29
0.11
0.00
0.03
0.14
0.25
0.24
0.09
-0.15
-0.37
-0.45
-0.40
-0.24
-0.07
0.05
0.05
-0.06
-0.28
-0.53
-0.72
-0.74
-0.54
-0.15
0.31
0.69
0.87
0.82
0.61
0.35
0.14
0.03
-0.00
-0.02
-0.05
-0.14
-0.26
-0.39
-0.47
-0.47
-0.37
-0.22
-0.06
0.04
0.04
-0.06
-0.21
-0.39
-0.54
-0.66
-0.72
-0.71
-0.61
-0.43
-0.23
-0.07
-0.01
-0.07
-0.19
-0.25
-0.18
0.04
0.31
0.51
0.55
0.42
0.23
0.14
0.24
0.53
0.88
1.14
1.18
1.01
0.72
0.45
0.27
0.15
-0.00
-0.25
-0.60
-0.96
-1.21
-1.26
-1.09
-0.76
-0.38
-0.04
0.20
0.35
0.43
0.47
0.49
0.52
0.55
0.54
0.43
0.18
-0.18
-0.57
-0.82
-0.82
-0.56
-0.16
0.19
0.34
0.26
0.03
-0.19
-0.31
-0.28
-0.15
0.01
0.17
0.30
0.40
0.46
0.46
0.38
0.23
0.07
-0.01
0.02
0.18
0.43
0.68
0.87
0.92
0.84
0.68
0.49
0.36
0.29
0.27
0.23
0.15
0.02
-0.12
-0.25
-0.35
-0.39
-0.34
-0.21
-0.02
0.15
0.20
0.07
-0.25
-0.65
-0.98
-1.12
-1.04
-0.80
-0.51
-0.29
-0.16
-0.07
0.02
0.11
0.16
0.14
0.06
-0.01
0.02
0.20
0.51
0.83
1.04
1.04
0.84
0.53
0.19
-0.10
-0.32
-0.44
-0.47
-0.42
-0.30
-0.17
-0.08
-0.10
-0.25
-0.50
-0.77
-0.97
-1.07
-1.02
-0.84
-0.59
-0.33
-0.16
-0.13
-0.27
-0.46
-0.58
-0.48
-0.13
0.36
0.82
1.06
1.00
0.69
0.27
-0.09
-0.30
-0.36
-0.28
-0.11
0.12
0.37
0.59
0.70
0.66
0.51
0.31
0.16
0.11
0.13
0.13
0.09
-0.00
-0.11
-0.16
-0.13
-0.07
-0.02
0.01
0.03
0.11
0.26
0.43
0.55
0.52
0.33
0.05
-0.22
-0.37
-0.38
-0.31
-0.23
-0.17
-0.11
-0.02
0.10
0.18
0.12
-0.11
-0.42
-0.68
-0.71
-0.48
-0.13
0.17
0.27
0.17
0.01
-0.06
0.05
0.32
0.62
0.86
0.98
0.98
0.86
0.65
0.35
0.01
-0.26
-0.38
-0.30
-0.09
0.12
0.19
0.08
-0.16
-0.41
-0.57
-0.63
-0.61
-0.60
-0.63
-0.70
-0.74
-0.69
-0.50
-0.19
0.15
0.42
0.52
0.45
0.26
0.07
-0.02
0.02
0.15
0.27
0.30
0.20
-0.00
-0.25
-0.47
-0.63
-0.70
-0.66
-0.55
-0.38
-0.22
-0.09
-0.02
0.06
0.19
0.39
0.59
0.65
0.49
0.11
-0.36
-0.69
-0.73
-0.44
0.03
0.46
0.65
0.54
0.21
-0.18
-0.47
-0.56
-0.47
-0.24
0.04
0.32
0.54
0.66
0.63
0.41
0.04
-0.36
-0.65
-0.68
-0.45
-0.04
0.38
0.64
0.67
0.55
0.37
0.25
0.22
0.26
0.29
0.27
0.20
0.10
0.02
-0.04
-0.08
-0.11
-0.10
-0.03
0.11
0.30
0.49
0.62
0.63
0.53
0.34
0.10
-0.15
-0.38
-0.56
-0.64
-0.58
-0.34
0.04
0.46
0.80
0.94
0.85
0.55
0.15
-0.24
-0.54
-0.68
-0.64
-0.44
-0.11
0.24
0.50
0.59
0.49
0.27
0.04
-0.09
-0.09
-0.01
0.04
-0.06
-0.34
-0.73
-1.10
-1.29
-1.22
-0.92
-0.51
-0.15
0.04
0.04
-0.10
-0.23
-0.27
-0.18
-0.00
0.17
0.26
0.25
0.18
0.11
0.09
0.10
0.10
0.05
-0.08
-0.25
-0.39
-0.43
-0.36
-0.20
-0.02
0.10
0.16
0.15
0.14
0.16
0.24
0.34
0.45
0.52
0.56
0.56
0.54
0.49
0.44
0.39
0.32
0.24
0.14
0.01
-0.12
-0.22
-0.23
-0.13
0.05
0.23
0.30
0.23
0.03
-0.20
-0.35
-0.34
-0.20
-0.02
0.09
0.07
-0.09
-0.33
-0.56
-0.73
-0.80
-0.76
-0.59
-0.31
0.06
0.42
0.66
0.73
0.63
0.47
0.35
0.35
0.44
0.51
0.48
0.34
0.17
0.10
0.22
0.47
0.66
0.58
0.13
-0.58
-1.28
-1.64
-1.47
-0.81
0.08
0.83
1.20
1.11
0.68
0.11
-0.39
-0.75
-0.95
-1.05
-1.09
-1.07
-0.99
-0.83
-0.60
-0.34
-0.13
-0.03
-0.09
-0.27
-0.49
-0.63
-0.59
-0.39
-0.09
0.16
0.26
0.22
0.10
0.02
0.02
0.10
0.17
0.22
0.27
0.38
0.60
0.89
1.12
1.17
0.98
0.62
0.22
-0.08
-0.20
-0.19
-0.13
-0.08
-0.06
0.03
0.25
0.62
1.06
1.41
1.51
1.31
0.86
0.30
-0.19
-0.51
-0.64
-0.64
-0.63
-0.69
-0.83
-0.98
-1.05
-0.98
-0.76
-0.47
-0.22
-0.11
-0.14
-0.23
-0.25
-0.12
0.14
0.44
0.64
0.66
0.55
0.42
0.34
0.34
0.32
0.22
0.02
-0.17
-0.23
-0.08
0.20
0.46
0.56
0.45
0.20
-0.02
-0.14
-0.13
-0.07
-0.05
-0.07
-0.11
-0.11
-0.07
-0.04
-0.10
-0.28
-0.53
-0.76
-0.84
-0.72
-0.44
-0.07
0.28
0.53
0.69
0.78
0.85
0.89
0.88
0.78
0.58
0.31
0.03
-0.19
-0.32
-0.36
-0.38
-0.41
-0.49
-0.60
-0.68
-0.70
-0.65
-0.56
-0.48
-0.44
-0.45
-0.49
-0.53
-0.54
-0.50
-0.42
-0.28
-0.11
0.05
0.15
0.16
0.09
0.00
-0.00
0.14
0.40
0.68
0.85
0.83
0.63
0.38
0.19
0.16
0.30
0.55
0.80
0.95
0.95
0.79
0.50
0.17
-0.13
-0.33
-0.40
-0.38
-0.32
-0.27
-0.24
-0.21
-0.13
-0.01
0.10
0.12
0.05
-0.09
-0.18
-0.14
0.05
0.33
0.57
0.65
0.57
0.39
0.21
0.09
0.01
-0.07
-0.22
-0.44
-0.68
-0.91
-1.10
-1.25
-1.32
-1.23
-0.91
-0.36
0.30
0.85
1.11
0.99
0.59
0.14
-0.13
-0.13
0.08
0.32
0.44
0.38
0.18
-0.04
-0.19
-0.24
-0.21
-0.17
-0.15
-0.14
-0.11
-0.03
0.11
0.25
0.33
0.29
0.13
-0.10
-0.26
-0.29
-0.15
0.08
0.26
0.30
0.18
-0.01
-0.18
-0.28
-0.31
-0.33
-0.36
-0.39
-0.39
-0.32
-0.18
-0.04
0.01
-0.06
-0.21
-0.37
-0.47
-0.46
-0.36
-0.23
-0.11
-0.00
0.09
0.19
0.33
0.48
0.63
0.76
0.82
0.83
0.78
0.69
0.60
0.50
0.41
0.33
0.25
0.17
0.10
0.04
-0.02
-0.07
-0.12
-0.17
-0.22
-0.28
-0.34
-0.41
-0.45
-0.46
-0.43
-0.40
-0.36
-0.35
-0.37
-0.40
-0.42
-0.41
-0.35
-0.23
-0.09
0.02
0.04
-0.05
-0.25
-0.48
-0.68
-0.75
-0.67
-0.48
-0.26
-0.08
0.01
0.06
0.11
0.22
0.35
0.45
0.43
0.26
0.00
-0.19
-0.19
0.03
0.36
0.61
0.60
0.29
-0.19
-0.63
-0.81
-0.66
-0.27
0.16
0.47
0.58
0.57
0.56
0.67
0.89
1.15
1.29
1.23
0.99
0.68
0.42
0.28
0.23
0.21
0.12
-0.02
-0.14
-0.16
-0.04
0.14
0.25
0.20
-0.02
-0.32
-0.56
-0.66
-0.61
-0.48
-0.35
-0.26
-0.19
-0.10
0.01
0.12
0.17
0.13
-0.01
-0.20
-0.37
-0.48
-0.49
-0.39
-0.18
0.07
0.30
0.44
0.42
0.27
0.05
-0.19
-0.36
-0.46
-0.50
-0.47
-0.40
-0.27
-0.09
0.12
0.30
0.40
0.38
0.25
0.07
-0.10
-0.18
-0.15
0.00
0.26
0.56
0.81
0.93
0.81
0.42
-0.18
-0.85
-1.38
-1.64
-1.56
-1.23
-0.82
-0.50
-0.35
-0.36
-0.44
-0.48
-0.41
-0.24
0.04
0.36
0.68
0.91
0.98
0.84
0.52
0.17
-0.04
0.04
0.44
1.01
1.52
1.76
1.63
1.18
0.56
-0.04
-0.50
-0.77
-0.84
-0.77
-0.60
-0.40
-0.26
-0.19
-0.20
-0.21
-0.15
0.01
0.25
0.45
0.56
0.55
0.47
0.39
0.34
0.30
0.22
0.08
-0.09
-0.19
-0.14
0.05
0.30
0.48
0.45
0.18
-0.25
-0.70
-1.02
-1.14
-1.05
-0.84
-0.61
-0.45
-0.38
-0.39
-0.43
-0.46
-0.45
-0.42
-0.36
-0.26
-0.11
0.10
0.35
0.57
0.69
0.67
0.49
0.23
-0.05
-0.29
-0.45
-0.50
-0.41
-0.17
0.18
0.55
0.81
0.83
0.54
0.03
-0.52
-0.90
-0.97
-0.69
-0.16
0.45
0.94
1.18
1.13
0.83
0.38
-0.10
-0.48
-0.69
-0.72
-0.61
-0.44
-0.25
-0.09
0.05
0.19
0.35
0.50
0.61
0.65
0.62
0.54
0.47
0.44
0.47
0.53
0.58
0.60
0.59
0.59
0.61
0.63
0.59
0.43
0.13
-0.27
-0.66
-0.94
-1.02
-0.90
-0.66
-0.38
-0.17
-0.07
-0.05
-0.08
-0.15
-0.25
-0.39
-0.55
-0.69
-0.76
-0.72
-0.61
-0.48
-0.36
-0.28
-0.25
-0.26
-0.33
-0.46
-0.62
-0.76
-0.79
-0.65
-0.36
-0.00
0.32
0.53
0.64
0.67
0.67
0.65
0.62
0.55
0.45
0.35
0.29
0.30
0.33
0.38
0.39
0.38
0.36
0.38
0.44
0.53
0.60
0.59
0.44
0.16
-0.21
-0.57
-0.83
-0.92
-0.84
-0.63
-0.36
-0.09
0.13
0.33
0.52
0.75
0.99
1.17
1.19
1.01
0.65
0.21
-0.21
-0.48
-0.60
-0.60
-0.54
-0.50
-0.51
-0.53
-0.57
-0.58
-0.57
-0.53
-0.45
-0.31
-0.11
0.13
0.38
0.57
0.64
0.59
0.43
0.23
0.08
-0.00
-0.04
-0.12
-0.27
-0.48
-0.66
-0.72
-0.61
-0.39
-0.21
-0.22
-0.45
-0.81
-1.14
-1.26
-1.13
-0.79
-0.38
-0.03
0.19
0.27
0.26
0.22
0.19
0.17
0.17
0.18
0.23
0.34
0.52
0.73
0.87
0.85
0.64
0.28
-0.09
-0.31
-0.31
-0.10
0.19
0.43
0.53
0.51
0.41
0.28
0.14
-0.02
-0.21
-0.38
-0.49
-0.48
-0.34
-0.11
0.14
0.35
0.46
0.48
0.41
0.31
0.21
0.16
0.17
0.18
0.14
0.03
-0.16
-0.34
-0.46
-0.51
-0.50
-0.47
-0.46
-0.43
-0.36
-0.21
-0.04
0.08
0.08
-0.02
-0.14
-0.19
-0.13
0.03
0.18
0.25
0.22
0.18
0.23
0.41
0.74
1.11
1.39
1.45
1.22
0.71
0.02
-0.67
-1.15
-1.28
-1.00
-0.42
0.25
0.79
1.03
0.94
0.60
0.17
-0.23
-0.50
-0.64
-0.63
-0.53
-0.38
-0.23
-0.13
-0.09
-0.11
-0.12
-0.10
-0.02
0.11
0.27
0.37
0.37
0.25
0.01
-0.27
-0.53
-0.69
-0.74
-0.68
-0.57
-0.43
-0.28
-0.10
0.13
0.41
0.68
0.86
0.90
0.79
0.54
0.25
-0.04
-0.26
-0.37
-0.35
-0.19
0.09
0.41
0.66
0.72
0.57
0.24
-0.14
-0.42
-0.52
-0.49
-0.38
-0.30
-0.28
-0.29
-0.26
-0.15
0.03
0.22
0.36
0.39
0.34
0.25
0.16
0.08
0.03
-0.01
-0.08
-0.20
-0.36
-0.52
-0.65
-0.69
-0.63
-0.51
-0.38
-0.29
-0.28
-0.30
-0.28
-0.17
0.05
0.28
0.44
0.44
0.30
0.08
-0.10
-0.17
-0.13
-0.03
0.10
0.20
0.30
0.39
0.47
0.52
0.51
0.46
0.37
0.25
0.12
-0.02
-0.17
-0.32
-0.43
-0.48
-0.48
-0.47
-0.48
-0.53
-0.59
-0.61
-0.51
-0.28
0.06
0.46
0.82
1.06
1.12
0.99
0.69
0.32
-0.00
-0.19
-0.22
-0.14
-0.04
0.02
0.01
-0.05
-0.11
-0.16
-0.22
-0.31
-0.44
-0.58
-0.66
-0.64
-0.54
-0.41
-0.33
-0.35
-0.45
-0.54
-0.54
-0.42
-0.23
-0.01
0.23
0.49
0.78
1.09
1.32
1.34
1.07
0.57
0.00
-0.43
-0.57
-0.39
0.00
0.43
0.71
0.76
0.58
0.25
-0.10
-0.33
-0.36
-0.17
0.13
0.40
0.49
0.36
0.09
-0.19
-0.34
-0.33
-0.17
0.04
0.23
0.36
0.42
0.41
0.31
0.10
-0.21
-0.55
-0.82
-0.90
-0.77
-0.47
-0.14
0.10
0.16
0.03
-0.20
-0.45
-0.64
-0.75
-0.78
-0.74
-0.64
-0.46
-0.22
0.06
0.32
0.52
0.65
0.73
0.78
0.83
0.87
0.92
0.98
1.03
1.04
0.97
0.73
0.31
-0.22
-0.74
-1.09
-1.18
-1.02
-0.72
-0.44
-0.29
-0.31
-0.47
-0.68
-0.83
-0.85
-0.68
-0.34
0.09
0.47
0.67
0.65
0.46
0.22
0.08
0.09
0.20
0.33
0.40
0.40
0.37
0.38
0.43
0.47
0.43
0.27
-0.02
-0.38
-0.72
-0.93
-0.94
-0.72
-0.28
0.27
0.79
1.12
1.19
1.01
0.68
0.34
0.08
-0.09
-0.20
-0.34
-0.50
-0.62
-0.63
-0.49
-0.25
0.02
0.22
0.31
0.32
0.31
0.32
0.35
0.36
0.30
0.19
0.04
-0.09
-0.17
-0.21
-0.23
-0.25
-0.26
-0.26
-0.25
-0.22
-0.21
-0.21
-0.22
-0.22
-0.21
-0.18
-0.17
-0.22
-0.30
-0.40
-0.47
-0.52
-0.56
-0.63
-0.75
-0.84
-0.85
-0.74
-0.54
-0.37
-0.36
-0.57
-0.91
-1.24
-1.35
-1.14
-0.63
0.03
0.67
1.16
1.44
1.53
1.48
1.34
1.12
0.87
0.62
0.46
0.48
0.67
0.96
1.22
1.29
1.11
0.73
0.28
-0.08
-0.24
-0.19
0.02
0.25
0.42
0.48
0.42
0.28
0.09
-0.12
-0.33
-0.51
-0.64
-0.67
-0.60
-0.46
-0.30
-0.15
-0.05
0.05
0.16
0.32
0.49
0.63
0.67
0.61
0.42
0.14
-0.21
-0.60
-0.95
-1.13
-1.05
-0.65
-0.04
0.60
1.03
1.06
0.70
0.08
-0.56
-1.00
-1.15
-1.01
-0.69
-0.29
0.09
0.39
0.56
0.54
0.32
-0.03
-0.41
-0.66
-0.66
-0.37
0.12
0.63
0.99
1.06
0.83
0.41
-0.04
-0.34
-0.41
-0.26
0.02
0.25
0.31
0.14
-0.19
-0.56
-0.80
-0.80
-0.56
-0.17
0.21
0.49
0.61
0.60
0.52
0.39
0.23
0.03
-0.18
-0.36
-0.42
-0.35
-0.16
0.04
0.15
0.08
-0.14
-0.43
-0.70
-0.85
-0.84
-0.65
-0.33
0.06
0.43
0.63
0.59
0.32
-0.08
-0.42
-0.52
-0.31
0.12
0.59
0.85
0.80
0.43
-0.10
-0.57
-0.83
-0.81
-0.56
-0.18
0.18
0.42
0.51
0.43
0.23
-0.04
-0.27
-0.39
-0.34
-0.16
0.09
0.30
0.39
0.37
0.28
0.20
0.21
0.30
0.41
0.47
0.42
0.24
0.01
-0.15
-0.18
-0.06
0.15
0.34
0.43
0.43
0.39
0.37
0.41
0.45
0.40
0.22
-0.07
-0.38
-0.57
-0.55
-0.32
0.04
0.43
0.72
0.83
0.75
0.49
0.12
-0.28
-0.66
-0.98
-1.23
-1.40
-1.48
-1.47
-1.37
-1.20
-1.04
-0.89
-0.77
-0.65
-0.46
-0.19
0.14
0.48
0.75
0.90
0.93
0.85
0.68
0.47
0.22
-0.03
-0.24
-0.34
-0.30
-0.13
0.11
0.32
0.43
0.37
0.18
-0.07
-0.24
-0.20
0.07
0.51
0.96
1.22
1.18
0.87
0.44
0.12
0.04
0.18
0.40
0.46
0.26
-0.14
-0.53
-0.71
-0.57
-0.21
0.17
0.34
0.20
-0.17
-0.57
-0.80
-0.72
-0.34
0.20
0.71
1.02
1.04
0.82
0.47
0.14
-0.06
-0.11
-0.07
-0.04
-0.10
-0.25
-0.45
-0.62
-0.70
-0.67
-0.57
-0.41
-0.23
-0.04
0.14
0.26
0.27
0.15
-0.08
-0.34
-0.52
-0.57
-0.51
-0.40
-0.35
-0.38
-0.45
-0.48
-0.41
-0.23
0.00
0.21
0.31
0.30
0.20
0.06
-0.08
-0.21
-0.31
-0.36
-0.29
-0.08
0.25
0.64
0.95
1.08
1.01
0.80
0.60
0.50
0.50
0.53
0.46
0.25
-0.02
-0.22
-0.24
-0.09
0.10
0.20
0.08
-0.20
-0.51
-0.68
-0.64
-0.39
-0.05
0.22
0.34
0.28
0.09
-0.15
-0.34
-0.42
-0.38
-0.22
-0.01
0.20
0.34
0.36
0.26
0.04
-0.23
-0.48
-0.66
-0.75
-0.78
-0.78
-0.75
-0.68
-0.50
-0.18
0.22
0.61
0.86
0.87
0.67
0.33
0.03
-0.11
-0.05
0.14
0.35
0.43
0.37
0.18
-0.06
-0.27
-0.45
-0.61
-0.77
-0.88
-0.84
-0.59
-0.15
0.37
0.77
0.94
0.85
0.62
0.42
0.38
0.55
0.81
1.03
1.07
0.87
0.48
0.02
-0.35
-0.52
-0.45
-0.20
0.11
0.38
0.50
0.44
0.25
-0.05
-0.38
-0.70
-0.96
-1.10
-1.06
-0.84
-0.49
-0.10
0.19
0.28
0.15
-0.13
-0.44
-0.67
-0.72
-0.60
-0.37
-0.13
0.05
0.17
0.26
0.35
0.46
0.56
0.60
0.57
0.46
0.34
0.26
0.25
0.31
0.40
0.43
0.35
0.12
-0.21
-0.55
-0.78
-0.82
-0.68
-0.41
-0.16
-0.01
0.03
0.02
0.08
0.23
0.46
0.66
0.72
0.59
0.32
-0.00
-0.26
-0.41
-0.44
-0.39
-0.31
-0.24
-0.18
-0.15
-0.19
-0.30
-0.50
-0.75
-0.96
-1.03
-0.90
-0.58
-0.14
0.29
0.58
0.65
0.52
0.27
0.06
-0.01
0.11
0.34
0.58
0.72
0.68
0.50
0.25
0.04
-0.10
-0.16
-0.21
-0.26
-0.28
-0.18
0.10
0.57
1.08
1.45
1.53
1.27
0.79
0.31
-0.00
-0.06
0.05
0.19
0.24
0.17
0.04
-0.06
-0.07
-0.01
0.05
0.05
-0.05
-0.23
-0.44
-0.65
-0.85
-1.03
-1.21
-1.34
-1.40
-1.34
-1.18
-0.93
-0.63
-0.32
0.00
0.33
0.65
0.94
1.18
1.30
1.28
1.11
0.81
0.47
0.15
-0.10
-0.27
-0.41
-0.56
-0.72
-0.83
-0.79
-0.57
-0.20
0.14
0.31
0.23
-0.04
-0.31
-0.40
-0.24
0.09
0.40
0.55
0.48
0.29
0.14
0.11
0.20
0.33
0.38
0.30
0.11
-0.11
-0.28
-0.34
-0.30
-0.20
-0.11
-0.10
-0.18
-0.31
-0.41
-0.43
-0.33
-0.17
-0.03
0.00
-0.06
-0.16
-0.19
-0.11
0.03
0.10
-0.00
-0.26
-0.54
-0.66
-0.51
-0.08
0.44
0.86
1.01
0.86
0.55
0.23
0.01
-0.10
-0.16
-0.24
-0.33
-0.33
-0.17
0.19
0.64
1.00
1.12
0.93
0.52
0.08
-0.23
-0.32
-0.21
-0.00
0.19
0.31
0.38
0.40
0.41
0.40
0.33
0.16
-0.10
-0.41
-0.71
-0.93
-1.00
-0.91
-0.71
-0.45
-0.23
-0.11
-0.09
-0.13
-0.14
-0.05
0.15
0.41
0.62
0.72
0.65
0.46
0.24
0.11
0.11
0.21
0.32
0.34
0.23
0.04
-0.11
-0.11
0.07
0.34
0.57
0.60
0.39
0.01
-0.38
-0.61
-0.60
-0.39
-0.09
0.15
0.23
0.13
-0.09
-0.35
-0.56
-0.69
-0.74
-0.72
-0.64
-0.53
-0.38
-0.22
-0.10
-0.07
-0.16
-0.36
-0.61
-0.81
-0.90
-0.86
-0.70
-0.45
-0.16
0.14
0.42
0.68
0.92
1.11
1.24
1.27
1.17
0.93
0.60
0.23
-0.11
-0.32
-0.38
-0.30
-0.13
0.05
0.18
0.25
0.27
0.26
0.25
0.25
0.25
0.24
0.22
0.22
0.27
0.36
0.47
0.56
0.58
0.49
0.32
0.10
-0.13
-0.32
-0.47
-0.60
-0.70
-0.79
-0.85
-0.84
-0.73
-0.49
-0.18
0.15
0.38
0.41
0.17
-0.31
-0.90
-1.42
-1.71
-1.65
-1.24
-0.58
0.13
0.68
0.94
0.91
0.68
0.42
0.29
0.34
0.53
0.73
0.83
0.75
0.51
0.22
-0.02
-0.16
-0.22
-0.26
-0.34
-0.48
-0.59
-0.60
-0.42
-0.08
0.34
0.70
0.89
0.88
0.69
0.43
0.18
0.01
-0.08
-0.10
-0.10
-0.08
-0.08
-0.11
-0.20
-0.33
-0.48
-0.58
-0.57
-0.40
-0.14
0.12
0.25
0.21
0.03
-0.19
-0.34
-0.35
-0.26
-0.16
-0.13
-0.18
-0.26
-0.28
-0.20
-0.03
0.15
0.25
0.24
0.17
0.12
0.16
0.30
0.46
0.55
0.52
0.39
0.25
0.17
0.20
0.28
0.30
0.17
-0.11
-0.48
-0.78
-0.91
-0.81
-0.53
-0.17
0.17
0.41
0.54
0.59
0.60
0.61
0.59
0.51
0.32
0.03
-0.30
-0.57
-0.67
-0.56
-0.30
-0.00
0.22
0.27
0.18
0.01
-0.15
-0.26
-0.31
-0.33
-0.37
-0.42
-0.48
-0.52
-0.52
-0.45
-0.33
-0.19
-0.07
-0.01
0.01
0.03
0.13
0.31
0.57
0.83
1.04
1.15
1.18
1.16
1.13
1.09
0.99
0.83
0.60
0.36
0.15
-0.02
-0.16
-0.33
-0.55
-0.78
-0.92
-0.89
-0.63
-0.22
0.20
0.49
0.51
0.29
-0.09
-0.46
-0.71
-0.76
-0.63
-0.38
-0.12
0.06
0.12
0.03
-0.16
-0.37
-0.50
-0.50
-0.40
-0.27
-0.20
-0.25
-0.40
-0.56
-0.61
-0.49
-0.19
0.19
0.53
0.75
0.78
0.67
0.47
0.28
0.14
0.11
0.21
0.42
0.69
0.90
0.97
0.81
0.45
0.00
-0.37
-0.57
-0.56
-0.44
-0.33
-0.34
-0.48
-0.68
-0.85
-0.93
-0.92
-0.83
-0.66
-0.43
-0.14
0.17
0.45
0.60
0.58
0.37
0.02
-0.35
-0.62
-0.67
-0.48
-0.08
0.41
0.84
1.11
1.16
1.02
0.76
0.44
0.13
-0.13
-0.31
-0.40
-0.39
-0.30
-0.14
0.06
0.24
0.35
0.36
0.28
0.16
0.09
0.12
0.24
0.39
0.46
0.38
0.17
-0.10
-0.30
-0.35
-0.23
-0.02
0.15
0.19
0.07
-0.14
-0.33
-0.39
-0.27
-0.02
0.25
0.41
0.39
0.18
-0.15
-0.51
-0.80
-0.95
-0.93
-0.75
-0.47
-0.16
0.12
0.33
0.45
0.48
0.43
0.27
0.03
-0.23
-0.41
-0.43
-0.28
-0.03
0.22
0.35
0.34
0.20
-0.02
-0.26
-0.46
-0.59
-0.60
-0.45
-0.18
0.13
0.37
0.48
0.43
0.31
0.21
0.19
0.25
0.36
0.47
0.53
0.55
0.52
0.43
0.29
0.12
-0.04
-0.17
-0.26
-0.30
-0.30
-0.26
-0.17
-0.04
0.15
0.37
0.58
0.72
0.75
0.62
0.34
-0.05
-0.42
-0.64
-0.58
-0.22
0.32
0.84
1.13
1.12
0.86
0.49
0.16
-0.06
-0.18
-0.25
-0.31
-0.37
-0.40
-0.40
-0.43
-0.56
-0.85
-1.23
-1.57
-1.70
-1.51
-1.02
-0.39
0.18
0.52
0.56
0.37
0.09
-0.12
-0.19
-0.12
0.01
0.09
0.06
-0.08
-0.27
-0.41
-0.43
-0.31
-0.11
0.12
0.32
0.46
0.53
0.57
0.59
0.60
0.62
0.66
0.68
0.65
0.52
0.27
-0.06
-0.39
-0.62
-0.69
-0.58
-0.37
-0.12
0.08
0.18
0.17
0.06
-0.11
-0.30
-0.46
-0.56
-0.60
-0.56
-0.49
-0.40
-0.32
-0.24
-0.16
-0.09
-0.02
0.07
0.15
0.20
0.22
0.20
0.18
0.22
0.33
0.50
0.66
0.71
0.62
0.41
0.16
-0.02
-0.07
0.01
0.16
0.33
0.48
0.58
0.63
0.57
0.38
0.05
-0.35
-0.69
-0.86
-0.78
-0.49
-0.12
0.19
0.33
0.27
0.07
-0.20
-0.45
-0.64
-0.71
-0.62
-0.37
-0.01
0.35
0.55
0.49
0.19
-0.18
-0.41
-0.34
0.01
0.45
0.76
0.77
0.50
0.09
-0.28
-0.49
-0.53
-0.47
-0.36
-0.24
-0.11
0.05
0.22
0.38
0.49
0.54
0.53
0.44
0.28
0.05
-0.19
-0.35
-0.37
-0.21
0.07
0.38
0.65
0.83
0.93
0.97
0.96
0.87
0.69
0.43
0.15
-0.08
-0.19
-0.19
-0.14
-0.12
-0.16
-0.28
-0.44
-0.62
-0.78
-0.93
-1.05
-1.10
-1.05
-0.90
-0.68
-0.46
-0.33
-0.33
-0.46
-0.65
-0.82
-0.88
-0.81
-0.59
-0.27
0.06
0.33
0.47
0.48
0.43
0.42
0.50
0.67
0.82
0.85
0.71
0.43
0.13
-0.08
-0.18
-0.21
-0.29
-0.48
-0.72
-0.90
-0.87
-0.60
-0.16
0.27
0.55
0.63
0.56
0.49
0.50
0.62
0.77
0.81
0.68
0.37
0.01
-0.26
-0.33
-0.21
0.03
0.26
0.38
0.39
0.30
0.18
0.06
-0.02
-0.06
-0.07
-0.08
-0.11
-0.16
-0.24
-0.33
-0.39
-0.36
-0.23
-0.05
0.11
0.19
0.15
0.02
-0.16
-0.33
-0.48
-0.59
-0.63
-0.54
-0.31
0.04
0.42
0.73
0.86
0.81
0.63
0.43
0.28
0.19
0.11
0.04
-0.03
-0.04
0.04
0.18
0.27
0.23
0.03
-0.26
-0.51
-0.62
-0.57
-0.43
-0.29
-0.20
-0.17
-0.18
-0.18
-0.17
-0.16
-0.15
-0.11
-0.02
0.15
0.35
0.52
0.59
0.53
0.35
0.16
0.05
0.10
0.28
0.50
0.62
0.55
0.32
0.02
-0.23
-0.35
-0.38
-0.41
-0.51
-0.69
-0.85
-0.90
-0.79
-0.53
-0.23
0.02
0.17
0.24
0.31
0.41
0.56
0.71
0.75
0.62
0.32
-0.07
-0.42
-0.58
-0.50
-0.22
0.11
0.33
0.39
0.35
0.31
0.34
0.41
0.44
0.33
0.09
-0.18
-0.38
-0.43
-0.36
-0.25
-0.18
-0.16
-0.15
-0.10
-0.00
0.09
0.14
0.08
-0.08
-0.33
-0.66
-0.99
-1.24
-1.31
-1.12
-0.66
-0.05
0.55
1.01
1.24
1.26
1.15
0.99
0.82
0.69
0.58
0.49
0.41
0.30
0.14
-0.07
-0.31
-0.54
-0.71
-0.81
-0.84
-0.84
-0.81
-0.72
-0.53
-0.28
-0.02
0.12
0.08
-0.13
-0.43
-0.65
-0.70
-0.57
-0.36
-0.19
-0.15
-0.20
-0.27
-0.23
-0.07
0.14
0.29
0.29
0.14
-0.07
-0.20
-0.19
-0.04
0.14
0.23
0.20
0.09
0.02
0.06
0.24
0.49
0.71
0.81
0.77
0.64
0.49
0.38
0.32
0.27
0.22
0.19
0.22
0.38
0.67
1.00
1.24
1.26
1.04
0.68
0.33
0.11
0.05
0.06
0.03
-0.10
-0.27
-0.38
-0.36
-0.23
-0.13
-0.17
-0.39
-0.70
-0.91
-0.91
-0.70
-0.41
-0.22
-0.23
-0.42
-0.64
-0.76
-0.72
-0.55
-0.34
-0.18
-0.14
-0.19
-0.28
-0.34
-0.28
-0.09
0.22
0.54
0.74
0.74
0.53
0.21
-0.05
-0.11
0.03
0.28
0.49
0.52
0.37
0.11
-0.14
-0.28
-0.28
-0.16
0.03
0.25
0.48
0.68
0.79
0.77
0.61
0.36
0.10
-0.04
-0.02
0.15
0.39
0.58
0.63
0.52
0.32
0.09
-0.11
-0.24
-0.34
-0.42
-0.52
-0.59
-0.61
-0.54
-0.39
-0.25
-0.21
-0.35
-0.67
-1.10
-1.49
-1.72
-1.69
-1.41
-0.97
-0.53
-0.19
0.01
0.11
0.18
0.26
0.37
0.46
0.49
0.47
0.43
0.44
0.54
0.72
0.91
1.04
1.03
0.87
0.62
0.36
0.17
0.07
0.05
0.04
-0.00
-0.13
-0.31
-0.50
-0.62
-0.63
-0.50
-0.26
0.05
0.34
0.55
0.62
0.55
0.41
0.26
0.18
0.15
0.14
0.08
-0.04
-0.19
-0.30
-0.31
-0.25
-0.17
-0.10
-0.05
0.05
0.24
0.49
0.70
0.74
0.53
0.12
-0.33
-0.64
-0.72
-0.58
-0.37
-0.22
-0.19
-0.27
-0.38
-0.42
-0.38
-0.25
-0.10
0.05
0.15
0.20
0.17
0.04
-0.16
-0.41
-0.65
-0.82
-0.87
-0.80
-0.62
-0.37
-0.09
0.16
0.33
0.39
0.34
0.22
0.10
0.04
0.09
0.28
0.55
0.84
1.06
1.13
1.03
0.79
0.48
0.18
-0.03
-0.17
-0.26
-0.36
-0.48
-0.58
-0.60
-0.47
-0.20
0.14
0.44
0.63
0.67
0.58
0.46
0.35
0.30
0.29
0.30
0.29
0.26
0.23
0.21
0.21
0.18
0.11
-0.04
-0.25
-0.49
-0.70
-0.83
-0.85
-0.72
-0.48
-0.19
0.07
0.21
0.22
0.12
-0.02
-0.10
-0.07
0.05
0.24
0.43
0.55
0.60
0.57
0.50
0.43
0.38
0.35
0.27
0.12
-0.14
-0.46
-0.76
-0.95
-0.97
-0.85
-0.66
-0.50
-0.41
-0.36
-0.29
-0.16
0.02
0.21
0.34
0.38
0.33
0.24
0.16
0.13
0.17
0.26
0.36
0.43
0.44
0.39
0.31
0.20
0.11
0.00
-0.11
-0.24
-0.40
-0.58
-0.77
-0.93
-1.03
-1.07
-1.04
-0.97
-0.89
-0.83
-0.77
-0.67
-0.46
-0.11
0.32
0.76
1.06
1.15
1.04
0.79
0.52
0.29
0.11
-0.02
-0.14
-0.21
-0.18
-0.00
0.34
0.75
1.07
1.15
0.90
0.37
-0.29
-0.84
-1.10
-1.02
-0.68
-0.27
0.05
0.20
0.22
0.22
0.27
0.36
0.42
0.38
0.24
0.07
0.01
0.14
0.43
0.78
1.05
1.12
0.95
0.61
0.19
-0.23
-0.58
-0.81
-0.89
-0.82
-0.64
-0.41
-0.25
-0.24
-0.40
-0.67
-0.93
-1.05
-0.97
-0.70
-0.32
0.06
0.35
0.48
0.48
0.40
0.31
0.30
0.39
0.55
0.69
0.73
0.60
0.33
0.05
-0.13
-0.13
0.03
0.21
0.27
0.12
-0.19
-0.50
-0.67
-0.62
-0.37
-0.09
0.06
-0.01
-0.28
-0.62
-0.85
-0.82
-0.48
0.10
0.75
1.31
1.63
1.66
1.44
1.06
0.63
0.21
-0.15
-0.40
-0.54
-0.57
-0.50
-0.37
-0.24
-0.13
-0.08
-0.13
-0.26
-0.46
-0.69
-0.88
-0.93
-0.82
-0.57
-0.29
-0.08
-0.02
-0.07
-0.15
-0.15
-0.02
0.21
0.45
0.58
0.50
0.24
-0.13
-0.45
-0.61
-0.53
-0.24
0.16
0.53
0.75
0.80
0.69
0.51
0.34
0.23
0.19
0.20
0.20
0.18
0.12
0.03
-0.09
-0.21
-0.30
-0.31
-0.24
-0.07
0.16
0.38
0.51
0.46
0.23
-0.12
-0.47
-0.73
-0.85
-0.85
-0.75
-0.59
-0.39
-0.14
0.10
0.28
0.33
0.23
0.06
-0.08
-0.06
0.12
0.39
0.61
0.69
0.59
0.38
0.16
0.01
-0.03
0.04
0.20
0.40
0.58
0.67
0.62
0.44
0.15
-0.14
-0.34
-0.42
-0.38
-0.28
-0.19
-0.10
-0.01
0.12
0.28
0.41
0.44
0.31
0.03
-0.32
-0.63
-0.84
-0.91
-0.87
-0.73
-0.52
-0.23
0.11
0.46
0.73
0.85
0.78
0.55
0.21
-0.14
-0.43
-0.60
-0.65
-0.58
-0.47
-0.37
-0.33
-0.36
-0.39
-0.37
-0.25
-0.00
0.33
0.70
1.00
1.18
1.19
1.04
0.75
0.40
0.08
-0.16
-0.29
-0.33
-0.32
-0.29
-0.24
-0.19
-0.12
-0.04
0.02
0.06
0.13
0.25
0.45
0.70
0.91
0.97
0.81
0.42
-0.11
-0.62
-0.96
-1.03
-0.84
-0.49
-0.13
0.10
0.15
0.03
-0.19
-0.43
-0.61
-0.66
-0.54
-0.24
0.19
0.65
0.99
1.06
0.81
0.27
-0.39
-0.95
-1.25
-1.24
-0.98
-0.64
-0.39
-0.32
-0.43
-0.61
-0.71
-0.63
-0.33
0.07
0.44
0.63
0.58
0.36
0.09
-0.10
-0.15
-0.09
-0.01
0.01
-0.06
-0.17
-0.27
-0.32
-0.32
-0.29
-0.27
-0.23
-0.11
0.11
0.44
0.78
1.02
1.07
0.89
0.56
0.20
-0.09
-0.26
-0.30
-0.26
-0.17
-0.02
0.17
0.41
0.66
0.82
0.84
0.69
0.43
0.17
-0.01
-0.06
-0.00
0.08
0.12
0.08
-0.03
-0.16
-0.26
-0.31
-0.33
-0.35
-0.37
-0.42
-0.48
-0.51
-0.48
-0.36
-0.13
0.19
0.53
0.82
0.98
1.00
0.87
0.66
0.42
0.21
0.07
0.01
0.01
0.03
0.01
-0.08
-0.25
-0.47
-0.69
-0.84
-0.87
-0.76
-0.54
-0.24
0.06
0.28
0.39
0.37
0.25
0.11
-0.04
-0.20
-0.38
-0.58
-0.73
-0.76
-0.62
-0.36
-0.09
0.08
0.13
0.08
0.03
0.03
0.04
-0.00
-0.14
-0.33
-0.44
-0.35
-0.01
0.46
0.89
1.12
1.07
0.81
0.46
0.16
-0.01
-0.04
0.07
0.29
0.57
0.86
1.07
1.09
0.88
0.47
-0.04
-0.50
-0.79
-0.88
-0.84
-0.77
-0.71
-0.68
-0.64
-0.56
-0.45
-0.33
-0.23
-0.09
0.10
0.34
0.56
0.65
0.53
0.23
-0.14
-0.42
-0.50
-0.43
-0.32
-0.28
-0.35
-0.43
-0.41
-0.24
0.07
0.39
0.59
0.59
0.41
0.13
-0.16
-0.38
-0.50
-0.53
-0.50
-0.42
-0.33
-0.24
-0.21
-0.29
-0.45
-0.64
-0.73
-0.62
-0.32
0.09
0.42
0.53
0.42
0.22
0.12
0.25
0.58
0.93
1.07
0.89
0.47
0.03
-0.23
-0.19
0.06
0.37
0.57
0.63
0.59
0.54
0.52
0.51
0.43
0.25
-0.01
-0.25
-0.40
-0.39
-0.28
-0.12
-0.01
0.01
-0.07
-0.23
-0.43
-0.62
-0.73
-0.71
-0.54
-0.23
0.13
0.40
0.46
0.27
-0.12
-0.54
-0.82
-0.86
-0.68
-0.39
-0.13
0.00
-0.01
-0.12
-0.25
-0.35
-0.41
-0.43
-0.43
-0.37
-0.24
-0.02
0.25
0.49
0.62
0.56
0.37
0.13
-0.01
0.02
0.24
0.57
0.94
1.26
1.51
1.67
1.72
1.61
1.34
0.94
0.50
0.13
-0.11
-0.25
-0.36
-0.52
-0.75
-0.99
-1.14
-1.12
-0.91
-0.56
-0.17
0.14
0.29
0.25
0.07
-0.17
-0.35
-0.39
-0.28
-0.09
0.10
0.19
0.15
0.01
-0.15
-0.26
-0.29
-0.27
-0.23
-0.21
-0.21
-0.18
-0.07
0.15
0.43
0.68
0.77
0.62
0.26
-0.19
-0.57
-0.74
-0.68
-0.47
-0.24
-0.09
-0.10
-0.21
-0.35
-0.41
-0.32
-0.10
0.19
0.43
0.54
0.51
0.38
0.24
0.14
0.06
-0.08
-0.33
-0.68
-1.03
-1.21
-1.13
-0.79
-0.30
0.18
0.51
0.62
0.55
0.40
0.28
0.29
0.43
0.67
0.92
1.11
1.17
1.10
0.92
0.67
0.38
0.12
-0.07
-0.17
-0.18
-0.13
-0.08
-0.08
-0.15
-0.25
-0.32
-0.31
-0.20
-0.02
0.12
0.15
0.02
-0.23
-0.52
-0.75
-0.85
-0.80
-0.67
-0.53
-0.44
-0.43
-0.45
-0.42
-0.30
-0.12
0.05
0.11
0.02
-0.18
-0.35
-0.34
-0.09
0.32
0.73
0.95
0.89
0.59
0.15
-0.28
-0.60
-0.77
-0.79
-0.66
-0.38
0.02
0.46
0.84
1.09
1.18
1.14
1.01
0.84
0.63
0.37
0.07
-0.22
-0.40
-0.39
-0.21
0.09
0.38
0.54
0.52
0.36
0.12
-0.11
-0.27
-0.34
-0.31
-0.17
0.05
0.30
0.51
0.60
0.51
0.24
-0.15
-0.57
-0.92
-1.17
-1.28
-1.29
-1.20
-1.04
-0.82
-0.58
-0.34
-0.15
-0.01
0.08
0.13
0.18
0.26
0.36
0.45
0.50
0.48
0.42
0.38
0.42
0.54
0.69
0.76
0.68
0.46
0.15
-0.13
-0.34
-0.51
-0.68
-0.88
-1.05
-1.10
-0.97
-0.68
-0.36
-0.15
-0.13
-0.29
-0.49
-0.56
-0.44
-0.11
0.31
0.69
0.93
0.98
0.86
0.63
0.39
0.22
0.15
0.16
0.22
0.29
0.37
0.45
0.52
0.54
0.47
0.30
0.03
-0.26
-0.49
-0.61
-0.58
-0.45
-0.26
-0.06
0.12
0.24
0.30
0.30
0.25
0.19
0.16
0.17
0.21
0.26
0.32
0.41
0.51
0.60
0.60
0.46
0.19
-0.14
-0.40
-0.49
-0.39
-0.19
-0.01
0.07
0.04
-0.06
-0.19
-0.32
-0.48
-0.65
-0.80
-0.86
-0.77
-0.57
-0.37
-0.29
-0.39
-0.64
-0.91
-1.06
-1.00
-0.76
-0.44
-0.16
0.01
0.10
0.16
0.25
0.40
0.54
0.56
0.41
0.10
-0.24
-0.47
-0.46
-0.21
0.17
0.52
0.74
0.78
0.71
0.65
0.67
0.77
0.86
0.82
0.58
0.21
-0.19
-0.44
-0.45
-0.22
0.13
0.45
0.64
0.65
0.52
0.32
0.11
-0.09
-0.32
-0.57
-0.80
-0.95
-0.96
-0.80
-0.53
-0.25
-0.04
0.06
0.07
0.06
0.09
0.19
0.34
0.51
0.64
0.71
0.70
0.60
0.45
0.25
0.06
-0.08
-0.14
-0.12
-0.04
0.06
0.16
0.20
0.17
0.07
-0.08
-0.22
-0.29
-0.23
-0.02
0.27
0.52
0.65
0.62
0.49
0.34
0.26
0.26
0.30
0.29
0.18
-0.01
-0.25
-0.47
-0.66
-0.79
-0.89
-0.95
-0.93
-0.80
-0.58
-0.32
-0.11
-0.02
-0.06
-0.16
-0.24
-0.23
-0.12
0.01
0.07
0.05
-0.02
-0.03
0.08
0.29
0.49
0.56
0.41
0.08
-0.29
-0.57
-0.66
-0.56
-0.34
-0.10
0.10
0.19
0.19
0.14
0.09
0.06
0.07
0.10
0.14
0.17
0.20
0.21
0.20
0.15
0.05
-0.10
-0.26
-0.37
-0.39
-0.29
-0.09
0.17
0.43
0.65
0.80
0.85
0.80
0.67
0.54
0.48
0.53
0.66
0.80
0.84
0.72
0.51
0.32
0.27
0.36
0.50
0.52
0.30
-0.13
-0.58
-0.87
-0.89
-0.68
-0.42
-0.28
-0.31
-0.44
-0.52
-0.44
-0.25
-0.06
-0.02
-0.20
-0.54
-0.92
-1.19
-1.26
-1.13
-0.87
-0.57
-0.29
-0.07
0.10
0.23
0.37
0.48
0.51
0.42
0.19
-0.14
-0.48
-0.70
-0.72
-0.53
-0.21
0.11
0.35
0.47
0.49
0.45
0.40
0.34
0.28
0.25
0.28
0.41
0.61
0.80
0.90
0.81
0.56
0.21
-0.15
-0.43
-0.61
-0.72
-0.76
-0.75
-0.68
-0.54
-0.33
-0.08
0.15
0.32
0.39
0.36
0.23
0.06
-0.07
-0.12
-0.03
0.16
0.42
0.65
0.80
0.82
0.71
0.51
0.27
0.04
-0.12
-0.19
-0.18
-0.14
-0.12
-0.16
-0.26
-0.38
-0.50
-0.61
-0.71
-0.77
-0.77
-0.66
-0.44
-0.13
0.22
0.53
0.72
0.74
0.57
0.23
-0.25
-0.75
-1.14
-1.29
-1.12
-0.67
-0.08
0.44
0.71
0.64
0.27
-0.25
-0.74
-1.04
-1.06
-0.83
-0.48
-0.14
0.07
0.09
-0.04
-0.25
-0.46
-0.59
-0.63
-0.56
-0.41
-0.20
0.04
0.27
0.48
0.64
0.75
0.81
0.83
0.82
0.77
0.66
0.50
0.34
0.23
0.22
0.34
0.55
0.79
0.96
0.99
0.86
0.63
0.37
0.16
0.04
0.03
0.09
0.21
0.34
0.39
0.32
0.08
-0.27
-0.62
-0.85
-0.90
-0.76
-0.52
-0.28
-0.06
0.13
0.35
0.58
0.76
0.83
0.73
0.49
0.21
-0.02
-0.15
-0.19
-0.21
-0.26
-0.35
-0.43
-0.44
-0.33
-0.14
0.05
0.14
0.06
-0.17
-0.44
-0.63
-0.63
-0.48
-0.26
-0.10
-0.07
-0.12
-0.21
-0.26
-0.30
-0.37
-0.51
-0.68
-0.79
-0.74
-0.50
-0.13
0.22
0.39
0.34
0.10
-0.19
-0.37
-0.35
-0.13
0.19
0.49
0.63
0.56
0.27
-0.17
-0.63
-1.01
-1.18
-1.12
-0.85
-0.43
0.00
0.35
0.53
0.49
0.26
-0.11
-0.50
-0.79
-0.90
-0.78
-0.47
-0.08
0.26
0.50
0.66
0.79
0.98
1.22
1.41
1.42
1.20
0.76
0.27
-0.12
-0.29
-0.22
0.04
0.39
0.75
1.06
1.26
1.31
1.18
0.90
0.56
0.27
0.11
0.06
0.05
0.00
-0.13
-0.33
-0.53
-0.70
-0.83
-0.96
-1.11
-1.26
-1.33
-1.31
-1.21
-1.11
-1.13
-1.35
-1.77
-2.29
-2.75
-2.97
-2.82
-2.25
-1.35
-0.27
0.76
1.61
2.21
2.61
2.89
3.11
3.24
3.19
2.89
2.37
1.77
1.27
1.02
1.02
1.15
1.27
1.24
1.09
0.93
0.87
0.97
1.16
1.28
1.20
0.88
0.42
-0.03
-0.36
-0.55
-0.69
-0.89
-1.19
-1.52
-1.70
-1.63
-1.30
-0.90
-0.66
-0.74
-1.11
-1.56
-1.81
-1.69
-1.23
-0.62
-0.11
0.18
0.27
0.27
0.32
0.45
0.59
0.64
0.55
0.34
0.07
-0.22
-0.47
-0.65
-0.70
-0.57
-0.27
0.16
0.59
0.89
0.97
0.81
0.49
0.09
-0.29
-0.60
-0.80
-0.87
-0.81
-0.66
-0.47
-0.27
-0.12
-0.03
0.01
-0.02
-0.07
-0.13
-0.14
-0.10
0.00
0.08
0.07
-0.06
-0.24
-0.39
-0.40
-0.24
0.01
0.26
0.40
0.43
0.39
0.34
0.32
0.32
0.32
0.31
0.30
0.32
0.39
0.46
0.47
0.39
0.19
-0.10
-0.41
-0.66
-0.77
-0.71
-0.47
-0.13
0.23
0.51
0.68
0.73
0.66
0.51
0.32
0.14
0.00
-0.05
-0.03
0.02
0.03
-0.02
-0.15
-0.27
-0.31
-0.24
-0.08
0.09
0.19
0.18
0.10
0.04
0.06
0.16
0.28
0.34
0.28
0.15
0.00
-0.07
-0.03
0.07
0.15
0.13
-0.01
-0.26
-0.52
-0.72
-0.83
-0.84
-0.78
-0.69
-0.57
-0.43
-0.28
-0.12
0.06
0.22
0.35
0.42
0.39
0.27
0.08
-0.15
-0.36
-0.53
-0.61
-0.57
-0.36
0.03
0.54
1.05
1.40
1.44
1.12
0.51
-0.18
-0.74
-0.99
-0.90
-0.57
-0.17
0.15
0.33
0.37
0.34
0.30
0.24
0.16
0.05
-0.05
-0.07
0.06
0.31
0.59
0.79
0.81
0.62
0.28
-0.13
-0.52
-0.83
-1.01
-1.03
-0.88
-0.61
-0.30
-0.05
0.10
0.14
0.15
0.17
0.21
0.24
0.20
0.10
0.01
0.01
0.15
0.41
0.69
0.87
0.90
0.79
0.62
0.46
0.33
0.21
0.04
-0.24
-0.58
-0.91
-1.12
-1.12
-0.92
-0.63
-0.39
-0.29
-0.34
-0.46
-0.53
-0.47
-0.25
0.05
0.33
0.48
0.47
0.34
0.16
-0.00
-0.10
-0.16
-0.21
-0.27
-0.31
-0.26
-0.05
0.32
0.76
1.10
1.20
1.04
0.70
0.34
0.12
0.10
0.23
0.38
0.46
0.40
0.21
-0.07
-0.39
-0.71
-0.99
-1.19
-1.26
-1.16
-0.92
-0.58
-0.26
-0.05
0.03
0.00
-0.04
0.01
0.18
0.43
0.62
0.64
0.45
0.12
-0.20
-0.37
-0.33
-0.11
0.17
0.42
0.56
0.59
0.51
0.37
0.19
0.00
-0.18
-0.35
-0.52
-0.66
-0.74
-0.69
-0.48
-0.12
0.28
0.56
0.63
0.47
0.22
0.02
0.01
0.16
0.37
0.50
0.51
0.42
0.32
0.26
0.21
0.10
-0.12
-0.41
-0.65
-0.71
-0.54
-0.18
0.20
0.46
0.48
0.27
-0.06
-0.38
-0.56
-0.54
-0.32
0.01
0.34
0.58
0.66
0.57
0.36
0.09
-0.15
-0.33
-0.42
-0.42
-0.36
-0.29
-0.22
-0.17
-0.16
-0.18
-0.23
-0.28
-0.32
-0.30
-0.17
0.06
0.36
0.63
0.77
0.71
0.48
0.17
-0.07
-0.15
-0.07
0.07
0.13
0.04
-0.19
-0.47
-0.71
-0.86
-0.92
-0.93
-0.93
-0.91
-0.82
-0.62
-0.29
0.10
0.45
0.67
0.75
0.75
0.77
0.90
1.13
1.39
1.58
1.61
1.48
1.25
1.01
0.81
0.65
0.48
0.27
0.04
-0.16
-0.32
-0.43
-0.57
-0.77
-1.03
-1.25
-1.33
-1.22
-0.94
-0.59
-0.31
-0.16
-0.15
-0.19
-0.21
-0.15
0.00
0.19
0.35
0.44
0.44
0.34
0.18
-0.00
-0.19
-0.36
-0.54
-0.72
-0.88
-0.96
-0.91
-0.71
-0.38
-0.03
0.26
0.42
0.48
0.49
0.50
0.51
0.50
0.41
0.26
0.09
-0.02
-0.03
0.03
0.10
0.09
-0.01
-0.14
-0.23
-0.23
-0.15
-0.06
0.01
0.04
0.10
0.27
0.56
0.89
1.14
1.15
0.90
0.46
-0.02
-0.39
-0.56
-0.56
-0.48
-0.38
-0.30
-0.23
-0.19
-0.21
-0.34
-0.60
-0.91
-1.17
-1.25
-1.10
-0.77
-0.38
-0.04
0.15
0.21
0.17
0.15
0.20
0.37
0.67
1.03
1.33
1.48
1.41
1.13
0.72
0.31
-0.02
-0.23
-0.36
-0.46
-0.58
-0.70
-0.81
-0.82
-0.70
-0.48
-0.22
0.01
0.16
0.23
0.26
0.29
0.31
0.30
0.25
0.14
0.01
-0.07
-0.05
0.09
0.33
0.59
0.81
0.89
0.77
0.45
0.00
-0.45
-0.74
-0.77
-0.54
-0.14
0.27
0.54
0.59
0.42
0.09
-0.31
-0.68
-0.93
-1.03
-0.98
-0.79
-0.53
-0.25
-0.02
0.16
0.25
0.27
0.22
0.11
-0.02
-0.10
-0.10
-0.01
0.13
0.22
0.19
0.03
-0.20
-0.36
-0.37
-0.18
0.13
0.43
0.59
0.54
0.28
-0.11
-0.52
-0.84
-1.01
-1.00
-0.84
-0.60
-0.35
-0.16
-0.06
-0.02
-0.01
0.01
0.06
0.12
0.17
0.18
0.18
0.21
0.29
0.43
0.58
0.68
0.66
0.49
0.19
-0.15
-0.40
-0.46
-0.28
0.09
0.54
0.92
1.10
1.03
0.74
0.35
-0.03
-0.29
-0.37
-0.28
-0.04
0.27
0.58
0.79
0.83
0.68
0.38
-0.01
-0.37
-0.60
-0.66
-0.53
-0.27
0.06
0.40
0.69
0.87
0.86
0.62
0.16
-0.43
-0.96
-1.26
-1.22
-0.85
-0.28
0.32
0.77
1.01
1.03
0.87
0.59
0.24
-0.13
-0.49
-0.77
-0.95
-1.02
-0.99
-0.91
-0.82
-0.72
-0.61
-0.48
-0.35
-0.26
-0.21
-0.22
-0.24
-0.22
-0.13
-0.00
0.11
0.14
0.05
-0.11
-0.25
-0.30
-0.24
-0.11
0.04
0.15
0.25
0.34
0.45
0.57
0.69
0.77
0.79
0.73
0.61
0.42
0.23
0.08
0.05
0.17
0.40
0.63
0.71
0.56
0.18
-0.29
-0.66
-0.82
-0.70
-0.39
-0.04
0.18
0.22
0.10
-0.09
-0.23
-0.25
-0.14
0.03
0.22
0.37
0.48
0.53
0.53
0.45
0.27
0.01
-0.29
-0.51
-0.60
-0.49
-0.26
-0.01
0.14
0.13
-0.02
-0.25
-0.45
-0.57
-0.58
-0.49
-0.33
-0.10
0.19
0.49
0.74
0.86
0.81
0.57
0.21
-0.14
-0.36
-0.38
-0.23
-0.01
0.16
0.20
0.09
-0.08
-0.22
-0.28
-0.26
-0.21
-0.14
-0.03
0.15
0.44
0.77
1.02
1.05
0.83
0.42
-0.04
-0.41
-0.60
-0.64
-0.58
-0.48
-0.40
-0.35
-0.33
-0.35
-0.42
-0.50
-0.55
-0.49
-0.32
-0.07
0.17
0.33
0.35
0.26
0.11
-0.07
-0.26
-0.44
-0.60
-0.69
-0.69
-0.59
-0.45
-0.32
-0.26
-0.24
-0.20
-0.06
0.20
0.56
0.88
1.05
0.99
0.69
0.24
-0.19
-0.49
-0.57
-0.46
-0.30
-0.19
-0.22
-0.38
-0.56
-0.65
-0.60
-0.45
-0.30
-0.24
-0.25
-0.23
-0.04
0.35
0.85
1.26
1.41
1.23
0.81
0.37
0.12
0.17
0.45
0.77
0.95
0.88
0.59
0.17
-0.25
-0.59
-0.82
-0.92
-0.89
-0.70
-0.37
0.09
0.56
0.91
1.04
0.93
0.63
0.31
0.07
-0.04
-0.03
0.04
0.09
0.08
0.03
-0.03
-0.07
-0.08
-0.08
-0.07
-0.04
-0.01
0.03
0.04
0.01
-0.07
-0.18
-0.28
-0.34
-0.34
-0.32
-0.31
-0.34
-0.39
-0.41
-0.37
-0.24
-0.05
0.12
0.21
0.15
-0.08
-0.40
-0.71
-0.91
-0.91
-0.70
-0.33
0.06
0.37
0.50
0.46
0.34
0.23
0.17
0.15
0.10
-0.03
-0.23
-0.46
-0.66
-0.77
-0.74
-0.58
-0.29
0.11
0.56
0.95
1.14
1.05
0.66
0.08
-0.49
-0.86
-0.94
-0.74
-0.39
-0.00
0.33
0.59
0.80
0.99
1.13
1.20
1.15
0.95
0.64
0.26
-0.10
-0.38
-0.53
-0.56
-0.48
-0.35
-0.25
-0.20
-0.23
-0.29
-0.35
-0.35
-0.29
-0.16
0.02
0.22
0.41
0.55
0.59
0.51
0.33
0.11
-0.07
-0.16
-0.18
-0.21
-0.33
-0.56
-0.85
-1.09
-1.17
-1.09
-0.88
-0.66
-0.52
-0.47
-0.45
-0.41
-0.29
-0.09
0.14
0.35
0.49
0.57
0.58
0.57
0.56
0.57
0.59
0.58
0.52
0.42
0.33
0.29
0.30
0.32
0.32
0.24
0.10
-0.03
-0.11
-0.15
-0.18
-0.26
-0.39
-0.55
-0.64
-0.60
-0.42
-0.16
0.10
0.29
0.37
0.40
0.42
0.47
0.54
0.59
0.55
0.41
0.19
-0.01
-0.11
-0.04
0.16
0.42
0.64
0.76
0.77
0.72
0.67
0.63
0.59
0.49
0.31
0.05
-0.26
-0.54
-0.75
-0.85
-0.86
-0.79
-0.66
-0.49
-0.29
-0.09
0.03
0.02
-0.15
-0.47
-0.83
-1.13
-1.27
-1.25
-1.11
-0.91
-0.70
-0.49
-0.26
-0.01
0.23
0.38
0.40
0.30
0.13
-0.00
-0.03
0.07
0.29
0.55
0.76
0.85
0.77
0.50
0.10
-0.34
-0.71
-0.87
-0.76
-0.38
0.16
0.71
1.08
1.18
0.98
0.54
-0.00
-0.49
-0.82
-0.93
-0.81
-0.50
-0.08
0.35
0.69
0.87
0.86
0.70
0.44
0.16
-0.08
-0.23
-0.27
-0.20
-0.01
0.23
0.46
0.61
0.61
0.50
0.30
0.10
-0.08
-0.23
-0.38
-0.57
-0.78
-0.97
-1.06
-1.00
-0.76
-0.37
0.08
0.50
0.79
0.92
0.85
0.62
0.30
-0.03
-0.29
-0.45
-0.47
-0.36
-0.15
0.11
0.34
0.50
0.54
0.52
0.47
0.46
0.49
0.50
0.41
0.16
-0.20
-0.53
-0.69
-0.56
-0.20
0.25
0.58
0.66
0.51
0.22
-0.04
-0.17
-0.14
-0.02
0.10
0.16
0.12
-0.01
-0.19
-0.38
-0.56
-0.66
-0.66
-0.53
-0.30
-0.03
0.18
0.24
0.10
-0.21
-0.61
-0.95
-1.14
-1.10
-0.87
-0.53
-0.17
0.15
0.40
0.57
0.67
0.70
0.63
0.48
0.29
0.11
-0.00
0.01
0.13
0.30
0.47
0.57
0.58
0.51
0.42
0.34
0.31
0.34
0.39
0.47
0.54
0.60
0.60
0.54
0.41
0.26
0.14
0.10
0.13
0.18
0.20
0.13
-0.03
-0.26
-0.55
-0.84
-1.07
-1.22
-1.25
-1.18
-1.03
-0.86
-0.68
-0.50
-0.31
-0.08
0.17
0.40
0.54
0.58
0.53
0.42
0.30
0.21
0.14
0.07
-0.02
-0.13
-0.23
-0.31
-0.33
-0.28
-0.16
-0.02
0.13
0.25
0.32
0.34
0.30
0.17
-0.02
-0.24
-0.40
-0.43
-0.28
0.03
0.41
0.70
0.80
0.68
0.38
0.01
-0.31
-0.52
-0.58
-0.51
-0.37
-0.19
-0.02
0.10
0.15
0.10
-0.04
-0.24
-0.45
-0.60
-0.66
-0.61
-0.49
-0.34
-0.21
-0.14
-0.13
-0.15
-0.17
-0.18
-0.16
-0.14
-0.15
-0.23
-0.34
-0.47
-0.57
-0.62
-0.65
-0.73
-0.93
-1.25
-1.62
-1.93
-2.02
-1.83
-1.37
-0.76
-0.15
0.36
0.71
0.92
1.06
1.18
1.33
1.52
1.73
1.90
1.96
1.86
1.60
1.27
0.96
0.76
0.69
0.65
0.53
0.28
-0.02
-0.22
-0.16
0.20
0.69
1.08
1.17
0.94
0.54
0.24
0.20
0.44
0.79
1.05
1.05
0.79
0.40
0.04
-0.16
-0.20
-0.11
-0.00
0.06
0.04
-0.09
-0.28
-0.49
-0.67
-0.78
-0.82
-0.81
-0.79
-0.74
-0.67
-0.55
-0.36
-0.13
0.11
0.31
0.43
0.44
0.33
0.11
-0.19
-0.50
-0.76
-0.93
-0.99
-0.97
-0.86
-0.67
-0.38
-0.03
0.33
0.59
0.64
0.45
0.07
-0.37
-0.73
-0.92
-0.95
-0.88
-0.76
-0.60
-0.36
-0.01
0.43
0.89
1.24
1.38
1.25
0.92
0.48
0.09
-0.18
-0.31
-0.33
-0.33
-0.33
-0.33
-0.30
-0.21
-0.06
0.11
0.23
0.27
0.23
0.20
0.26
0.45
0.72
0.96
1.07
1.01
0.82
0.61
0.48
0.46
0.49
0.46
0.29
-0.01
-0.40
-0.77
-1.05
-1.17
-1.15
-0.99
-0.72
-0.42
-0.13
0.05
0.11
0.05
-0.04
-0.08
-0.03
0.08
0.17
0.15
0.01
-0.20
-0.34
-0.31
-0.09
0.26
0.56
0.69
0.55
0.20
-0.23
-0.54
-0.60
-0.38
0.02
0.45
0.73
0.78
0.63
0.38
0.16
0.06
0.09
0.18
0.24
0.19
0.01
-0.27
-0.59
-0.87
-1.05
-1.11
-1.04
-0.85
-0.57
-0.26
0.07
0.39
0.69
0.95
1.12
1.15
0.99
0.66
0.22
-0.20
-0.52
-0.70
-0.75
-0.77
-0.76
-0.74
-0.67
-0.53
-0.36
-0.23
-0.17
-0.19
-0.20
-0.15
-0.04
0.08
0.14
0.08
-0.05
-0.19
-0.27
-0.27
-0.19
-0.09
0.02
0.12
0.20
0.26
0.29
0.28
0.19
0.04
-0.14
-0.27
-0.31
-0.21
-0.05
0.10
0.12
-0.01
-0.25
-0.46
-0.53
-0.43
-0.22
0.04
0.26
0.46
0.66
0.87
1.02
1.04
0.90
0.64
0.36
0.16
0.10
0.14
0.24
0.33
0.41
0.47
0.50
0.44
0.26
-0.06
-0.43
-0.71
-0.81
-0.70
-0.43
-0.12
0.13
0.25
0.27
0.26
0.27
0.36
0.52
0.72
0.86
0.86
0.67
0.30
-0.17
-0.62
-0.92
-1.02
-0.94
-0.76
-0.59
-0.48
-0.45
-0.47
-0.52
-0.57
-0.62
-0.65
-0.66
-0.61
-0.50
-0.35
-0.22
-0.14
-0.12
-0.12
-0.09
0.02
0.19
0.37
0.48
0.49
0.41
0.31
0.24
0.27
0.39
0.53
0.63
0.63
0.52
0.34
0.15
-0.00
-0.10
-0.15
-0.16
-0.12
-0.04
0.10
0.28
0.44
0.54
0.57
0.54
0.53
0.58
0.68
0.78
0.79
0.68
0.46
0.22
0.04
-0.01
0.04
0.11
0.08
-0.11
-0.44
-0.84
-1.17
-1.30
-1.19
-0.88
-0.49
-0.15
0.02
-0.01
-0.19
-0.40
-0.56
-0.64
-0.66
-0.68
-0.72
-0.76
-0.75
-0.64
-0.45
-0.25
-0.07
0.06
0.19
0.37
0.62
0.90
1.09
1.09
0.85
0.44
0.00
-0.29
-0.32
-0.09
0.28
0.63
0.80
0.75
0.51
0.19
-0.09
-0.27
-0.34
-0.35
-0.36
-0.39
-0.42
-0.40
-0.30
-0.11
0.12
0.29
0.35
0.26
0.07
-0.11
-0.19
-0.14
0.01
0.14
0.17
0.07
-0.10
-0.23
-0.19
0.02
0.35
0.65
0.81
0.80
0.64
0.45
0.31
0.25
0.26
0.28
0.27
0.25
0.25
0.31
0.41
0.51
0.54
0.48
0.31
0.09
-0.15
-0.38
-0.58
-0.75
-0.87
-0.95
-0.98
-0.95
-0.88
-0.78
-0.66
-0.55
-0.46
-0.40
-0.38
-0.36
-0.32
-0.18
0.06
0.38
0.71
0.94
1.00
0.89
0.70
0.53
0.45
0.44
0.42
0.31
0.07
-0.24
-0.50
-0.61
-0.53
-0.34
-0.13
-0.01
-0.01
-0.09
-0.18
-0.19
-0.09
0.11
0.32
0.46
0.45
0.26
-0.05
-0.41
-0.74
-0.97
-1.09
-1.08
-0.96
-0.73
-0.40
-0.04
0.27
0.40
0.30
-0.00
-0.42
-0.77
-0.94
-0.87
-0.59
-0.23
0.10
0.34
0.48
0.59
0.67
0.73
0.72
0.61
0.42
0.21
0.08
0.07
0.16
0.27
0.30
0.20
0.01
-0.17
-0.26
-0.22
-0.10
0.03
0.11
0.11
0.07
0.05
0.07
0.13
0.18
0.22
0.24
0.28
0.36
0.51
0.68
0.82
0.87
0.80
0.60
0.34
0.06
-0.16
-0.29
-0.32
-0.30
-0.28
-0.30
-0.37
-0.47
-0.54
-0.54
-0.42
-0.25
-0.11
-0.11
-0.30
-0.64
-0.98
-1.12
-0.95
-0.46
0.19
0.78
1.12
1.15
0.94
0.63
0.34
0.12
-0.07
-0.28
-0.53
-0.76
-0.91
-0.93
-0.83
-0.66
-0.47
-0.27
-0.06
0.16
0.35
0.46
0.46
0.35
0.18
0.02
-0.10
-0.16
-0.18
-0.16
-0.09
0.02
0.16
0.29
0.40
0.50
0.59
0.67
0.72
0.71
0.63
0.49
0.33
0.18
0.08
0.03
0.00
-0.03
-0.07
-0.10
-0.08
-0.01
0.06
0.08
-0.00
-0.19
-0.44
-0.66
-0.74
-0.66
-0.43
-0.14
0.11
0.24
0.21
0.04
-0.22
-0.47
-0.62
-0.62
-0.46
-0.23
-0.06
-0.03
-0.13
-0.26
-0.31
-0.22
-0.00
0.27
0.50
0.65
0.73
0.76
0.73
0.65
0.47
0.22
-0.04
-0.23
-0.27
-0.16
0.06
0.29
0.45
0.50
0.46
0.36
0.24
0.11
-0.07
-0.29
-0.54
-0.75
-0.84
-0.79
-0.63
-0.44
-0.33
-0.31
-0.31
-0.24
-0.03
0.28
0.58
0.74
0.69
0.47
0.19
-0.04
-0.13
-0.10
0.02
0.20
0.41
0.61
0.77
0.82
0.73
0.51
0.21
-0.11
-0.38
-0.59
-0.72
-0.76
-0.68
-0.48
-0.21
0.04
0.15
0.07
-0.16
-0.41
-0.50
-0.35
0.02
0.47
0.82
0.93
0.79
0.46
0.09
-0.17
-0.22
-0.09
0.13
0.30
0.30
0.12
-0.17
-0.46
-0.64
-0.70
-0.68
-0.63
-0.59
-0.56
-0.48
-0.35
-0.16
0.03
0.15
0.18
0.13
0.05
0.02
0.10
0.26
0.43
0.53
0.48
0.30
0.08
-0.08
-0.13
-0.09
-0.06
-0.09
-0.18
-0.27
-0.27
-0.17
-0.04
0.03
-0.02
-0.17
-0.31
-0.34
-0.23
-0.01
0.23
0.39
0.44
0.38
0.26
0.11
-0.02
-0.09
-0.08
-0.01
0.07
0.09
0.01
-0.15
-0.30
-0.33
-0.19
0.08
0.38
0.57
0.57
0.38
0.09
-0.18
-0.37
-0.45
-0.47
-0.49
-0.55
-0.59
-0.54
-0.33
0.02
0.42
0.71
0.81
0.74
0.59
0.51
0.53
0.58
0.56
0.39
0.07
-0.29
-0.53
-0.56
-0.41
-0.18
0.01
0.10
0.09
0.02
-0.07
-0.18
-0.30
-0.41
-0.49
-0.52
-0.49
-0.46
-0.45
-0.46
-0.43
-0.28
0.04
0.50
0.96
1.26
1.27
1.01
0.57
0.14
-0.18
-0.33
-0.36
-0.32
-0.25
-0.15
-0.02
0.11
0.16
0.06
-0.20
-0.54
-0.83
-0.94
-0.81
-0.51
-0.17
0.08
0.19
0.19
0.15
0.15
0.20
0.25
0.25
0.17
0.04
-0.07
-0.09
0.02
0.22
0.46
0.66
0.75
0.72
0.54
0.29
0.02
-0.16
-0.19
-0.05
0.17
0.38
0.46
0.36
0.13
-0.16
-0.40
-0.55
-0.60
-0.59
-0.54
-0.45
-0.31
-0.11
0.11
0.28
0.33
0.25
0.07
-0.15
-0.29
-0.29
-0.16
0.04
0.19
0.23
0.17
0.07
0.05
0.14
0.33
0.53
0.67
0.71
0.71
0.72
0.78
0.88
0.93
0.86
0.62
0.27
-0.13
-0.46
-0.70
-0.83
-0.91
-0.97
-1.02
-1.03
-0.97
-0.82
-0.59
-0.31
-0.05
0.14
0.24
0.26
0.23
0.20
0.19
0.18
0.14
0.04
-0.13
-0.35
-0.53
-0.58
-0.44
-0.10
0.34
0.74
0.97
0.98
0.81
0.58
0.39
0.27
0.18
0.06
-0.14
-0.37
-0.55
-0.60
-0.50
-0.30
-0.11
-0.02
-0.06
-0.19
-0.31
-0.36
-0.33
-0.25
-0.20
-0.21
-0.26
-0.34
-0.39
-0.37
-0.28
-0.14
0.03
0.18
0.29
0.33
0.27
0.10
-0.14
-0.41
-0.63
-0.74
-0.70
-0.54
-0.31
-0.10
0.00
-0.02
-0.14
-0.26
-0.32
-0.29
-0.17
-0.05
0.02
-0.00
-0.07
-0.14
-0.17
-0.13
-0.08
-0.03
0.01
0.08
0.21
0.42
0.70
0.96
1.16
1.26
1.26
1.21
1.12
1.00
0.83
0.60
0.33
0.04
-0.27
-0.59
-0.89
-1.14
-1.27
-1.19
-0.89
-0.41
0.11
0.48
0.60
0.46
0.18
-0.06
-0.11
0.05
0.34
0.61
0.72
0.63
0.38
0.08
-0.21
-0.42
-0.55
-0.58
-0.48
-0.25
0.08
0.41
0.60
0.57
0.30
-0.10
-0.49
-0.74
-0.81
-0.72
-0.55
-0.36
-0.20
-0.06
0.04
0.13
0.23
0.38
0.60
0.84
1.03
1.06
0.85
0.45
-0.02
-0.39
-0.54
-0.44
-0.17
0.14
0.36
0.44
0.38
0.24
0.08
-0.04
-0.09
-0.04
0.10
0.30
0.47
0.54
0.47
0.29
0.07
-0.10
-0.16
-0.14
-0.10
-0.06
-0.05
-0.04
-0.04
-0.04
-0.07
-0.12
-0.21
-0.31
-0.40
-0.47
-0.51
-0.54
-0.56
-0.57
-0.56
-0.52
-0.46
-0.39
-0.35
-0.36
-0.41
-0.47
-0.49
-0.41
-0.20
0.11
0.42
0.61
0.60
0.40
0.12
-0.11
-0.18
-0.09
0.09
0.22
0.23
0.12
-0.05
-0.19
-0.26
-0.22
-0.13
0.01
0.19
0.40
0.64
0.88
1.04
1.04
0.83
0.42
-0.13
-0.68
-1.08
-1.22
-1.08
-0.71
-0.26
0.10
0.29
0.26
0.09
-0.13
-0.27
-0.31
-0.28
-0.24
-0.25
-0.33
-0.44
-0.52
-0.51
-0.40
-0.20
0.04
0.26
0.43
0.51
0.48
0.36
0.18
-0.01
-0.14
-0.17
-0.08
0.12
0.38
0.63
0.82
0.88
0.76
0.47
0.07
-0.37
-0.70
-0.84
-0.71
-0.33
0.20
0.75
1.15
1.29
1.13
0.75
0.26
-0.22
-0.61
-0.86
-0.96
-0.91
-0.74
-0.48
-0.21
0.00
0.09
0.08
0.03
0.02
0.09
0.18
0.23
0.17
0.02
-0.12
-0.16
-0.06
0.16
0.37
0.50
0.48
0.35
0.18
0.05
-0.01
-0.03
-0.03
-0.05
-0.08
-0.08
-0.05
0.01
0.08
0.11
0.09
0.02
-0.11
-0.28
-0.51
-0.78
-1.03
-1.19
-1.17
-0.94
-0.53
-0.05
0.36
0.63
0.73
0.72
0.68
0.64
0.60
0.48
0.25
-0.07
-0.38
-0.55
-0.51
-0.26
0.11
0.47
0.69
0.74
0.62
0.36
0.01
-0.34
-0.59
-0.66
-0.48
-0.11
0.32
0.65
0.77
0.69
0.51
0.40
0.41
0.53
0.66
0.72
0.66
0.55
0.47
0.45
0.48
0.48
0.38
0.16
-0.14
-0.40
-0.53
-0.50
-0.36
-0.17
-0.04
0.01
0.00
-0.03
-0.06
-0.09
-0.16
-0.27
-0.40
-0.50
-0.52
-0.48
-0.44
-0.50
-0.69
-0.95
-1.15
-1.15
-0.90
-0.45
0.02
0.36
0.44
0.28
-0.01
-0.29
-0.42
-0.37
-0.19
0.02
0.17
0.24
0.25
0.30
0.41
0.57
0.67
0.63
0.43
0.15
-0.10
-0.22
-0.18
-0.03
0.12
0.23
0.28
0.32
0.34
0.36
0.31
0.18
-0.02
-0.22
-0.32
-0.27
-0.10
0.13
0.31
0.34
0.18
-0.15
-0.54
-0.82
-0.84
-0.51
0.05
0.64
1.00
0.96
0.53
-0.10
-0.67
-0.99
-1.02
-0.86
-0.64
-0.47
-0.36
-0.23
-0.06
0.15
0.32
0.36
0.22
-0.05
-0.33
-0.52
-0.51
-0.31
0.00
0.30
0.49
0.54
0.49
0.42
0.37
0.35
0.30
0.20
0.03
-0.11
-0.14
0.00
0.30
0.66
0.96
1.09
1.05
0.87
0.63
0.40
0.20
0.05
-0.06
-0.13
-0.21
-0.31
-0.44
-0.58
-0.69
-0.75
-0.73
-0.63
-0.48
-0.30
-0.08
0.15
0.39
0.58
0.63
0.47
0.10
-0.41
-0.90
-1.23
-1.30
-1.13
-0.83
-0.52
-0.31
-0.24
-0.27
-0.32
-0.28
-0.11
0.21
0.62
0.99
1.21
1.17
0.84
0.32
-0.21
-0.56
-0.60
-0.33
0.10
0.50
0.69
0.57
0.21
-0.25
-0.60
-0.70
-0.52
-0.18
0.18
0.41
0.44
0.35
0.25
0.28
0.47
0.77
1.01
1.08
0.91
0.56
0.16
-0.18
-0.36
-0.38
-0.25
-0.04
0.19
0.38
0.45
0.39
0.18
-0.13
-0.45
-0.72
-0.89
-0.95
-0.92
-0.81
-0.62
-0.37
-0.10
0.12
0.21
0.12
-0.10
-0.34
-0.47
-0.39
-0.12
0.26
0.62
0.85
0.89
0.73
0.45
0.09
-0.27
-0.60
-0.84
-0.98
-0.99
-0.88
-0.67
-0.45
-0.27
-0.19
-0.23
-0.33
-0.40
-0.36
-0.19
0.05
0.25
0.34
0.27
0.12
-0.04
-0.14
-0.17
-0.15
-0.12
-0.09
-0.02
0.12
0.36
0.65
0.91
1.04
1.02
0.86
0.62
0.41
0.27
0.22
0.25
0.28
0.27
0.20
0.08
-0.02
-0.05
0.02
0.15
0.26
0.28
0.15
-0.09
-0.31
-0.41
-0.31
-0.05
0.26
0.49
0.55
0.45
0.28
0.11
0.00
-0.06
-0.13
-0.26
-0.44
-0.66
-0.86
-1.00
-1.09
-1.12
-1.13
-1.08
-0.96
-0.72
-0.38
0.03
0.42
0.70
0.84
0.85
0.77
0.66
0.56
0.46
0.36
0.25
0.18
0.20
0.30
0.44
0.54
0.55
0.42
0.22
-0.00
-0.16
-0.25
-0.30
-0.33
-0.37
-0.41
-0.43
-0.43
-0.39
-0.31
-0.22
-0.15
-0.12
-0.15
-0.24
-0.35
-0.42
-0.40
-0.31
-0.19
-0.06
0.05
0.16
0.30
0.47
0.62
0.68
0.61
0.41
0.13
-0.15
-0.40
-0.61
-0.77
-0.84
-0.76
-0.47
0.01
0.58
1.07
1.31
1.24
0.90
0.45
0.05
-0.19
-0.23
-0.15
-0.03
0.04
0.04
-0.04
-0.17
-0.37
-0.62
-0.90
-1.18
-1.35
-1.34
-1.11
-0.71
-0.22
0.25
0.62
0.87
1.03
1.14
1.22
1.25
1.17
0.97
0.66
0.35
0.12
0.06
0.16
0.35
0.52
0.57
0.48
0.29
0.11
-0.00
-0.02
0.00
-0.03
-0.16
-0.36
-0.55
-0.66
-0.64
-0.55
-0.44
-0.35
-0.28
-0.17
0.02
0.25
0.43
0.47
0.36
0.15
-0.05
-0.16
-0.20
-0.26
-0.43
-0.73
-1.05
-1.24
-1.20
-0.94
-0.59
-0.31
-0.17
-0.15
-0.12
0.02
0.25
0.48
0.59
0.52
0.34
0.16
0.08
0.10
0.14
0.10
-0.04
-0.24
-0.37
-0.36
-0.17
0.13
0.44
0.67
0.76
0.71
0.53
0.27
-0.03
-0.30
-0.49
-0.52
-0.40
-0.16
0.10
0.25
0.21
-0.00
-0.29
-0.52
-0.62
-0.55
-0.38
-0.16
0.06
0.33
0.64
0.95
1.18
1.21
1.00
0.63
0.24
-0.04
-0.16
-0.16
-0.11
-0.05
0.05
0.25
0.52
0.75
0.79
0.58
0.17
-0.27
-0.57
-0.65
-0.55
-0.41
-0.35
-0.41
-0.50
-0.55
-0.52
-0.43
-0.32
-0.24
-0.21
-0.24
-0.32
-0.46
-0.61
-0.71
-0.68
-0.46
-0.08
0.36
0.72
0.91
0.91
0.78
0.66
0.63
0.74
0.92
1.08
1.14
1.05
0.87
0.66
0.50
0.44
0.43
0.41
0.32
0.13
-0.10
-0.34
-0.52
-0.65
-0.76
-0.85
-0.93
-0.99
-1.01
-0.98
-0.91
-0.83
-0.77
-0.75
-0.77
-0.79
-0.77
-0.64
-0.39
-0.05
0.27
0.47
0.47
0.28
-0.00
-0.28
-0.47
-0.54
-0.52
-0.43
-0.28
-0.05
0.22
0.49
0.65
0.65
0.49
0.27
0.12
0.15
0.34
0.58
0.72
0.67
0.42
0.09
-0.17
-0.28
-0.25
-0.16
-0.14
-0.26
-0.49
-0.73
-0.87
-0.85
-0.70
-0.49
-0.31
-0.20
-0.12
-0.01
0.19
0.45
0.68
0.77
0.66
0.37
0.01
-0.29
-0.44
-0.40
-0.22
0.05
0.34
0.60
0.79
0.87
0.81
0.63
0.39
0.17
0.07
0.12
0.29
0.53
0.73
0.83
0.79
0.64
0.41
0.18
0.01
-0.09
-0.11
-0.11
-0.13
-0.21
-0.34
-0.46
-0.48
-0.38
-0.14
0.17
0.47
0.68
0.74
0.64
0.37
-0.01
-0.44
-0.84
-1.10
-1.18
-1.06
-0.79
-0.45
-0.13
0.12
0.27
0.33
0.31
0.25
0.16
0.05
-0.07
-0.17
-0.25
-0.27
-0.24
-0.20
-0.19
-0.27
-0.41
-0.57
-0.65
-0.59
-0.40
-0.15
0.04
0.07
-0.07
-0.31
-0.53
-0.62
-0.56
-0.37
-0.13
0.08
0.26
0.44
0.65
0.89
1.11
1.24
1.22
1.05
0.82
0.65
0.60
0.70
0.88
1.03
1.02
0.79
0.39
-0.09
-0.50
-0.73
-0.75
-0.62
-0.46
-0.40
-0.47
-0.65
-0.84
-0.93
-0.88
-0.70
-0.45
-0.19
0.04
0.25
0.42
0.53
0.55
0.47
0.27
-0.01
-0.32
-0.61
-0.80
-0.85
-0.73
-0.47
-0.14
0.18
0.40
0.49
0.47
0.42
0.40
0.46
0.56
0.64
0.66
0.58
0.45
0.28
0.11
-0.08
-0.32
-0.58
-0.81
-0.95
-0.94
-0.83
-0.71
-0.66
-0.71
-0.81
-0.87
-0.82
-0.63
-0.38
-0.11
0.11
0.26
0.39
0.50
0.59
0.65
0.63
0.53
0.37
0.21
0.12
0.15
0.29
0.49
0.69
0.82
0.85
0.75
0.54
0.22
-0.18
-0.60
-0.93
-1.07
-0.98
-0.70
-0.37
-0.15
-0.10
-0.16
-0.23
-0.16
0.08
0.41
0.71
0.87
0.87
0.77
0.65
0.57
0.52
0.42
0.23
-0.06
-0.34
-0.52
-0.50
-0.33
-0.10
0.05
0.03
-0.17
-0.45
-0.69
-0.80
-0.75
-0.57
-0.32
-0.05
0.19
0.39
0.54
0.62
0.63
0.58
0.49
0.36
0.20
-0.03
-0.33
-0.66
-0.91
-0.96
-0.77
-0.34
0.19
0.67
0.94
0.96
0.78
0.52
0.29
0.14
0.06
0.04
0.06
0.14
0.30
0.51
0.68
0.76
0.70
0.52
0.28
0.05
-0.15
-0.33
-0.48
-0.62
-0.71
-0.73
-0.66
-0.52
-0.36
-0.21
-0.09
-0.01
0.04
0.04
0.01
-0.05
-0.12
-0.18
-0.22
-0.26
-0.30
-0.32
-0.31
-0.26
-0.15
-0.00
0.17
0.33
0.44
0.47
0.40
0.30
0.23
0.23
0.30
0.36
0.32
0.10
-0.25
-0.62
-0.86
-0.87
-0.65
-0.30
0.01
0.17
0.12
-0.10
-0.40
-0.66
-0.80
-0.78
-0.63
-0.39
-0.13
0.08
0.23
0.30
0.29
0.21
0.08
-0.04
-0.06
0.06
0.33
0.66
0.92
0.99
0.83
0.51
0.18
-0.02
0.01
0.24
0.56
0.81
0.91
0.82
0.60
0.33
0.08
-0.14
-0.33
-0.49
-0.57
-0.53
-0.37
-0.13
0.08
0.16
0.07
-0.14
-0.32
-0.37
-0.24
-0.01
0.16
0.17
-0.01
-0.29
-0.53
-0.65
-0.65
-0.63
-0.66
-0.75
-0.82
-0.77
-0.51
-0.07
0.41
0.78
0.93
0.88
0.72
0.54
0.40
0.26
0.09
-0.13
-0.34
-0.43
-0.37
-0.18
0.01
0.06
-0.05
-0.25
-0.39
-0.36
-0.19
-0.00
0.03
-0.15
-0.46
-0.74
-0.83
-0.69
-0.39
-0.08
0.14
0.27
0.35
0.41
0.46
0.45
0.34
0.13
-0.12
-0.34
-0.47
-0.47
-0.38
-0.24
-0.08
0.04
0.12
0.12
0.07
-0.02
-0.12
-0.19
-0.18
-0.07
0.15
0.44
0.74
0.97
1.06
1.04
0.91
0.76
0.61
0.50
0.43
0.35
0.26
0.17
0.09
0.05
0.08
0.14
0.19
0.17
0.06
-0.11
-0.23
-0.19
0.03
0.35
0.60
0.59
0.30
-0.18
-0.60
-0.78
-0.63
-0.24
0.23
0.61
0.82
0.85
0.76
0.57
0.28
-0.07
-0.45
-0.74
-0.85
-0.75
-0.49
-0.20
0.00
0.07
0.02
-0.08
-0.17
-0.25
-0.33
-0.45
-0.58
-0.67
-0.66
-0.52
-0.31
-0.14
-0.07
-0.13
-0.25
-0.35
-0.34
-0.22
-0.03
0.17
0.31
0.36
0.31
0.16
-0.04
-0.24
-0.38
-0.39
-0.26
-0.04
0.18
0.28
0.21
0.01
-0.24
-0.41
-0.41
-0.28
-0.11
-0.03
-0.10
-0.30
-0.51
-0.62
-0.58
-0.42
-0.26
-0.16
-0.14
-0.12
0.01
0.29
0.68
1.07
1.32
1.38
1.26
1.04
0.84
0.72
0.69
0.71
0.74
0.74
0.69
0.58
0.39
0.08
-0.33
-0.74
-1.04
-1.08
-0.84
-0.41
0.03
0.30
0.29
0.03
-0.33
-0.65
-0.79
-0.76
-0.61
-0.42
-0.27
-0.22
-0.31
-0.51
-0.77
-0.98
-1.07
-1.02
-0.85
-0.65
-0.48
-0.36
-0.27
-0.16
-0.02
0.14
0.32
0.48
0.64
0.81
1.01
1.23
1.39
1.41
1.23
0.87
0.42
-0.00
-0.32
-0.48
-0.53
-0.55
-0.57
-0.61
-0.63
-0.59
-0.52
-0.47
-0.49
-0.54
-0.55
-0.41
-0.07
0.41
0.88
1.16
1.17
0.93
0.54
0.13
-0.18
-0.37
-0.41
-0.37
-0.27
-0.16
-0.06
-0.00
0.03
0.06
0.11
0.21
0.32
0.43
0.48
0.45
0.37
0.26
0.16
0.11
0.10
0.10
0.10
0.09
0.09
0.10
0.16
0.28
0.42
0.57
0.70
0.78
0.78
0.70
0.53
0.31
0.07
-0.15
-0.32
-0.44
-0.51
-0.56
-0.62
-0.64
-0.62
-0.51
-0.36
-0.21
-0.13
-0.17
-0.30
-0.46
-0.61
-0.68
-0.67
-0.58
-0.41
-0.17
0.13
0.45
0.72
0.86
0.82
0.60
0.29
-0.03
-0.23
-0.26
-0.14
0.06
0.23
0.26
0.13
-0.11
-0.35
-0.48
-0.46
-0.30
-0.06
0.16
0.31
0.39
0.41
0.40
0.39
0.39
0.39
0.40
0.38
0.33
0.24
0.12
0.01
-0.06
-0.08
-0.07
-0.05
-0.07
-0.10
-0.12
-0.11
-0.04
0.08
0.20
0.29
0.32
0.28
0.20
0.07
-0.08
-0.24
-0.38
-0.47
-0.50
-0.47
-0.40
-0.35
-0.35
-0.42
-0.54
-0.65
-0.73
-0.72
-0.63
-0.48
-0.34
-0.23
-0.18
-0.17
-0.16
-0.08
0.07
0.29
0.50
0.65
0.66
0.52
0.28
0.02
-0.18
-0.25
-0.21
-0.09
0.05
0.16
0.21
0.21
0.16
0.04
-0.11
-0.29
-0.44
-0.53
-0.53
-0.47
-0.37
-0.30
-0.29
-0.35
-0.47
-0.60
-0.68
-0.69
-0.61
-0.43
-0.18
0.13
0.48
0.83
1.11
1.24
1.14
0.84
0.42
0.03
-0.16
-0.08
0.20
0.55
0.82
0.92
0.86
0.73
0.59
0.50
0.41
0.29
0.10
-0.13
-0.30
-0.33
-0.20
0.07
0.35
0.52
0.53
0.38
0.14
-0.12
-0.33
-0.48
-0.57
-0.63
-0.66
-0.67
-0.71
-0.78
-0.86
-0.88
-0.79
-0.56
-0.24
0.07
0.26
0.30
0.23
0.15
0.12
0.16
0.22
0.22
0.16
0.05
-0.05
-0.14
-0.23
-0.32
-0.39
-0.41
-0.31
-0.12
0.11
0.27
0.29
0.19
0.04
-0.06
-0.05
0.04
0.15
0.22
0.25
0.28
0.36
0.47
0.57
0.59
0.49
0.33
0.19
0.17
0.27
0.45
0.61
0.64
0.52
0.24
-0.10
-0.42
-0.61
-0.64
-0.50
-0.25
0.04
0.27
0.39
0.39
0.31
0.19
0.08
-0.01
-0.09
-0.20
-0.31
-0.42
-0.48
-0.44
-0.31
-0.12
0.06
0.16
0.17
0.13
0.11
0.15
0.19
0.15
-0.03
-0.34
-0.65
-0.80
-0.72
-0.47
-0.20
-0.08
-0.14
-0.29
-0.32
-0.08
0.39
0.93
1.27
1.26
0.91
0.38
-0.11
-0.39
-0.43
-0.31
-0.15
-0.04
-0.01
-0.04
-0.12
-0.26
-0.48
-0.74
-0.97
-1.01
-0.76
-0.24
0.39
0.90
1.09
0.90
0.46
-0.01
-0.30
-0.32
-0.11
0.16
0.36
0.43
0.39
0.31
0.26
0.25
0.28
0.30
0.27
0.16
0.00
-0.18
-0.33
-0.38
-0.31
-0.15
0.06
0.22
0.30
0.30
0.28
0.28
0.30
0.28
0.16
-0.08
-0.39
-0.66
-0.81
-0.79
-0.63
-0.42
-0.24
-0.16
-0.17
-0.21
-0.23
-0.18
-0.06
0.14
0.36
0.59
0.79
0.93
0.99
0.92
0.75
0.51
0.29
0.16
0.14
0.18
0.23
0.26
0.25
0.26
0.31
0.37
0.34
0.15
-0.23
-0.68
-1.00
-1.04
-0.79
-0.38
-0.03
0.06
-0.13
-0.50
-0.87
-1.07
-1.04
-0.82
-0.53
-0.25
-0.06
0.03
0.05
0.01
-0.06
-0.15
-0.26
-0.38
-0.51
-0.61
-0.65
-0.58
-0.41
-0.17
0.04
0.17
0.18
0.10
-0.02
-0.10
-0.08
0.06
0.32
0.65
1.01
1.33
1.52
1.53
1.34
0.98
0.53
0.09
-0.25
-0.41
-0.39
-0.22
0.01
0.20
0.30
0.29
0.18
0.05
-0.03
-0.05
-0.03
-0.01
-0.05
-0.17
-0.35
-0.56
-0.74
-0.83
-0.77
-0.56
-0.25
0.09
0.34
0.45
0.43
0.32
0.21
0.10
0.01
-0.09
-0.20
-0.30
-0.33
-0.22
0.03
0.37
0.72
1.02
1.19
1.19
1.02
0.70
0.30
-0.12
-0.50
-0.81
-1.02
-1.13
-1.12
-0.99
-0.75
-0.45
-0.16
0.07
0.22
0.32
0.39
0.43
0.42
0.34
0.19
0.02
-0.14
-0.26
-0.36
-0.48
-0.62
-0.79
-0.93
-0.98
-0.89
-0.64
-0.27
0.15
0.53
0.76
0.79
0.60
0.28
-0.06
-0.28
-0.31
-0.13
0.16
0.46
0.67
0.70
0.56
0.30
-0.00
-0.25
-0.39
-0.38
-0.25
-0.04
0.17
0.33
0.43
0.47
0.48
0.48
0.48
0.45
0.35
0.17
-0.07
-0.33
-0.55
-0.68
-0.72
-0.68
-0.63
-0.58
-0.54
-0.47
-0.34
-0.16
0.05
0.20
0.24
0.15
-0.01
-0.15
-0.19
-0.06
0.18
0.45
0.64
0.67
0.51
0.22
-0.08
-0.30
-0.35
-0.22
0.04
0.33
0.59
0.75
0.78
0.66
0.42
0.11
-0.19
-0.39
-0.42
-0.25
0.04
0.32
0.46
0.40
0.17
-0.14
-0.43
-0.66
-0.81
-0.91
-0.94
-0.90
-0.76
-0.52
-0.23
0.05
0.26
0.36
0.33
0.21
0.06
-0.02
0.01
0.17
0.42
0.68
0.85
0.83
0.64
0.31
-0.07
-0.41
-0.66
-0.79
-0.80
-0.69
-0.47
-0.18
0.16
0.48
0.74
0.86
0.81
0.58
0.22
-0.19
-0.57
-0.81
-0.85
-0.67
-0.30
0.18
0.62
0.92
0.98
0.80
0.45
0.06
-0.26
-0.42
-0.43
-0.33
-0.20
-0.10
-0.06
-0.11
-0.24
-0.44
-0.64
-0.77
-0.75
-0.57
-0.28
0.03
0.26
0.37
0.39
0.40
0.43
0.52
0.63
0.69
0.66
0.53
0.30
0.02
-0.27
-0.51
-0.65
-0.66
-0.53
-0.35
-0.22
-0.22
-0.35
-0.51
-0.58
-0.49
-0.24
0.04
0.25
0.32
0.30
0.27
0.29
0.37
0.46
0.52
0.52
0.51
0.52
0.60
0.72
0.85
0.92
0.91
0.83
0.71
0.58
0.45
0.31
0.15
-0.03
-0.21
-0.33
-0.38
-0.36
-0.30
-0.26
-0.28
-0.36
-0.48
-0.60
-0.68
-0.67
-0.60
-0.47
-0.29
-0.09
0.10
0.27
0.40
0.50
0.56
0.59
0.57
0.52
0.42
0.29
0.13
-0.05
-0.23
-0.41
-0.55
-0.62
-0.60
-0.51
-0.43
-0.42
-0.53
-0.75
-1.01
-1.15
-1.08
-0.73
-0.18
0.45
0.98
1.27
1.28
1.05
0.67
0.23
-0.17
-0.46
-0.62
-0.64
-0.53
-0.31
-0.02
0.27
0.51
0.63
0.61
0.44
0.16
-0.17
-0.44
-0.56
-0.48
-0.23
0.10
0.36
0.43
0.26
-0.09
-0.47
-0.75
-0.83
-0.72
-0.48
-0.23
-0.03
0.10
0.21
0.31
0.38
0.40
0.31
0.14
-0.06
-0.17
-0.13
0.06
0.30
0.46
0.45
0.27
0.02
-0.19
-0.28
-0.26
-0.21
-0.21
-0.33
-0.50
-0.65
-0.65
-0.46
-0.14
0.20
0.43
0.47
0.34
0.15
0.04
0.06
0.20
0.37
0.46
0.39
0.16
-0.17
-0.50
-0.75
-0.82
-0.70
-0.37
0.08
0.53
0.86
0.93
0.73
0.33
-0.11
-0.40
-0.45
-0.24
0.11
0.43
0.61
0.59
0.41
0.18
0.01
-0.02
0.10
0.31
0.52
0.63
0.61
0.48
0.29
0.11
-0.03
-0.14
-0.23
-0.29
-0.31
-0.25
-0.11
0.08
0.25
0.35
0.34
0.28
0.21
0.21
0.30
0.48
0.69
0.89
1.00
0.99
0.85
0.61
0.31
-0.01
-0.32
-0.61
-0.87
-1.09
-1.24
-1.29
