1544027334.00
64.000000
-0.00
-0.00
-0.00
-0.00
-0.00
-0.00
-0.00
-0.00
-0.00
-0.00
0.00
0.01
0.01
-0.00
-0.03
-0.05
-0.05
0.00
0.13
0.36
0.66
1.01
1.37
1.72
2.06
2.40
2.79
3.24
3.80
4.43
5.09
5.72
6.31
6.86
7.44
8.13
8.97
10.08
11.35
12.70
14.00
15.20
16.34
17.59
19.16
21.19
23.90
27.12
30.57
33.97
37.17
40.24
43.47
47.28
51.97
57.93
64.83
72.20
79.53
86.48
93.15
99.99
107.68
116.76
127.80
140.35
153.69
167.01
179.76
191.95
204.16
217.68
231.21
247.08
265.98
288.16
312.52
336.16
354.64
363.17
358.22
338.81
307.42
268.10
225.46
182.97
142.16
103.02
64.97
27.79
-8.06
-41.26
-71.13
-97.38
-120.34
-140.69
-159.15
-176.23
-192.06
-206.58
-219.40
-230.61
-240.50
-249.66
-258.81
-268.88
-280.18
-292.48
-305.37
-318.32
-331.88
-346.87
-363.91
-381.81
-397.23
-405.46
-402.24
-386.36
-360.08
-328.70
-297.53
-269.70
-245.12
-221.57
-197.11
-171.58
-147.22
-126.76
-111.61
-100.40
-89.84
-76.79
-60.10
-41.69
-25.11
-13.59
-7.43
-3.98
1.00
10.90
25.75
42.34
55.66
62.00
61.06
56.31
53.14
55.81
64.99
77.33
87.21
89.70
83.06
69.80
55.39
45.08
41.44
43.00
45.49
44.33
37.52
26.84
16.30
9.61
7.90
8.95
9.00
5.13
-2.41
-9.71
-11.69
-4.64
11.58
32.63
52.05
63.37
63.55
53.92
39.31
25.94
17.91
16.02
17.19
17.21
13.13
5.02
-3.82
-9.49
-9.48
-4.58
1.98
6.61
7.69
7.12
8.82
16.30
29.88
45.36
56.02
55.50
41.46
17.57
-8.63
-29.01
-38.82
-38.93
-34.35
-31.30
-33.13
-38.89
-44.21
-44.35
-37.56
-25.72
-13.86
-6.88
-6.76
-11.58
-16.46
-16.66
-10.01
1.49
12.77
18.56
16.33
7.96
-1.74
-7.75
-7.85
-4.16
-1.00
-2.42
-8.87
-16.68
-20.14
-14.80
-0.61
18.34
35.35
44.65
44.31
36.44
25.99
17.62
13.42
12.10
9.99
3.91
-6.80
-19.00
-27.58
-28.33
-20.51
-8.03
3.12
7.73
4.83
-1.77
-5.86
-2.59
8.14
21.71
31.20
31.24
21.28
5.52
-9.17
-17.11
-16.72
-11.02
-5.85
-6.05
-12.67
-21.80
-26.92
-22.73
-8.32
11.55
29.31
38.58
37.83
31.32
26.25
28.35
38.11
50.41
57.52
53.43
37.72
15.58
-4.56
-15.60
-15.47
-7.75
0.39
2.71
-2.65
-11.77
-17.54
-14.01
-0.01
19.51
36.45
43.94
40.45
30.54
22.23
22.09
31.21
44.73
54.58
54.26
42.25
22.77
3.14
-10.37
-15.55
-14.78
-12.85
-14.09
-19.41
-26.33
-30.61
-29.13
-21.74
-11.26
-2.46
0.87
-2.67
-11.01
-20.06
-25.59
-25.14
-19.82
-12.99
-8.84
-9.24
-12.96
-16.06
-14.32
-6.43
5.40
16.13
21.37
20.00
14.98
11.68
14.23
23.10
34.52
43.09
45.15
41.09
35.30
33.46
39.17
51.38
64.89
72.97
70.95
58.88
41.60
26.33
18.51
18.94
23.51
25.43
19.23
3.80
-16.74
-35.69
-47.33
-49.89
-46.54
-43.11
-44.77
-52.48
-62.62
-69.03
-66.51
-54.29
-36.33
-19.61
-9.84
-8.40
-11.81
-13.91
-9.83
1.19
15.03
25.70
29.06
25.54
20.02
18.94
26.50
41.62
58.55
69.84
70.20
59.43
42.33
26.17
16.49
14.47
16.62
17.00
10.65
-3.60
-22.33
-39.63
-50.17
-52.09
-48.00
-43.44
-43.65
-50.00
-59.14
-64.75
-61.21
-47.32
-27.31
-8.83
1.63
2.45
-2.38
-5.80
-2.09
9.64
24.81
36.68
40.53
36.45
29.36
25.90
30.55
42.55
56.54
65.52
64.50
53.69
38.23
25.69
21.40
25.64
33.43
37.15
31.01
14.17
-8.51
-29.66
-43.21
-47.47
-45.59
-42.86
-43.71
-48.62
-54.61
-57.30
-53.75
-44.30
-32.15
-21.86
-16.47
-16.35
-19.20
-21.54
-20.55
-15.24
-7.17
1.04
7.11
10.39
12.13
14.72
20.16
28.35
36.96
42.39
41.85
35.29
25.88
18.86
18.39
25.01
35.05
42.30
41.35
30.65
13.54
-3.76
-15.58
-19.78
-18.67
-17.22
-19.86
-27.37
-36.53
-42.33
-41.16
-33.37
-23.14
-16.33
-16.49
-22.61
-29.72
-31.55
-24.36
-9.13
8.57
22.06
27.20
24.68
19.50
18.04
24.47
38.02
53.64
64.72
66.50
58.68
45.43
33.08
26.36
26.05
28.64
28.34
20.40
3.95
-17.25
-36.79
-48.66
-50.38
-44.06
-35.29
-29.66
-29.65
-33.32
-35.63
-31.73
-20.06
-3.92
10.69
18.32
17.36
11.03
5.38
5.57
12.53
22.56
29.31
27.42
15.62
-2.66
-20.95
-33.24
-36.95
-34.04
-29.75
-29.16
-34.20
-42.03
-46.85
-43.44
-30.35
-11.50
6.12
16.30
17.25
12.84
9.92
14.14
25.86
39.63
47.19
42.04
23.63
-2.68
-27.70
-43.28
-46.34
-39.17
-28.01
-18.83
-14.42
-13.02
-10.08
-1.71
13.11
30.96
45.89
52.65
49.36
38.82
26.41
17.27
13.25
11.71
8.16
-0.91
-14.70
-28.04
-34.10
-28.11
-11.08
10.77
28.67
35.60
29.98
15.30
-1.68
-14.61
-20.61
-20.19
-16.55
-12.72
-9.93
-7.13
-2.00
6.70
18.11
28.65
33.56
29.62
17.07
0.64
-12.57
-16.37
-8.69
6.63
22.24
30.69
28.61
18.25
5.44
-3.41
-5.43
-2.38
1.26
0.98
-4.26
-11.91
-17.12
-15.96
-8.25
2.78
11.72
14.09
8.85
-1.60
-12.45
-19.50
-21.45
-20.18
-19.91
-23.78
-31.87
-40.37
-43.40
-36.62
-19.52
3.08
23.42
34.49
33.29
22.67
8.97
-1.43
-5.39
-4.57
-2.99
-4.01
-7.83
-11.31
-10.54
-3.94
6.00
13.72
14.06
5.31
-8.72
-20.49
-22.62
-11.64
9.26
31.90
46.67
47.08
32.97
10.29
-11.75
-25.31
-27.14
-19.47
-8.25
0.64
4.12
2.85
0.32
-0.30
1.84
4.77
4.80
-0.45
-10.35
-20.61
-25.33
-20.34
-5.57
13.94
30.42
37.26
32.24
19.15
5.23
-2.62
-1.47
5.99
13.76
16.20
11.42
2.15
-6.33
-9.64
-7.29
-2.80
-1.15
-5.54
-14.49
-22.40
-22.60
-11.10
9.84
32.61
47.41
47.01
30.74
4.70
-21.08
-37.65
-41.09
-33.38
-20.80
-9.88
-4.22
-3.54
-4.63
-4.45
-2.24
0.09
-0.96
-7.48
-18.41
-29.30
-34.15
-28.66
-12.74
8.69
27.73
37.35
34.66
22.85
9.09
0.82
1.90
10.45
20.54
25.78
22.95
13.73
3.11
-3.97
-6.02
-5.75
-7.89
-15.71
-27.70
-37.77
-38.45
-25.14
-0.21
27.77
47.61
50.87
36.52
10.89
-15.28
-32.36
-36.18
-28.68
-16.21
-5.36
0.37
1.30
0.60
1.08
3.22
4.84
2.39
-6.03
-18.88
-31.26
-36.84
-31.44
-15.55
5.28
22.80
30.22
25.64
13.37
1.40
-2.77
3.93
18.25
32.61
39.31
34.44
20.07
2.79
-10.14
-14.64
-11.75
-6.25
-3.37
-5.30
-10.27
-14.14
-13.41
-8.12
-1.65
1.37
-1.83
-9.76
-17.03
-17.44
-7.42
11.04
30.98
43.56
42.22
26.42
1.92
-21.79
-36.20
-37.53
-27.88
-13.75
-2.00
3.21
1.86
-2.78
-6.81
-8.01
-6.77
-5.51
-6.63
-10.37
-14.40
-14.63
-7.81
6.00
22.67
35.55
39.04
31.78
18.02
5.40
0.94
7.09
20.22
32.76
37.38
31.08
16.74
1.68
-6.55
-4.20
6.73
19.31
25.77
21.46
7.25
-11.04
-26.17
-33.47
-32.94
-28.63
-25.42
-25.64
-27.84
-28.22
-23.89
-15.40
-6.79
-3.18
-7.30
-17.16
-26.40
-27.73
-17.07
3.59
26.30
40.95
40.11
23.23
-2.65
-26.31
-37.82
-33.45
-17.26
1.45
13.26
13.51
4.03
-8.42
-16.57
-16.35
-8.55
2.32
11.05
14.68
13.62
10.85
9.67
11.16
13.52
13.06
6.88
-4.56
-16.86
-23.41
-19.07
-3.47
17.91
36.26
43.92
38.42
24.12
9.69
3.65
9.81
25.10
41.22
49.11
43.68
26.43
4.64
-12.79
-19.88
-16.62
-8.35
-2.15
-2.58
-9.32
-18.08
-24.03
-25.34
-24.24
-25.14
-31.15
-41.02
-49.40
-49.80
-38.75
-18.42
3.79
19.01
21.43
11.49
-3.86
-15.04
-14.72
-1.82
17.54
33.38
37.01
25.77
4.78
-16.00
-26.95
-23.74
-9.38
8.08
20.08
22.22
15.97
7.02
1.55
2.62
8.98
16.26
19.70
17.04
9.26
0.04
-6.34
-7.52
-4.19
0.35
2.27
-0.37
-5.96
-10.10
-8.09
1.89
16.86
30.12
34.70
27.45
11.33
-5.80
-15.33
-12.43
0.94
17.24
27.41
25.59
12.22
-6.74
-23.39
-32.27
-32.87
-28.83
-25.05
-24.17
-25.37
-25.47
-21.75
-14.54
-7.30
-4.53
-8.85
-18.62
-27.97
-29.93
-19.97
0.71
25.12
43.37
47.14
34.23
9.84
-15.47
-30.99
-30.71
-15.97
5.53
24.01
32.32
28.87
17.50
4.56
-4.83
-9.06
-10.16
-11.46
-14.64
-18.43
-18.98
-12.71
0.81
17.56
30.62
33.87
25.51
10.01
-4.04
-8.18
1.47
21.41
42.60
54.95
52.37
35.93
13.01
-6.98
-17.31
-17.30
-11.64
-7.04
-8.00
-14.59
-23.14
-29.07
-30.17
-27.52
-24.19
-22.99
-23.99
-24.45
-20.78
-10.65
4.87
21.32
32.71
34.07
24.22
6.62
-11.56
-22.73
-22.10
-9.77
8.78
25.67
34.28
32.13
22.02
9.61
0.07
-4.75
-7.09
-10.71
-18.01
-27.52
-34.47
-33.82
-23.51
-6.74
9.54
18.30
16.00
5.21
-7.47
-14.84
-13.17
-4.45
5.82
11.54
9.79
2.26
-6.39
-11.14
-9.85
-4.16
1.81
3.62
-0.24
-7.80
-14.17
-14.08
-5.12
11.38
30.09
44.30
49.11
43.36
30.49
16.27
5.83
1.12
-0.01
-1.31
-5.63
-12.34
-17.53
-16.81
-7.96
6.53
20.49
27.26
22.99
9.47
-7.25
-19.73
-23.04
-17.65
-8.17
-1.00
-0.52
-7.09
-17.55
-27.19
-32.85
-34.36
-33.99
-34.90
-38.13
-41.72
-41.56
-33.53
-16.82
5.20
25.75
37.64
37.01
25.24
8.72
-4.44
-8.29
-1.59
11.47
24.39
31.84
32.28
28.39
24.60
23.91
25.78
26.30
21.18
8.82
-7.52
-20.94
-24.63
-15.54
2.79
22.01
33.03
30.45
15.73
-4.25
-20.77
-27.97
-25.65
-18.13
-11.56
-9.95
-13.30
-18.35
-20.84
-18.67
-13.00
-7.49
-6.36
-11.15
-19.81
-27.31
-28.07
-19.37
-2.60
16.60
31.14
36.05
30.64
19.12
7.87
2.29
4.13
10.60
16.98
19.24
16.49
11.05
6.54
5.37
7.00
8.33
5.89
-1.88
-12.67
-21.13
-21.55
-10.94
8.15
28.64
41.70
41.09
26.58
3.79
-18.38
-32.48
-35.83
-30.81
-23.03
-17.27
-14.93
-13.92
-10.47
-2.59
8.45
18.22
21.41
15.27
1.28
-14.80
-25.47
-25.14
-12.52
7.86
28.13
40.63
41.43
32.42
19.28
8.24
2.33
-0.16
-3.52
-11.42
-23.47
-34.75
-38.61
-30.52
-12.02
9.78
25.20
26.94
14.42
-6.55
-26.43
-37.13
-35.89
-25.46
-12.35
-2.48
1.76
2.13
2.97
7.58
16.12
25.11
29.10
24.40
11.19
-5.61
-18.50
-21.20
-11.48
6.86
26.19
38.71
40.20
32.31
20.64
11.38
7.38
6.63
4.46
-3.01
-15.33
-27.27
-31.81
-24.29
-6.31
14.59
28.50
28.13
13.29
-9.33
-29.47
-38.71
-34.84
-21.77
-7.29
1.69
2.59
-2.54
-8.71
-11.67
-10.33
-6.87
-5.35
-8.35
-15.24
-21.92
-22.92
-14.81
1.85
21.65
36.85
41.28
33.28
17.23
1.03
-7.84
-6.15
3.13
13.46
18.16
14.59
5.24
-4.34
-8.79
-6.52
-0.20
5.27
5.70
0.86
-5.77
-8.86
-4.53
6.67
20.39
30.09
30.68
21.21
4.95
-11.94
-23.85
-28.26
-26.46
-22.79
-21.18
-23.05
-26.06
-25.55
-17.88
-2.66
15.89
30.89
36.49
30.76
17.42
3.56
-4.01
-2.40
5.56
13.87
16.62
11.70
1.78
-7.90
-12.57
-11.19
-6.67
-3.77
-6.24
-13.73
-22.20
-25.81
-20.33
-6.03
12.69
28.77
35.96
31.86
18.48
1.57
-12.57
-20.08
-20.83
-18.40
-16.83
-18.44
-21.93
-23.24
-18.57
-6.69
9.21
23.15
29.42
25.66
14.67
2.21
-5.87
-7.07
-3.69
-0.35
-1.40
-7.40
-14.82
-17.94
-12.51
0.98
17.52
29.41
30.42
19.38
0.32
-19.01
-31.29
-33.21
-26.65
-17.32
-11.00
-10.49
-13.75
-15.61
-11.11
1.23
17.76
31.86
37.26
32.04
19.84
8.06
3.66
9.23
21.54
33.39
37.66
31.00
15.49
-2.81
-17.36
-24.42
-24.55
-21.44
-19.54
-21.03
-25.00
-28.43
-28.35
-23.75
-16.27
-9.19
-5.25
-5.03
-6.66
-6.80
-2.57
6.71
19.06
30.76
38.25
39.89
36.75
32.14
29.63
31.11
35.44
38.97
37.28
27.85
11.73
-6.75
-22.08
-30.25
-30.79
-26.73
-22.78
-22.53
-26.41
-31.77
-34.56
-31.88
-23.97
-13.90
-6.02
-2.91
-3.96
-5.68
-3.84
3.33
13.92
22.92
25.35
19.59
8.75
-0.54
-2.11
6.35
21.56
36.55
44.39
41.72
30.43
16.05
4.64
-0.46
0.04
2.37
1.92
-3.90
-14.46
-26.23
-34.83
-37.23
-33.40
-26.46
-20.90
-20.19
-24.57
-30.92
-34.50
-31.70
-22.70
-11.26
-2.76
-0.67
-4.35
-9.47
-10.73
-5.49
4.50
13.91
17.37
12.99
3.75
-3.85
-3.72
6.39
23.38
40.45
50.56
49.83
39.26
23.77
9.38
0.21
-3.19
-3.44
-4.59
-9.42
-17.76
-26.92
-33.31
-34.56
-31.13
-25.92
-22.61
-23.12
-26.47
-29.01
-26.58
-17.13
-2.20
13.51
24.69
28.30
25.17
19.75
17.18
20.37
28.00
35.02
35.51
26.02
7.98
-13.18
-30.45
-38.68
-37.22
-29.23
-20.04
-13.62
-10.49
-7.77
-1.20
11.61
29.63
47.86
59.81
60.87
50.57
33.17
15.15
2.22
-3.48
-4.06
-3.78
-6.29
-11.92
-17.81
-19.72
-14.85
-4.27
8.05
16.83
18.87
15.00
9.40
7.28
11.40
20.55
29.79
33.14
27.18
12.80
-4.70
-18.71
-24.82
-22.93
-17.46
-13.93
-15.99
-22.61
-28.80
-28.74
-19.36
-3.09
13.53
22.87
20.37
7.31
-10.43
-25.16
-31.56
-29.31
-22.61
-17.58
-18.36
-25.00
-33.04
-36.28
-30.38
-15.27
4.28
21.45
30.80
31.30
26.73
23.15
25.29
33.11
41.85
44.70
36.83
18.72
-3.97
-23.09
-32.36
-30.62
-22.15
-14.07
-12.13
-17.38
-25.79
-30.88
-27.84
-16.46
-1.68
9.62
12.53
7.20
-1.25
-5.87
-1.99
9.58
23.19
31.34
29.04
16.64
-0.56
-15.23
-22.08
-20.48
-14.44
-10.04
-11.87
-20.18
-30.71
-37.44
-36.00
-26.52
-13.66
-4.00
-1.94
-6.99
-14.20
-17.14
-11.90
0.56
14.71
24.27
25.86
20.97
14.98
13.77
20.39
32.80
45.44
52.29
50.02
40.10
27.96
20.32
21.17
29.73
40.88
47.56
44.79
32.13
14.11
-2.74
-13.27
-16.29
-14.83
-13.92
-17.44
-25.45
-34.59
-40.12
-38.90
-31.41
-21.40
-14.09
-12.84
-17.70
-25.26
-30.83
-31.05
-25.54
-17.45
-10.99
-9.22
-11.93
-15.97
-17.13
-12.58
-3.20
7.29
14.16
14.71
9.92
3.91
1.72
5.87
15.13
24.97
30.35
28.63
21.03
12.16
7.17
9.20
17.49
27.93
35.08
34.77
26.33
12.82
-0.41
-8.66
-10.09
-6.61
-2.97
-3.94
-11.43
-23.28
-34.35
-39.31
-35.74
-25.94
-15.52
-10.13
-11.99
-18.42
-23.43
-21.34
-10.53
5.30
19.21
24.81
20.19
8.94
-1.89
-6.05
-1.73
7.66
15.55
16.21
7.86
-6.48
-20.95
-30.30
-32.51
-29.46
-25.22
-23.58
-25.48
-28.75
-29.87
-26.30
-18.31
-8.87
-2.20
-0.91
-4.53
-9.66
-11.70
-7.48
3.06
16.58
28.53
35.54
37.35
36.87
38.46
45.22
56.72
68.80
75.52
72.16
57.88
36.63
15.10
-0.52
-7.46
-7.54
-5.73
-7.23
-14.41
-25.77
-36.93
-43.03
-41.49
-32.98
-21.08
-9.85
-1.76
3.49
8.47
15.98
26.86
38.57
46.46
46.20
36.75
21.66
7.70
1.24
4.51
14.05
22.29
21.58
8.63
-13.46
-36.79
-52.68
-56.25
-48.68
-36.25
-26.28
-22.82
-24.68
-26.66
-23.21
-12.20
3.27
16.81
22.59
19.01
9.87
2.18
1.92
10.37
23.33
33.52
34.69
25.15
8.41
-8.77
-20.21
-23.51
-20.89
-17.59
-18.34
-24.55
-33.02
-38.07
-34.95
-22.69
-5.36
10.39
18.61
17.60
10.83
4.58
4.30
10.98
20.71
27.00
24.46
12.29
-5.60
-22.32
-31.84
-32.11
-25.68
-18.24
-14.97
-17.83
-23.98
-27.73
-23.85
-10.76
7.66
24.33
32.42
29.16
17.68
4.94
-2.01
-0.29
7.18
13.50
11.73
-0.62
-20.38
-39.64
-50.08
-47.51
-33.34
-14.15
2.34
11.44
13.59
13.72
17.40
27.38
41.13
51.89
53.10
41.86
21.63
0.33
-13.80
-16.34
-9.50
0.22
5.66
3.35
-4.72
-13.12
-16.46
-13.05
-5.75
0.18
0.29
-5.69
-13.80
-17.99
-13.57
-0.52
16.66
30.57
34.63
26.44
8.73
-11.54
-26.73
-31.86
-26.52
-14.89
-2.65
5.86
10.12
12.95
17.75
26.29
36.44
43.45
42.90
33.45
18.44
4.13
-3.56
-2.25
5.12
12.75
14.85
9.05
-2.14
-13.49
-19.71
-18.90
-13.45
-8.36
-8.65
-15.73
-26.73
-35.51
-35.80
-25.11
-5.65
15.91
31.64
36.21
28.98
14.43
-0.75
-11.06
-14.56
-13.79
-12.87
-14.75
-18.93
-21.68
-18.75
-8.34
6.86
20.75
27.15
23.16
11.49
-1.16
-7.70
-4.43
6.22
17.53
22.14
16.02
0.84
-17.36
-31.71
-38.41
-38.35
-35.58
-34.29
-35.54
-36.62
-33.13
-22.06
-4.72
13.44
25.44
26.12
15.52
-1.10
-15.47
-20.17
-12.40
5.10
25.17
39.79
43.89
37.35
24.93
13.27
7.73
9.87
17.00
24.37
28.14
27.18
23.58
20.58
20.04
20.85
19.36
12.05
-1.87
-18.65
-31.62
-34.49
-25.04
-7.14
11.04
21.12
18.99
6.99
-7.26
-15.33
-12.48
-0.41
13.47
20.42
14.93
-2.11
-23.98
-41.97
-49.97
-47.43
-38.78
-30.41
-26.47
-27.12
-29.24
-29.08
-25.17
-19.03
-13.79
-11.98
-13.43
-14.77
-11.55
-0.58
17.63
38.43
54.63
59.40
49.97
29.13
4.75
-13.84
-19.96
-12.54
3.26
19.07
27.41
25.39
15.63
4.23
-2.93
-3.17
1.84
7.73
10.71
9.64
6.85
6.14
9.68
16.10
20.98
19.62
10.22
-3.99
-16.42
-20.59
-13.90
0.47
15.28
23.18
20.50
9.28
-3.95
-11.94
-10.53
-0.92
11.26
18.92
17.24
5.97
-10.91
-27.37
-38.71
-43.45
-43.21
-41.24
-39.41
-36.98
-31.26
-19.53
-2.07
16.95
30.83
33.31
22.48
2.19
-19.07
-32.19
-31.78
-18.40
1.45
19.25
28.50
27.46
19.53
10.36
4.45
2.79
2.78
0.82
-4.93
-12.68
-17.78
-15.66
-4.67
11.98
27.63
35.57
32.20
19.64
4.19
-6.80
-8.72
-2.38
7.40
14.18
13.62
5.44
-7.04
-18.90
-26.55
-29.21
-28.58
-27.53
-27.28
-26.61
-22.36
-11.50
5.91
26.25
42.96
49.61
43.40
26.52
5.95
-9.99
-15.43
-9.37
3.73
17.14
25.03
25.58
21.18
16.09
13.91
14.98
16.52
14.88
7.84
-3.03
-13.09
-16.94
-11.51
1.41
16.19
25.67
24.67
12.80
-6.03
-25.31
-39.52
-46.57
-47.77
-46.70
-45.84
-44.90
-40.69
-29.37
-9.93
14.56
36.92
49.24
46.96
31.29
9.31
-9.77
-19.01
-16.97
-8.21
0.49
3.88
1.50
-2.50
-2.66
4.32
16.56
28.04
31.76
23.63
5.39
-16.74
-34.73
-42.78
-40.37
-30.93
-20.19
-12.38
-8.18
-4.90
1.28
12.01
25.71
37.37
41.30
34.75
19.13
0.31
-14.43
-20.03
-15.88
-6.26
2.77
6.57
4.67
0.90
0.31
6.30
17.40
27.98
31.29
23.11
4.97
-16.87
-34.20
-41.09
-37.06
-26.07
-14.44
-6.98
-4.44
-4.08
-1.56
5.38
15.51
24.28
26.31
19.24
5.10
-9.59
-17.00
-12.03
5.08
27.87
47.02
54.58
47.86
30.65
10.50
-5.14
-12.99
-15.01
-16.03
-20.28
-28.07
-35.94
-38.92
-34.00
-22.77
-10.37
-3.13
-5.03
-15.38
-29.85
-42.49
-49.16
-48.90
-43.77
-37.21
-31.38
-26.72
-21.59
-14.19
-4.01
7.80
18.46
25.42
27.53
25.90
23.38
22.80
25.72
31.24
36.42
37.80
33.07
22.78
9.87
-1.30
-7.06
-6.50
-1.21
5.30
10.05
12.28
13.83
17.81
25.81
36.63
45.69
47.43
38.69
20.75
-0.36
-17.05
-23.84
-20.31
-11.19
-3.20
-1.25
-5.32
-10.84
-11.74
-4.36
9.74
24.90
34.07
32.92
22.31
7.45
-4.82
-9.83
-7.38
-1.37
2.50
0.19
-8.51
-19.49
-26.85
-26.25
-17.27
-4.18
6.82
10.64
6.74
-0.64
-4.90
-0.94
11.17
26.30
36.68
36.19
23.96
4.45
-14.76
-27.23
-31.00
-29.10
-27.43
-30.61
-39.21
-48.74
-52.55
-46.01
-29.34
-8.40
8.76
16.11
13.32
5.87
1.74
6.51
19.60
34.63
42.91
38.50
21.74
-1.18
-21.31
-31.71
-30.78
-22.40
-13.37
-9.28
-11.66
-17.05
-19.66
-15.00
-2.52
13.44
26.37
31.05
26.66
17.30
9.64
8.94
15.75
25.69
31.92
29.10
16.58
-1.44
-18.07
-27.56
-28.24
-23.00
-17.54
-16.73
-21.79
-29.27
-33.17
-28.42
-13.88
6.31
25.02
35.61
35.56
27.70
18.39
13.77
16.05
22.53
27.29
24.78
13.11
-5.07
-24.09
-38.51
-45.92
-47.84
-48.46
-51.69
-58.63
-66.46
-70.27
-65.96
-52.96
-35.37
-19.69
-11.71
-13.13
-20.88
-29.10
-32.77
-30.94
-27.17
-27.33
-35.98
-53.55
-75.97
-97.07
-111.94
-119.94
-124.44
-130.96
-143.27
-160.56
-176.91
-183.97
-175.54
-151.02
-116.65
-82.72
-58.65
-48.62
-49.67
-53.89
-52.47
-39.72
-15.09
18.35
56.25
95.75
135.90
177.03
218.81
258.99
293.98
319.88
334.29
337.06
330.45
317.88
302.75
287.23
271.89
256.10
238.89
219.84
199.48
179.14
160.23
143.64
129.31
116.25
103.00
88.29
71.49
52.79
33.29
13.74
-5.42
-24.11
-42.41
-60.21
-76.93
-91.42
-102.21
-107.96
-108.13
-103.09
-94.12
-82.86
-70.76
-58.63
-46.49
-33.89
-20.41
-6.31
7.40
19.20
27.84
32.93
35.57
37.98
42.60
50.87
62.46
75.26
86.10
92.02
90.71
81.95
66.23
44.89
20.38
-3.50
-22.03
-31.18
-29.58
-20.19
-9.16
-3.47
-7.61
-21.80
-42.34
-64.12
-83.76
-101.54
-121.67
-148.80
-184.82
-226.86
-267.94
-299.95
-317.29
-319.37
-306.58
-284.07
-258.02
-232.82
-209.67
-187.21
-163.60
-138.61
-114.03
-92.44
-76.17
-65.35
-58.18
-52.18
-45.80
-39.07
-33.66
-31.84
-35.21
-44.40
-58.49
-75.54
-93.49
-110.94
-127.35
-143.01
-158.35
-173.32
-187.30
-198.86
-206.12
-207.34
-202.24
-190.59
-172.65
-149.21
-121.33
-90.46
-58.14
-25.94
4.67
32.55
57.14
78.34
96.41
111.73
124.49
134.60
141.71
145.58
146.40
145.16
143.35
142.59
143.98
147.67
152.85
158.06
161.94
163.93
164.72
166.06
170.29
179.67
195.16
216.32
240.95
265.20
284.28
293.54
289.70
271.84
241.88
204.39
165.62
131.68
106.54
90.71
81.25
73.39
62.99
48.62
32.22
17.60
8.02
4.18
3.58
1.83
-4.74
-16.57
-30.68
-42.34
-47.91
-46.79
-41.43
-35.35
-30.57
-26.48
-20.59
-11.52
-1.22
5.04
1.47
-14.22
-38.73
-64.24
-82.36
-88.02
-81.67
-67.71
-51.37
-36.17
-23.28
-12.83
-5.23
-1.69
-3.37
-9.93
-18.81
-26.38
-29.74
-27.98
-22.40
-15.52
-9.90
-7.04
-7.14
-9.30
-12.21
-14.87
-16.62
-17.34
-17.06
-15.92
-14.27
-12.84
-12.80
-15.62
-22.30
-32.32
-43.32
-51.22
-51.91
-42.93
-24.80
-0.84
23.98
44.80
58.43
64.14
63.40
58.70
52.07
44.19
34.54
22.45
8.33
-5.72
-16.43
-20.99
-18.63
-11.26
-2.55
3.98
6.74
6.66
5.93
6.26
7.50
7.81
5.51
0.50
-5.42
-9.43
-9.57
-5.91
-0.59
3.54
4.57
2.47
-1.12
-4.11
-5.19
-4.39
-2.84
-1.83
-1.90
-2.72
-3.45
-3.44
-2.70
-1.90
-1.92
-3.25
-5.65
-8.16
-9.47
-8.55
-5.13
0.13
5.80
10.12
11.66
9.87
5.34
-0.33
-5.18
-7.72
-7.65
-5.98
-4.45
-4.55
-6.65
-9.75
-11.95
-11.45
-7.56
-1.14
5.75
10.73
12.18
9.85
4.96
-0.36
-4.01
-4.69
-2.32
2.17
7.43
12.31
16.32
19.50
22.17
24.58
26.55
27.58
27.56
27.30
28.54
32.84
40.02
47.48
51.48
49.86
44.50
41.23
46.65
63.29
86.11
103.36
102.02
75.11
26.55
-30.02
-77.71
-104.46
-107.81
-94.13
-73.32
-53.43
-38.05
-27.23
-20.24
-17.68
-21.65
-33.93
-54.17
-79.09
-103.41
-121.88
-131.17
-130.78
-122.53
-109.30
-93.30
-75.13
-53.83
-28.49
-0.29
26.63
46.27
53.38
46.31
28.03
4.61
-17.64
-34.77
-45.98
-52.64
-56.83
-59.93
-62.52
-64.59
-65.93
-66.43
-66.06
-64.81
-62.92
-61.00
-59.78
-59.66
-59.77
-57.56
-48.70
-28.02
8.56
61.61
126.33
192.69
247.69
279.43
280.87
251.69
197.66
128.53
55.88
-8.79
-55.41
-77.28
-73.25
-49.31
-17.91
5.96
9.95
-10.42
-50.17
-97.25
-137.52
-159.43
-156.82
-128.83
-78.80
-13.53
57.28
121.74
168.18
188.76
182.35
154.77
115.78
74.62
36.74
4.20
-21.55
-37.47
-39.63
-26.77
-3.18
21.95
39.74
47.59
51.62
62.63
88.05
125.59
162.88
184.30
180.41
153.44
115.66
82.14
63.15
60.67
70.50
86.54
104.11
119.73
129.13
126.39
106.10
67.57
17.57
-31.47
-67.24
-83.92
-84.49
-77.65
-71.88
-70.60
-71.76
-71.48
-68.16
-64.58
-66.36
-78.57
-102.92
-136.94
-175.06
-210.57
-236.88
-248.12
-239.96
-211.64
-167.52
-117.12
-72.10
-41.32
-26.43
-21.20
-14.93
1.10
28.22
59.33
83.13
90.76
81.33
62.09
43.81
34.44
34.79
39.65
42.18
38.57
30.08
20.67
13.31
7.69
0.90
-9.80
-24.18
-38.54
-47.85
-48.55
-40.70
-28.05
-16.24
-10.03
-11.01
-16.76
-21.94
-21.29
-12.43
2.59
18.38
29.37
32.78
29.95
24.84
21.30
20.73
21.72
21.75
19.46
15.77
13.05
13.61
18.09
25.17
32.27
36.67
36.24
29.85
17.69
1.56
-14.99
-27.48
-32.08
-27.55
-16.15
-3.05
5.71
5.85
-3.42
-19.05
-35.53
-46.93
-49.08
-40.77
-23.81
-2.18
19.72
38.42
52.32
61.99
69.20
75.93
82.88
89.05
91.82
88.02
74.93
51.36
18.01
-21.75
-61.74
-93.77
-110.20
-107.41
-88.37
-62.01
-38.97
-26.22
-24.11
-27.38
-29.93
-29.24
-27.35
-27.66
-30.72
-32.34
-26.28
-9.59
13.72
33.82
40.98
32.11
13.14
-4.18
-9.21
2.01
25.44
52.37
74.38
87.26
91.29
89.52
84.44
76.24
62.46
39.84
6.70
-35.20
-80.36
-121.00
-149.74
-161.89
-156.86
-137.88
-110.70
-81.57
-55.67
-36.16
-24.00
-18.34
-17.23
-18.61
-20.89
-23.56
-26.76
-30.17
-32.51
-31.56
-25.28
-13.50
0.89
12.32
14.23
2.23
-23.16
-55.58
-84.65
-99.99
-95.53
-71.89
-35.73
3.41
37.14
60.98
74.71
80.82
82.15
80.25
75.25
66.78
55.19
42.39
31.83
27.52
32.61
47.65
69.50
91.95
108.12
113.57
108.95
99.67
93.03
94.50
104.87
120.25
134.58
143.04
144.22
140.06
134.02
128.83
125.45
123.37
121.77
120.33
119.41
119.57
121.16
124.25
128.91
135.47
143.92
153.50
162.06
166.46
163.62
151.71
131.00
103.85
74.29
47.09
26.85
16.70
17.28
26.09
37.98
46.84
47.89
39.61
24.17
5.77
-11.80
-27.38
-42.99
-62.55
-89.58
-125.01
-166.19
-207.66
-242.76
-265.82
-273.75
-266.34
-245.96
-216.16
-180.99
-144.56
-110.71
-81.95
-58.26
-36.47
-11.23
21.89
63.02
106.46
142.90
164.52
169.92
165.55
162.16
168.42
185.75
207.73
224.41
228.52
219.48
202.71
185.54
172.35
162.60
152.07
136.55
114.72
88.88
63.61
43.07
29.17
21.11
15.88
9.46
-1.39
-17.74
-37.72
-56.85
-69.86
-73.12
-66.73
-54.85
-43.91
-39.50
-43.72
-54.44
-66.76
-75.83
-79.30
-78.18
-75.80
-75.88
-80.66
-90.04
-101.96
-113.39
-121.62
-125.20
-124.20
-119.95
-114.33
-108.97
-104.83
-102.51
-102.71
-106.18
-112.59
-119.37
-121.45
-112.96
-90.21
-54.46
-12.54
25.52
50.69
58.62
50.91
33.24
11.92
-9.02
-28.55
-47.35
-65.57
-81.80
-93.35
-97.82
-94.32
-83.74
-67.99
-48.99
-27.77
-4.18
22.54
52.91
86.49
121.61
155.74
186.16
210.80
228.81
240.63
247.51
250.82
251.55
250.00
245.93
238.90
228.72
215.69
200.57
184.37
167.96
151.91
136.34
121.06
105.78
90.32
74.72
59.23
44.25
30.12
17.10
5.31
-5.23
-14.55
-22.69
-29.66
-35.49
-40.25
-44.07
-47.12
-49.62
-51.82
-53.93
-56.13
-58.58
-61.39
-64.61
-68.29
-72.39
-76.81
-81.43
-86.03
-90.38
-94.19
-97.18
-99.00
-99.54
-98.60
-95.97
-91.40
-84.69
-75.73
-64.58
-51.50
-36.90
-21.61
-6.49
7.62
19.94
29.85
36.87
40.62
40.84
37.44
30.03
18.50
3.17
-15.35
-36.19
-58.38
-81.14
-103.85
-126.02
-148.72
-172.74
-198.34
-225.20
-252.63
-279.77
-306.12
-331.62
-356.31
-383.30
-414.92
-452.20
-494.77
-541.17
-589.09
-636.74
-682.66
-725.45
-768.45
-813.89
-862.61
-913.92
-966.20
-1016.80
-1064.27
-1108.39
-1150.41
-1199.60
-1265.41
-1355.07
-1470.91
-1608.87
-1757.78
-1905.01
-2040.05
-2115.55
-2102.29
-1986.08
-1769.43
-1469.31
-1111.83
-723.89
-331.19
45.68
392.78
696.39
949.69
1152.16
1308.24
1415.29
1482.79
1520.43
1535.51
1532.79
1509.97
1464.20
1393.65
1302.77
1195.76
1079.24
958.93
840.26
728.55
625.71
533.52
453.94
385.29
327.92
284.02
254.26
238.13
234.15
238.71
248.08
258.84
268.37
274.99
278.59
278.85
275.58
268.83
258.52
244.52
226.90
205.96
182.28
156.83
130.10
102.30
73.53
43.76
13.00
-18.76
-51.40
-84.56
-117.73
-150.40
-182.19
-212.68
-241.48
-268.33
-293.05
-315.57
-335.85
-353.92
-369.80
-383.18
-393.31
-398.96
-398.37
-389.31
-369.17
-335.20
-284.95
-216.68
-129.72
-24.95
95.16
226.52
363.53
499.48
626.99
738.69
827.91
889.41
919.91
918.37
886.10
826.76
745.89
650.26
547.11
443.37
345.03
256.56
180.78
118.92
70.57
34.14
7.23
-12.85
-28.69
-42.47
-55.74
-69.41
-83.73
-98.44
-112.83
-125.94
-136.83
-144.73
-149.01
-149.30
-145.42
-137.41
-125.61
-110.63
-93.23
-74.27
-54.65
-35.27
-16.94
-0.39
13.82
25.25
33.69
39.03
41.31
40.62
37.15
31.16
22.99
13.00
1.64
-10.65
-23.38
-35.99
-47.91
-58.57
-67.45
-74.13
-78.25
-79.59
-78.00
-73.52
-66.41
-57.05
-46.00
-33.90
-21.50
-9.54
1.25
10.25
17.01
21.21
22.63
21.16
16.81
9.75
0.33
-10.89
-23.23
-35.98
-48.50
-60.29
-71.02
-80.54
-88.79
-95.69
-101.13
-104.89
-106.70
-106.40
-104.09
-100.16
-95.19
-89.74
-84.14
-78.32
-71.85
-64.13
-54.79
-43.91
-32.13
-20.53
-10.10
-1.27
6.37
14.00
23.06
34.55
48.44
63.56
78.18
90.75
100.89
109.64
118.96
130.69
145.54
162.50
179.48
194.52
206.87
217.13
226.37
234.83
241.63
246.04
248.71
252.23
259.79
272.14
285.83
294.10
290.31
272.30
244.44
216.00
196.50
190.65
196.31
206.31
212.78
211.25
202.31
190.23
179.73
173.04
168.42
161.46
148.06
127.35
102.84
80.96
67.47
63.99
67.04
69.95
66.74
55.86
40.73
27.30
20.47
21.01
25.37
28.38
26.23
18.57
8.30
-0.52
-4.79
-3.67
1.31
7.32
11.93
14.17
14.85
15.66
17.76
21.05
24.31
26.29
27.02
28.07
31.60
38.69
48.24
57.24
62.51
62.63
58.70
53.40
49.03
45.83
41.88
34.51
22.27
5.99
-11.55
-27.25
-39.16
-47.14
-52.55
-57.17
-62.39
-68.92
-76.88
-86.14
-96.48
-107.49
-118.39
-127.72
-133.33
-132.89
-124.83
-109.46
-89.46
-69.40
-54.01
-46.23
-45.85
-49.81
-53.77
-54.40
-50.89
-44.84
-39.03
-35.62
-35.07
-36.20
-36.70
-34.42
-28.10
-17.88
-5.38
7.04
17.33
24.74
30.11
35.52
43.14
53.95
67.48
82.10
95.77
106.70
114.00
117.75
118.85
118.53
117.50
115.64
112.07
106.09
97.79
88.26
78.67
69.19
58.69
45.76
30.49
15.25
3.71
-1.99
-3.16
-4.20
-9.83
-21.04
-33.74
-40.92
-37.61
-24.41
-7.63
4.25
5.63
-3.78
-19.87
-38.01
-56.08
-75.06
-96.54
-119.46
-139.13
-149.22
-145.87
-130.63
-110.43
-94.09
-87.62
-91.29
-99.97
-106.19
-103.87
-90.84
-69.12
-43.59
-19.16
1.53
19.08
36.54
56.91
80.20
101.71
113.59
108.25
83.09
43.32
0.21
-33.70
-51.18
-53.33
-47.82
-43.48
-44.97
-50.62
-54.78
-52.04
-40.68
-23.58
-6.23
5.82
9.16
2.82
-12.52
-34.96
-61.05
-85.32
-100.67
-100.71
-83.48
-53.68
-21.61
2.00
11.46
9.10
3.18
1.65
6.40
12.06
10.53
-1.90
-20.58
-35.24
-37.16
-25.92
-10.21
-1.63
-6.56
-21.88
-37.87
-45.93
-44.41
-39.00
-37.33
-42.65
-51.73
-58.07
-57.35
-50.90
-44.37
-43.15
-48.49
-57.06
-64.09
-66.89
-66.36
-65.28
-65.54
-66.54
-66.17
-62.71
-56.14
-47.89
-39.04
-29.30
-17.40
-2.76
13.19
27.29
36.61
40.49
41.27
42.98
48.62
58.19
68.56
75.35
75.72
70.12
61.81
54.91
51.87
52.22
53.14
51.36
45.21
35.51
25.03
16.86
13.21
14.73
20.52
28.91
38.40
47.93
56.84
64.53
70.09
72.18
69.85
63.20
54.15
46.02
42.12
44.13
51.20
60.43
68.42
72.91
73.55
71.54
68.47
65.43
62.50
59.65
56.86
54.26
51.53
47.60
41.25
32.19
22.27
15.57
16.76
28.49
49.44
73.76
92.40
96.29
79.75
42.72
-8.66
-63.96
-111.93
-143.78
-155.66
-149.08
-129.58
-104.53
-80.62
-62.18
-50.42
-43.88
-39.63
-34.63
-27.41
-18.25
-8.96
-1.86
1.45
0.74
-2.64
-6.44
-8.51
-7.57
-3.57
2.42
8.81
14.30
18.27
20.96
23.07
25.11
27.06
28.42
28.60
27.36
24.92
21.74
18.10
13.83
8.62
2.52
-3.62
-8.40
-10.44
-9.10
-4.92
0.53
5.41
8.28
8.58
6.89
4.53
3.20
4.21
7.89
13.24
18.14
20.06
17.05
8.62
-4.09
-18.74
-32.84
-44.71
-53.81
-60.48
-65.16
-67.74
-67.58
-64.10
-57.43
-48.71
-39.63
-31.59
-24.96
-19.09
-12.77
-5.19
3.29
11.32
17.12
19.32
17.59
12.66
6.06
-0.48
-5.57
-8.50
-9.39
-9.00
-8.27
-7.86
-7.82
-7.73
-7.03
-5.59
-3.78
-2.32
-1.83
-2.47
-3.81
-5.08
-5.57
-4.97
-3.41
-1.28
1.13
3.70
6.54
9.77
13.32
16.75
19.37
20.55
19.97
17.89
14.99
12.17
10.19
9.43
9.94
11.51
13.85
16.69
19.77
22.77
25.27
26.75
26.65
24.62
20.73
15.59
10.32
6.20
4.11
4.16
5.54
6.91
7.14
5.84
3.57
1.42
0.25
0.06
-0.07
-1.45
-4.93
-10.32
-16.35
-21.28
-23.75
-23.47
-21.33
-18.85
-17.34
-17.17
-17.69
-17.80
-16.68
-14.46
-12.08
-10.64
-10.59
-11.41
-11.79
-10.61
-7.68
-3.97
-1.10
-0.36
-1.88
-4.61
-6.91
-7.44
-5.82
-2.49
1.65
5.70
9.10
11.56
12.93
13.23
12.59
11.17
9.07
6.23
2.39
-2.43
-7.60
-11.82
-13.49
-11.59
-6.42
0.33
6.17
9.01
8.22
4.77
0.59
-2.66
-4.45
-5.58
-7.36
-10.73
-15.41
-20.06
-23.08
-23.60
-21.91
-19.24
-16.86
-15.23
-13.83
-11.53
-7.44
-1.71
4.52
9.70
12.57
12.94
11.67
10.20
9.88
11.33
14.31
17.92
21.01
22.59
22.17
19.80
16.03
11.66
7.51
4.03
1.21
-1.38
-4.33
-7.99
-12.24
-16.51
-20.06
-22.45
-23.76
-24.54
-25.47
-26.91
-28.57
-29.67
-29.10
-25.99
-20.01
-11.68
-2.42
5.81
11.10
12.20
8.91
2.59
-4.27
-8.56
-7.57
-0.28
12.01
25.86
37.05
42.22
40.14
32.14
21.39
11.28
3.98
-0.50
-3.91
-8.48
-15.41
-23.76
-30.00
-28.55
-13.58
18.48
66.48
123.14
176.44
213.28
224.42
208.14
170.88
124.24
79.80
44.96
21.05
4.92
-7.60
-18.78
-27.94
-33.16
-33.42
-30.01
-26.29
-25.92
-30.93
-40.97
-53.49
-65.28
-73.87
-78.32
-79.01
-77.18
-74.05
-70.26
-65.82
-60.20
-52.84
-43.66
-33.43
-23.72
-16.47
-13.22
-14.33
-18.73
-24.23
-28.35
-29.38
-26.85
-21.55
-15.14
-9.38
-5.60
-4.45
-5.78
-8.78
-12.18
-14.55
-14.78
-12.57
-8.65
-4.40
-1.42
-0.61
-1.87
-4.14
-6.05
-6.63
-5.81
-4.33
-3.12
-2.76
-3.06
-3.27
-2.64
-0.93
1.34
3.16
3.68
2.67
0.76
-0.91
-1.29
-0.06
2.27
4.64
6.10
6.33
5.92
5.93
7.17
9.65
12.35
13.69
12.43
8.31
2.31
-3.92
-8.89
-11.91
-13.20
-13.52
-13.54
-13.46
-13.09
-12.21
-10.96
-9.88
-9.57
-10.20
-11.25
-11.74
-10.77
-8.11
-4.37
-0.71
1.77
2.58
2.05
1.01
0.34
0.47
1.28
2.23
2.88
3.08
2.93
2.59
2.10
1.33
0.11
-1.55
-3.42
-5.05
-5.93
-5.67
-4.08
-1.22
2.55
6.49
9.57
10.77
9.51
6.08
1.73
-1.71
-2.64
-0.41
4.27
9.69
13.79
15.09
13.29
9.26
4.60
0.83
-1.27
-1.83
-1.67
-1.72
-2.50
-3.86
-5.20
-5.84
-5.49
-4.31
-2.68
-0.83
1.22
3.50
5.69
6.84
5.74
1.63
-5.08
-12.60
-18.29
-19.80
-16.17
-8.41
0.81
8.32
11.72
10.31
5.27
-1.07
-6.30
-8.95
-8.84
-6.91
-4.43
-2.32
-0.71
0.87
3.02
5.92
9.14
11.80
13.04
12.40
10.01
6.54
2.83
-0.40
-2.84
-4.65
-6.29
-8.26
-10.61
-12.93
-14.43
-14.35
-12.44
-9.05
-4.95
-0.98
2.21
4.23
4.66
2.94
-1.44
-8.42
-16.92
-24.83
-29.67
-29.65
-24.55
-15.79
-5.84
2.92
9.04
12.25
13.23
12.94
12.22
11.62
11.50
12.12
13.63
15.95
18.65
20.99
22.05
21.07
17.71
12.26
5.69
-0.60
-5.28
-7.50
-7.19
-5.08
-2.33
-0.12
0.68
-0.22
-2.53
-5.46
-8.06
-9.57
-9.75
-8.98
-8.09
-7.89
-8.62
-9.77
-10.26
-9.14
-6.18
-2.10
1.77
4.15
4.41
2.79
0.19
-2.37
-4.11
-4.78
-4.60
-4.03
-3.45
-3.04
-2.66
-2.10
-1.25
-0.21
0.72
1.20
1.09
0.66
0.39
0.72
1.73
3.01
3.91
3.89
2.89
1.36
0.00
-0.67
-0.57
-0.02
0.45
0.49
0.10
-0.45
-0.76
-0.62
-0.13
0.32
0.33
-0.35
-1.57
-2.85
-3.60
-3.45
-2.48
-1.22
-0.41
-0.55
-1.63
-3.08
-4.11
-4.21
-3.46
-2.45
-1.94
-2.36
-3.55
-4.84
-5.43
-4.90
-3.48
-1.84
-0.76
-0.65
-1.29
-2.04
-2.25
-1.67
-0.66
0.05
-0.16
-1.40
-3.21
-4.80
-5.56
-5.40
-4.81
-4.52
-5.05
-6.41
-8.14
-9.61
-10.38
-10.40
-10.03
-9.72
-9.80
-10.27
-10.82
-11.02
-10.51
-9.18
-7.17
-4.77
-2.21
0.48
3.54
7.30
11.94
17.28
22.78
27.71
31.52
34.13
35.91
37.34
38.61
39.26
38.36
35.04
29.08
21.30
13.32
6.82
2.79
1.11
0.69
0.18
-1.29
-3.80
-6.68
-9.06
-10.43
-10.81
-10.65
-10.50
-10.63
-10.93
-10.99
-10.37
-8.90
-6.78
-4.56
-2.93
-2.43
-3.25
-5.18
-7.66
-9.98
-11.54
-12.05
-11.56
-10.40
-9.04
-7.79
-6.71
-5.57
-4.05
-1.95
0.54
2.85
4.29
4.40
3.19
1.27
-0.52
-1.43
-1.20
-0.09
1.40
2.67
3.30
2.96
1.40
-1.53
-5.71
-10.48
-14.64
-16.67
-15.40
-10.59
-3.25
4.56
10.60
13.38
12.80
10.10
7.01
4.77
3.38
1.79
-1.30
-6.37
-12.42
-17.28
-18.62
-15.13
-7.30
2.82
12.49
19.39
22.39
21.73
18.51
14.19
9.98
6.66
4.58
3.84
4.41
6.13
8.65
11.26
13.09
13.49
12.77
12.54
15.46
24.16
39.63
60.17
81.35
97.17
102.09
93.01
70.44
38.54
3.81
-26.96
-48.74
-59.72
-61.53
-58.19
-54.24
-52.91
-55.06
-59.38
-63.45
-64.94
-62.20
-54.44
-41.38
-23.48
-2.31
19.06
36.35
45.36
43.54
31.18
11.55
-10.08
-28.47
-40.05
-43.79
-40.96
-33.88
-24.66
-14.48
-3.78
6.95
16.31
21.93
21.44
14.01
1.50
-11.55
-19.34
-17.15
-3.38
19.49
45.38
66.37
75.00
66.74
41.79
5.42
-33.45
-65.02
-81.96
-81.64
-66.47
-42.27
-15.73
7.62
24.26
32.41
31.57
22.61
8.20
-6.99
-17.07
-16.89
-4.06
19.98
50.37
80.51
104.02
116.21
114.96
100.81
76.67
47.05
17.19
-8.29
-26.36
-36.22
-39.40
-39.41
-40.97
-48.62
-64.91
-88.47
-113.42
-130.83
-132.32
-114.25
-80.44
-41.43
-10.26
3.26
-2.89
-21.95
-41.61
-49.90
-40.84
-16.84
13.17
38.79
53.15
55.63
50.48
42.96
35.50
26.50
12.68
-7.13
-29.28
-46.16
-50.12
-38.20
-14.56
11.23
28.92
32.84
24.35
10.62
0.46
-0.14
9.27
23.81
35.73
37.43
24.08
-5.05
-46.58
-93.89
-138.69
-173.13
-191.54
-191.29
-172.57
-137.46
-89.24
-32.13
28.17
84.32
128.36
153.73
157.44
140.78
108.57
67.13
22.77
-18.93
-52.95
-74.83
-81.79
-73.79
-54.11
-28.15
-1.18
23.57
45.33
64.50
80.91
93.18
99.20
97.53
88.37
73.54
55.59
36.96
19.75
5.89
-3.10
-6.36
-4.38
0.84
6.37
9.53
9.09
5.60
0.73
-3.83
-7.04
-8.78
-9.29
-8.66
-6.73
-3.38
1.04
5.52
8.74
9.78
8.55
6.01
3.61
2.59
3.27
4.94
6.17
5.60
2.61
-2.33
-7.87
-12.37
-14.67
-14.53
-12.69
-10.32
-8.29
-6.77
-5.22
-2.84
0.79
5.46
10.39
14.54
17.07
17.53
15.88
12.45
7.85
2.99
-0.98
-2.88
-1.84
2.26
8.57
15.30
20.09
20.71
15.88
5.98
-6.80
-19.06
-27.32
-29.37
-25.22
-17.06
-8.35
-2.37
-1.00
-4.12
-10.01
-16.17
-20.31
-20.99
-17.85
-11.55
-3.55
4.32
10.38
13.65
14.20
13.18
12.42
13.54
17.16
22.42
27.22
29.07
25.97
17.41
4.67
-9.38
-21.09
-27.26
-26.30
-19.00
-8.39
1.38
6.69
5.95
0.15
-7.73
-14.20
-16.81
-15.08
-10.43
-5.08
-0.86
1.53
2.50
2.97
3.67
4.70
5.59
5.72
4.79
3.08
1.19
-0.24
-0.96
-1.27
-1.84
-3.34
-5.95
-9.16
-11.87
-12.85
-11.28
-7.18
-1.47
4.29
8.56
10.42
9.97
8.12
6.20
5.24
5.57
6.69
7.61
7.43
5.77
3.01
0.08
-2.05
-2.85
-2.42
-1.45
-0.74
-0.81
-1.70
-3.05
-4.39
-5.44
-6.06
-6.26
-6.02
-5.29
-4.13
-2.74
-1.45
-0.46
0.31
1.16
2.33
3.74
4.95
5.45
5.13
4.34
3.66
3.28
2.67
0.89
-2.46
-6.50
-9.14
-8.25
-3.24
4.15
10.65
13.41
12.08
9.59
10.36
17.47
29.98
42.81
49.29
44.96
30.48
11.22
-5.63
-14.77
-15.02
-8.64
0.83
11.05
21.79
33.91
47.55
60.97
70.92
74.29
69.75
58.38
43.08
27.24
13.44
2.87
-4.65
-10.22
-15.16
-20.41
-26.13
-31.52
-35.50
-37.21
-36.61
-34.51
-32.08
-30.28
-29.35
-28.82
-27.97
-26.49
-24.79
-23.69
-23.95
-25.66
-28.05
-29.87
-30.06
-28.21
-24.78
-20.74
-17.16
-14.83
-14.05
-14.58
-15.85
-17.14
-17.82
-17.61
-16.76
-15.92
-15.86
-17.20
-19.71
-22.51
-24.13
-23.17
-19.01
-12.20
-4.49
1.58
3.36
-1.19
-12.71
-30.08
-50.39
-69.71
-84.32
-92.01
-92.79
-88.78
-83.06
-78.21
-75.15
-72.83
-68.83
-60.38
-45.73
-24.84
0.36
26.52
49.71
66.66
75.81
77.37
73.33
66.21
58.26
50.88
44.55
39.31
35.14
32.07
30.08
28.87
27.81
26.20
23.62
20.21
16.66
13.96
12.93
13.82
16.11
18.67
20.24
19.99
17.90
14.75
11.79
10.09
10.16
11.75
14.05
16.06
16.96
16.25
13.85
9.99
5.16
0.06
-4.55
-8.02
-10.03
-10.73
-10.69
-10.58
-10.91
-11.72
-12.61
-12.92
-12.05
-9.72
-6.09
-1.67
2.92
7.12
10.60
13.34
15.47
17.21
18.78
20.40
22.32
24.79
27.99
31.92
36.36
40.88
44.92
47.90
49.28
48.66
45.84
40.91
34.25
26.45
18.18
9.90
1.75
-6.43
-14.82
-23.34
-31.40
-38.01
-42.12
-43.18
-41.35
-37.62
-33.42
-30.22
-29.04
-30.20
-33.35
-37.76
-42.62
-47.40
-51.87
-56.06
-59.99
-63.56
-66.60
-69.01
-70.87
-72.52
-74.29
-76.29
-78.15
-79.09
-78.19
-74.80
-68.88
-60.84
-51.28
-40.63
-29.42
-18.83
-11.53
-10.94
-19.64
-37.28
-59.18
-77.34
-83.41
-72.30
-44.30
-4.60
39.33
80.88
116.28
144.89
168.26
188.83
209.36
232.59
260.75
294.73
332.77
369.99
399.14
412.56
404.68
373.92
323.09
258.56
188.18
119.24
57.05
4.72
-36.76
-67.52
-88.31
-100.57
-106.60
-109.47
-112.45
-117.98
-126.71
-137.33
-147.24
-153.67
-154.98
-151.31
-144.49
-137.41
-132.93
-132.70
-136.44
-141.65
-144.31
-139.85
-124.60
-97.13
-59.04
-15.22
26.73
57.86
70.33
60.25
29.83
-12.39
-53.98
-83.05
-92.74
-83.42
-61.68
-36.65
-15.86
-2.83
2.76
3.04
-0.23
-6.44
-15.39
-26.02
-35.78
-41.38
-40.43
-32.84
-20.94
-8.32
1.64
7.22
8.70
7.84
6.86
7.36
9.81
13.52
17.13
19.24
19.00
16.24
11.50
5.69
-0.23
-5.51
-9.77
-13.01
-15.50
-17.60
-19.62
-21.73
-23.93
-26.03
-27.67
-28.43
-27.95
-26.08
-23.03
-19.25
-15.30
-11.58
-8.18
-4.93
-1.55
2.02
5.53
8.43
10.13
10.30
9.07
6.99
4.79
2.97
1.57
0.14
-1.97
-5.23
-9.55
-14.32
-18.71
-22.10
-24.32
-25.57
-26.07
-25.74
-24.16
-20.88
-15.77
-9.23
-2.12
4.69
10.73
16.23
21.94
28.71
36.91
46.14
55.27
62.89
67.94
70.02
69.52
67.17
63.56
58.83
52.70
44.88
35.56
25.58
16.14
8.29
2.44
-1.70
-4.81
-7.48
-9.97
-12.17
-13.77
-14.48
-14.13
-12.63
-9.94
-6.21
-1.76
2.86
6.99
10.05
11.60
11.36
9.16
4.95
-0.96
-7.88
-14.66
-20.13
-23.63
-25.31
-25.97
-26.64
-27.85
-29.35
-30.27
-29.62
-26.99
-22.79
-18.15
-14.47
-12.87
-13.71
-16.42
-19.61
-21.66
-21.41
-18.87
-15.40
-13.24
-14.54
-20.20
-29.24
-39.26
-47.45
-51.86
-52.07
-48.88
-43.60
-37.28
-30.43
-23.29
-16.23
-9.88
-4.90
-1.53
0.61
2.38
4.59
7.63
11.27
14.83
17.70
19.72
21.31
23.41
26.94
32.25
38.84
45.51
51.09
55.13
57.96
60.16
61.68
61.27
56.85
46.80
31.31
12.95
-4.11
-15.96
-20.73
-19.27
-14.50
-9.69
-6.88
-6.21
-6.29
-5.31
-2.05
3.60
10.80
18.17
24.35
28.40
29.66
27.82
22.91
15.37
6.13
-3.58
-12.62
-20.22
-26.06
-30.08
-32.12
-31.68
-28.09
-20.98
-10.83
0.96
12.41
21.70
27.76
30.35
29.82
26.60
20.99
13.22
3.79
-6.33
-15.74
-22.96
-26.89
-27.25
-24.76
-20.97
-17.68
-16.28
-17.26
-20.05
-23.42
-26.08
-27.38
-27.53
-27.34
-27.56
-28.38
-29.28
-29.38
-28.00
-25.11
-21.39
-17.84
-15.40
-14.48
-14.87
-15.77
-16.12
-14.86
-11.39
-5.75
1.28
8.48
14.49
18.41
20.00
19.76
18.59
17.38
16.60
16.17
15.60
14.27
11.76
8.15
4.00
0.26
-2.18
-2.79
-1.68
0.40
2.37
3.38
3.19
2.30
1.60
1.81
3.09
5.00
6.91
8.40
9.41
10.04
10.20
9.57
7.86
5.27
2.65
1.14
1.46
3.40
5.90
7.61
7.78
6.55
4.76
3.21
2.10
0.97
-0.88
-3.67
-6.75
-8.82
-8.61
-5.54
-0.06
6.61
13.05
18.23
21.78
23.78
24.44
23.82
21.91
18.85
15.15
11.60
8.88
7.13
5.80
3.99
1.05
-3.03
-7.54
-11.55
-14.45
-16.24
-17.44
-18.55
-19.71
-20.49
-20.27
-18.60
-15.50
-11.52
-7.41
-3.81
-0.96
1.29
3.31
5.39
7.53
9.39
10.48
10.43
9.38
7.93
7.03
7.51
9.59
12.72
15.71
17.25
16.43
13.18
8.19
2.57
-2.66
-6.94
-10.19
-12.53
-13.96
-14.24
-12.99
-10.06
-5.88
-1.36
2.37
4.58
5.24
4.95
4.43
4.01
3.44
2.15
-0.23
-3.42
-6.64
-9.02
-10.23
-10.69
-11.32
-12.92
-15.70
-19.15
-22.36
-24.54
-25.32
-24.85
-23.50
-21.64
-19.42
-16.83
-13.79
-10.31
-6.64
-3.18
-0.34
1.65
2.95
4.08
5.70
8.30
11.87
15.87
19.49
22.07
23.35
23.54
23.07
22.34
21.46
20.28
18.59
16.29
13.48
10.40
7.37
4.61
2.24
0.27
-1.36
-2.71
-3.77
-4.49
-4.76
-4.48
-3.65
-2.38
-0.87
0.63
1.87
2.67
2.92
2.65
2.00
1.29
0.83
0.82
1.22
1.74
2.02
1.83
1.19
0.30
-0.62
-1.54
-2.64
-4.15
-6.09
-8.19
-9.94
-10.84
-10.64
-9.48
-7.76
-5.97
-4.43
-3.26
-2.43
-1.84
-1.47
-1.38
-1.62
-2.26
-3.23
-4.37
-5.37
-5.81
-5.25
-3.45
-0.49
3.13
6.65
9.27
10.44
10.04
8.32
5.76
2.93
0.36
-1.47
-2.13
-1.38
0.73
3.73
6.82
9.24
10.59
11.13
11.59
12.72
14.84
17.58
20.11
21.59
21.66
20.52
18.80
17.10
15.68
14.38
12.84
10.74
7.97
4.64
0.93
-2.91
-6.67
-10.14
-13.10
-15.35
-16.71
-17.07
-16.40
-14.84
-12.75
-10.71
-9.37
-9.18
-10.14
-11.72
-13.17
-13.86
-13.60
-12.63
-11.31
-9.79
-7.90
-5.37
-2.16
1.25
3.98
5.15
4.41
2.09
-0.93
-3.62
-5.27
-5.68
-5.04
-3.68
-1.88
0.19
2.37
4.50
6.43
8.10
9.57
10.90
12.10
13.02
13.49
13.52
13.40
13.62
14.54
16.11
17.76
18.55
17.69
14.90
10.60
5.62
0.84
-3.22
-6.51
-9.28
-11.77
-14.03
-15.82
-16.82
-16.85
-16.00
-14.58
-13.07
-11.91
-11.35
-11.34
-11.57
-11.50
-10.62
-8.57
-5.43
-1.68
1.81
4.07
4.33
2.26
-1.97
-7.79
-14.43
-21.10
-27.06
-31.60
-34.17
-34.43
-32.42
-28.61
-23.76
-18.67
-13.94
-9.79
-6.03
-2.29
1.83
6.56
11.95
17.93
24.39
31.09
37.53
42.84
45.90
45.65
41.52
33.85
23.86
13.37
4.20
-2.38
-6.02
-7.28
-7.24
-7.08
-7.66
-9.37
-12.05
-15.25
-18.35
-20.78
-22.08
-21.94
-20.16
-16.66
-11.50
-5.01
2.18
9.22
15.22
19.44
21.42
21.06
18.55
14.22
8.51
1.93
-4.90
-11.24
-16.34
-19.59
-20.68
-19.76
-17.42
-14.55
-11.97
-10.18
-9.15
-8.35
-6.99
-4.27
0.40
7.23
16.00
25.90
35.50
43.01
46.69
45.53
39.64
30.41
19.89
10.08
2.17
-3.69
-7.99
-11.32
-13.87
-15.40
-15.56
-14.32
-12.11
-9.71
-7.83
-6.79
-6.39
-6.10
-5.35
-3.81
-1.46
1.44
4.56
7.61
10.32
12.41
13.52
13.27
11.39
7.89
3.08
-2.49
-8.19
-13.37
-17.49
-20.08
-20.79
-19.56
-16.72
-13.05
-9.56
-7.13
-6.10
-6.15
-6.46
-6.11
-4.47
-1.37
2.99
8.22
13.87
19.45
24.36
27.87
29.27
28.12
24.48
19.06
12.96
7.33
2.93
-0.12
-2.23
-4.05
-6.14
-8.75
-11.79
-14.90
-17.63
-19.52
-20.22
-19.62
-17.87
-15.46
-13.05
-11.23
-10.19
-9.57
-8.60
-6.60
-3.48
0.05
2.73
3.37
1.51
-2.34
-6.91
-10.84
-13.30
-14.22
-14.14
-13.62
-12.84
-11.52
-9.21
-5.76
-1.51
2.77
6.32
8.76
10.25
11.29
12.34
13.56
14.85
16.07
17.30
18.84
20.87
23.14
24.86
24.96
22.71
18.13
12.06
5.79
0.36
-3.78
-6.83
-9.30
-11.55
-13.58
-15.08
-15.72
-15.39
-14.25
-12.59
-10.74
-8.93
-7.33
-6.04
-5.10
-4.41
-3.76
-2.89
-1.65
-0.12
1.41
2.60
3.25
3.37
3.12
2.64
1.80
0.29
-2.17
-5.54
-9.30
-12.53
-14.31
-14.13
-12.14
-9.08
-5.87
-3.18
-1.16
0.52
2.30
4.39
6.54
8.33
9.47
10.17
11.16
13.21
16.57
20.58
23.78
24.63
22.29
17.17
10.74
4.86
0.85
-0.98
-1.32
-1.24
-1.58
-2.56
-3.82
-4.76
-4.95
-4.33
-3.26
-2.22
-1.53
-1.19
-0.86
-0.04
1.68
4.31
7.41
10.20
11.84
11.86
10.24
7.43
3.93
0.03
-4.32
-9.36
-15.10
-21.08
-26.28
-29.51
-29.90
-27.47
-23.19
-18.62
-15.13
-13.28
-12.56
-11.78
-9.88
-6.55
-2.35
1.79
5.37
8.72
12.73
18.06
24.27
29.64
31.94
29.62
22.90
13.84
5.48
0.39
-0.51
1.69
4.61
5.80
3.88
-1.00
-7.42
-13.56
-18.00
-20.14
-20.16
-18.54
-15.72
-11.92
-7.26
-2.01
3.23
7.59
10.16
10.35
8.19
4.30
-0.21
-4.13
-6.60
-7.42
-7.09
-6.57
-6.76
-7.94
-9.63
-10.85
-10.68
-8.79
-5.68
-2.35
0.27
1.85
2.76
3.80
5.63
8.36
11.51
14.37
16.47
17.83
18.90
20.09
21.37
22.23
21.90
19.93
16.49
12.41
8.74
6.15
4.60
3.38
1.63
-1.20
-5.03
-9.19
-12.85
-15.38
-16.57
-16.63
-16.04
-15.28
-14.69
-14.36
-14.09
-13.48
-12.15
-9.96
-7.11
-4.17
-1.77
-0.28
0.31
0.30
-0.04
-0.79
-2.33
-5.10
-9.13
-13.84
-18.12
-20.79
-21.17
-19.34
-16.07
-12.38
-9.02
-6.21
-3.64
-0.86
2.39
5.97
9.45
12.38
14.64
16.50
18.42
20.67
23.07
24.99
25.65
24.59
21.96
18.53
15.29
12.90
11.32
9.85
7.54
3.74
-1.42
-7.05
-11.84
-14.73
-15.34
-14.08
-11.87
-9.62
-7.80
-6.35
-4.85
-2.92
-0.51
2.00
4.01
4.96
4.65
3.31
1.50
-0.17
-1.31
-1.91
-2.24
-2.70
-3.47
-4.40
-5.05
-4.92
-3.72
-1.62
0.86
3.09
4.61
5.40
5.82
6.35
7.26
8.40
9.28
9.43
8.75
7.77
7.42
8.49
11.07
14.35
16.93
17.50
15.58
11.75
7.41
3.96
2.11
1.56
1.25
0.01
-2.71
-6.59
-10.62
-13.73
-15.29
-15.35
-14.51
-13.48
-12.69
-12.19
-11.83
-11.55
-11.48
-11.81
-12.56
-13.42
-13.82
-13.33
-11.91
-10.03
-8.44
-7.74
-8.07
-9.12
-10.27
-11.03
-11.21
-10.93
-10.47
-10.07
-9.80
-9.56
-9.17
-8.47
-7.37
-5.93
-4.24
-2.42
-0.55
1.35
3.37
5.71
8.59
12.11
16.21
20.48
24.20
26.54
26.85
25.00
21.55
17.55
14.12
11.95
10.99
10.54
9.70
7.87
5.10
1.98
-0.63
-2.15
-2.41
-1.73
-0.55
0.74
1.97
3.08
4.01
4.60
4.67
4.16
3.18
2.07
1.18
0.65
0.35
-0.08
-0.98
-2.42
-4.16
-5.71
-6.64
-6.81
-6.45
-6.07
-6.17
-6.99
-8.37
-9.85
-10.83
-10.93
-10.08
-8.53
-6.70
-5.01
-3.69
-2.75
-2.05
-1.35
-0.47
0.70
2.13
3.60
4.69
4.88
3.74
1.11
-2.72
-7.11
-11.21
-14.33
-16.08
-16.50
-15.98
-15.11
-14.46
-14.45
-15.24
-16.68
-18.30
-19.41
-19.35
-17.69
-14.41
-9.97
-5.13
-0.71
2.72
4.98
6.33
7.25
8.25
9.64
11.49
13.59
15.49
16.58
16.24
13.99
9.63
3.43
-3.89
-11.30
-17.74
-22.35
-24.72
-24.87
-23.21
-20.33
-16.83
-13.14
-9.48
-5.86
-2.19
1.53
5.16
8.43
11.13
13.29
15.27
17.51
20.30
23.43
26.22
27.72
27.27
24.80
21.00
16.92
13.55
11.39
10.24
9.48
8.47
6.94
5.11
3.56
2.83
3.06
3.93
4.78
5.07
4.67
3.99
3.74
4.56
6.63
9.53
12.45
14.49
15.11
14.28
12.43
10.22
8.20
6.67
5.57
4.61
3.38
1.54
-1.04
-4.32
-8.02
-11.78
-15.20
-17.89
-19.54
-19.95
-19.09
-17.16
-14.60
-11.97
-9.79
-8.36
-7.63
-7.09
-6.06
-3.93
-0.56
3.48
6.99
8.67
7.70
4.33
-0.17
-3.97
-5.56
-4.45
-1.31
2.43
5.33
6.59
6.27
5.03
3.60
2.40
1.37
0.19
-1.36
-3.15
-4.65
-5.26
-4.59
-2.74
-0.25
2.14
3.86
4.67
4.68
4.08
2.98
1.34
-0.93
-3.74
-6.79
-9.61
-11.81
-13.30
-14.28
-15.12
-16.12
-17.31
-18.39
-18.87
-18.28
-16.39
-13.33
-9.57
-5.71
-2.18
0.90
3.74
6.68
9.94
13.47
16.94
19.93
22.16
23.55
24.24
24.44
24.28
23.83
23.13
22.18
20.94
19.21
16.65
12.89
7.72
1.40
-5.36
-11.47
-15.88
-17.87
-17.32
-14.71
-10.89
-6.76
-3.02
-0.12
1.79
2.68
2.64
1.85
0.55
-0.95
-2.37
-3.54
-4.43
-5.18
-5.93
-6.75
-7.59
-8.34
-8.93
-9.42
-9.99
-10.77
-11.72
-12.61
-13.20
-13.37
-13.30
-13.37
-13.90
-14.92
-16.05
-16.67
-16.21
-14.49
-11.71
-8.36
-4.87
-1.39
2.14
5.89
9.81
13.56
16.61
18.47
18.97
18.36
17.19
15.94
14.79
13.53
11.73
9.14
5.93
2.71
0.26
-0.86
-0.59
0.68
2.36
4.04
5.62
7.20
8.82
10.29
11.20
11.23
10.33
8.84
7.25
5.89
4.74
3.46
1.72
-0.58
-3.18
-5.67
-7.74
-9.39
-10.86
-12.44
-14.26
-16.25
-18.26
-20.15
-21.90
-23.48
-24.76
-25.44
-25.19
-23.82
-21.46
-18.48
-15.24
-11.86
-8.07
-3.49
2.10
8.40
14.59
19.64
22.80
23.94
23.59
22.62
21.75
21.20
20.63
19.48
17.33
14.18
10.47
6.75
3.47
0.76
-1.48
-3.46
-5.23
-6.64
-7.35
-7.05
-5.64
-3.32
-0.60
2.02
4.18
5.92
7.49
9.16
10.88
12.23
12.58
11.47
8.91
5.45
1.93
-0.96
-2.92
-4.10
-4.89
-5.58
-6.18
-6.50
-6.29
-5.49
-4.22
-2.72
-1.20
0.27
1.76
3.41
5.39
7.80
10.52
13.19
15.13
15.62
14.23
11.19
7.43
4.27
2.72
2.91
3.91
4.19
2.41
-1.76
-7.53
-13.36
-17.81
-20.22
-20.87
-20.58
-20.16
-19.93
-19.71
-19.16
-18.11
-16.71
-15.22
-13.78
-12.19
-10.10
-7.24
-3.70
-0.07
2.84
4.28
3.94
2.07
-0.61
-3.18
-4.87
-5.32
-4.62
-3.24
-1.78
-0.74
-0.28
-0.25
-0.34
-0.22
0.25
1.03
1.98
2.99
4.11
5.51
7.35
9.66
12.19
14.47
16.00
16.50
16.04
15.01
13.91
12.99
12.17
11.13
9.52
7.26
4.59
1.89
-0.50
-2.48
-4.17
-5.67
-6.94
-7.71
-7.65
-6.52
-4.45
-1.85
0.68
2.64
3.78
4.15
3.96
3.44
2.62
1.43
-0.19
-2.12
-4.01
-5.38
-5.92
-5.62
-4.82
-4.06
-3.80
-4.18
-5.07
-6.19
-7.26
-8.14
-8.77
-9.14
-9.22
-8.94
-8.30
-7.38
-6.30
-5.16
-3.99
-2.71
-1.28
0.28
1.79
3.00
3.76
4.05
4.08
4.09
4.30
4.72
5.26
5.75
6.05
6.07
5.76
4.98
3.65
1.78
-0.31
-2.10
-2.98
-2.57
-0.95
1.35
3.53
4.94
5.37
5.14
4.86
5.06
5.81
6.67
6.91
6.01
3.99
1.48
-0.66
-1.83
-2.02
-1.84
-2.07
-3.17
-5.03
-7.03
-8.47
-9.00
-8.74
-8.21
-7.89
-7.92
-8.08
-7.93
-7.21
-5.97
-4.59
-3.53
-3.07
-3.15
-3.43
-3.50
-3.04
-2.02
-0.68
0.62
1.56
1.95
1.77
1.10
0.01
-1.42
-3.12
-4.99
-6.84
-8.44
-9.49
-9.74
-9.04
-7.41
-5.04
-2.30
0.37
2.54
3.95
4.63
4.87
5.09
5.65
6.63
7.82
8.90
9.56
9.64
9.20
8.32
7.07
5.41
3.34
0.94
-1.52
-3.73
-5.40
-6.37
-6.65
-6.38
-5.74
-4.88
-3.93
-3.01
-2.29
-1.95
-2.16
-2.92
-4.01
-4.99
-5.37
-4.83
-3.40
-1.54
0.10
0.95
0.81
-0.14
-1.44
-2.69
-3.76
-4.80
-6.08
-7.75
-9.67
-11.47
-12.66
-12.84
-11.86
-9.84
-7.05
-3.88
-0.70
2.25
4.84
7.15
9.33
11.60
14.05
16.64
19.14
21.23
22.60
23.05
22.47
20.86
18.28
14.91
10.99
6.86
2.89
-0.57
-3.25
-5.00
-5.86
-6.00
-5.69
-5.23
-4.75
-4.17
-3.16
-1.39
1.22
4.39
7.48
9.88
11.34
12.17
12.98
14.28
16.02
17.50
17.67
15.69
11.41
5.42
-1.24
-7.71
-13.61
-19.13
-24.62
-30.20
-35.46
-39.64
-41.90
-41.73
-39.10
-34.33
-27.83
-19.98
-11.23
-2.35
5.51
11.13
13.83
13.92
12.73
12.04
13.29
16.85
21.91
26.90
30.21
30.70
27.97
22.25
14.24
4.95
-4.46
-12.80
-19.16
-23.20
-25.25
-26.04
-26.29
-26.44
-26.49
-26.23
-25.55
-24.64
-23.84
-23.40
-23.02
-21.89
-19.07
-14.08
-7.33
-0.09
6.03
9.79
10.97
10.37
9.31
8.97
9.81
11.57
13.61
15.39
16.80
18.19
20.08
22.83
26.44
30.53
34.49
37.77
40.01
41.15
41.34
40.78
39.64
38.06
36.23
34.36
32.64
31.05
29.32
26.89
23.20
17.94
11.26
3.74
-3.80
-10.63
-16.30
-20.73
-24.11
-26.74
-28.84
-30.44
-31.44
-31.72
-31.32
-30.51
-29.73
-29.30
-29.22
-29.10
-28.35
-26.54
-23.67
-20.25
-17.08
-14.90
-14.06
-14.39
-15.45
-16.70
-17.75
-18.50
-19.05
-19.54
-20.01
-20.32
-20.17
-19.22
-17.24
-14.29
-10.72
-7.07
-3.82
-1.14
1.23
3.78
6.90
10.54
14.08
16.67
17.62
16.99
15.60
14.66
15.11
17.00
19.44
21.04
20.73
18.43
15.08
12.11
10.58
10.51
10.93
10.48
8.36
4.96
1.84
0.91
3.41
9.11
16.33
22.69
26.26
26.55
24.65
22.59
22.17
23.96
26.98
29.36
29.36
26.51
21.74
16.82
13.13
10.79
8.53
4.53
-2.25
-11.19
-20.10
-26.35
-28.32
-26.49
-23.29
-21.82
-24.19
-30.30
-37.90
-43.80
-45.63
-43.10
-38.12
-33.63
-31.93
-33.34
-36.13
-37.66
-36.01
-31.26
-25.47
-21.37
-20.72
-23.02
-25.73
-25.68
-20.95
-12.15
-2.19
5.31
8.06
6.48
3.47
2.74
6.67
14.85
24.18
30.64
31.52
27.01
20.09
14.80
13.98
17.64
23.07
26.48
25.23
19.40
11.68
5.76
4.26
7.25
12.36
16.35
17.02
14.52
11.12
9.62
11.63
16.46
21.44
23.60
21.46
15.94
9.90
6.49
7.33
11.66
16.78
19.61
18.41
13.56
7.26
2.10
-0.34
-0.20
0.90
1.03
-0.92
-4.65
-8.74
-11.73
-12.94
-12.86
-12.84
-14.06
-16.71
-19.77
-21.41
-20.12
-15.63
-9.14
-2.90
1.04
1.86
0.45
-1.00
-0.25
3.80
10.33
16.91
20.61
19.56
13.84
5.58
-2.12
-6.75
-7.53
-5.73
-3.83
-4.02
-6.89
-11.08
-14.06
-13.67
-9.38
-2.59
4.16
8.86
11.06
12.04
13.62
16.56
19.78
20.73
17.00
8.22
-3.32
-13.44
-18.23
-16.20
-9.16
-1.22
3.21
1.83
-4.67
-13.16
-19.90
-22.55
-21.09
-17.35
-13.71
-11.56
-10.68
-9.70
-7.15
-2.66
2.74
7.30
9.59
9.43
8.05
7.33
8.76
12.46
17.14
20.82
21.90
19.98
16.07
11.81
8.66
6.99
5.94
4.01
-0.10
-6.73
-14.97
-23.09
-29.20
-32.09
-31.55
-28.36
-23.75
-18.82
-14.08
-9.42
-4.34
1.50
7.93
14.17
19.20
22.30
23.58
23.90
24.50
26.29
29.25
32.45
34.47
34.19
31.39
26.71
21.27
16.02
11.26
6.68
1.78
-3.66
-9.25
-14.12
-17.41
-18.68
-18.22
-16.86
-15.66
-15.37
-16.09
-17.28
-18.08
-17.77
-16.04
-13.29
-10.30
-8.01
-7.07
-7.58
-9.20
-11.38
-13.58
-15.59
-17.50
-19.50
-21.76
-24.13
-26.20
-27.50
-27.63
-26.49
-24.32
-21.59
-18.90
-16.78
-15.60
-15.53
-16.45
-17.84
-18.93
-18.88
-17.21
-14.25
-11.16
-9.60
-10.91
-15.23
-21.22
-26.51
-28.79
-27.13
-22.62
-17.96
-16.17
-18.81
-24.96
-31.26
-33.09
-26.46
-9.37
17.55
51.11
86.30
116.91
136.80
141.52
130.12
106.36
78.36
56.10
47.76
56.05
76.76
100.23
115.38
114.43
96.06
65.60
32.24
4.39
-13.96
-24.41
-32.05
-41.57
-53.84
-65.42
-71.08
-67.96
-58.10
-47.34
-41.36
-41.80
-44.93
-44.63
-36.74
-22.36
-7.60
-0.06
-4.62
-21.08
-44.28
-66.52
-80.30
-80.33
-64.77
-35.62
1.50
38.66
67.94
83.96
85.84
76.78
62.17
46.99
34.27
25.37
20.81
20.79
25.08
32.40
40.63
47.84
53.53
58.58
64.65
72.50
80.89
87.03
87.73
81.03
67.01
47.23
23.75
-1.86
-28.72
-56.10
-82.91
-107.55
-128.44
-144.77
-156.59
-164.71
-170.19
-173.84
-175.87
-175.97
-173.61
-168.56
-161.00
-151.64
-141.42
-130.89
-120.25
-109.47
-98.60
-88.20
-79.11
-71.85
-66.26
-61.00
-54.17
-44.24
-30.94
-15.78
-1.41
9.38
14.88
14.86
10.09
1.50
-10.20
-24.35
-39.65
-54.15
-66.04
-74.93
-82.60
-92.22
-106.38
-124.73
-143.05
-154.47
-152.20
-132.85
-98.11
-54.21
-9.12
30.96
64.09
92.75
121.94
156.02
196.26
240.09
282.36
318.01
344.70
363.46
377.46
389.54
400.04
406.72
406.83
399.51
387.48
375.97
369.80
370.27
373.89
373.97
364.23
342.53
312.05
279.34
250.59
227.92
208.26
185.18
152.12
105.78
47.42
-18.02
-84.03
-144.71
-195.93
-235.56
-263.13
-279.81
-288.27
-292.35
-296.22
-302.84
-312.56
-322.73
-328.53
-324.99
-309.24
-281.82
-246.63
-209.49
-175.83
-149.17
-130.13
-116.81
-106.02
-94.83
-81.61
-66.46
-50.91
-36.86
-25.92
-18.60
-14.44
-12.31
-10.87
-9.21
-7.27
-6.31
-8.67
-16.96
-32.55
-54.44
-78.67
-99.49
-111.60
-112.21
-102.29
-85.80
-67.47
-50.91
-37.03
-24.88
-13.16
-1.92
6.88
10.44
6.76
-3.99
-19.54
-36.23
-50.51
-59.88
-63.37
-61.51
-56.31
-50.88
-48.35
-51.01
-58.95
-69.62
-78.92
-82.93
-79.57
-69.50
-55.26
-39.81
-25.21
-12.12
-0.38
9.90
17.95
22.31
21.75
16.01
6.35
-4.58
-13.67
-18.50
-18.32
-14.15
-8.31
-3.16
-0.14
0.83
0.89
1.77
4.83
10.70
19.48
30.87
44.46
59.84
76.40
93.29
109.55
124.24
136.59
146.36
153.70
159.03
162.93
165.73
167.42
167.77
166.28
162.36
155.74
146.33
134.24
119.68
102.91
84.29
64.65
45.12
26.90
10.83
-3.10
-15.57
-27.23
-37.89
-46.04
-49.15
-45.39
-35.16
-21.60
-9.96
-5.39
-10.89
-26.89
-51.28
-80.53
-110.45
-136.23
-152.58
-154.69
-139.59
-108.03
-65.55
-21.27
14.93
35.83
39.94
31.97
20.97
17.00
27.52
54.80
95.39
141.76
184.91
217.86
237.58
244.82
242.61
233.79
219.39
198.83
171.21
137.18
99.77
63.56
32.73
9.56
-6.23
-16.93
-25.23
-33.48
-43.38
-56.06
-72.19
-91.73
-112.91
-132.33
-145.50
-148.39
-139.22
-119.07
-91.37
-60.84
-32.07
-8.43
7.95
16.55
18.14
14.72
9.23
5.13
5.55
12.18
24.19
37.76
46.94
45.78
30.45
1.12
-38.14
-80.98
-121.27
-155.46
-183.35
-207.16
-229.92
-253.72
-278.58
-302.31
-320.77
-328.65
-321.33
-296.76
-256.66
-206.72
-154.12
-104.25
-58.35
-13.24
35.75
90.93
149.55
204.18
245.78
267.90
269.13
252.36
222.41
183.23
137.30
87.26
37.83
-3.47
-28.23
-31.01
-12.82
18.37
49.97
69.75
70.92
54.60
29.24
6.96
-1.70
8.01
33.30
65.08
91.66
103.26
95.45
70.55
36.45
3.62
-18.54
-24.70
-15.40
3.28
21.70
30.20
22.78
-0.64
-34.04
-67.36
-90.35
-96.01
-82.92
-55.40
-22.11
6.82
22.76
21.07
2.61
-26.67
-57.38
-79.70
-86.10
-72.96
-40.97
5.41
58.78
109.98
150.01
172.34
174.93
161.16
138.20
113.77
93.02
76.70
61.72
43.15
16.66
-19.83
-65.37
-115.98
-165.18
-205.07
-228.17
-229.45
-207.95
-166.98
-112.77
-52.70
6.09
57.31
96.01
118.95
125.73
119.22
104.85
88.59
74.44
62.42
48.86
28.49
-2.57
-43.97
-90.41
-133.19
-163.60
-176.47
-172.08
-155.44
-133.12
-109.32
-83.42
-50.89
-7.20
47.75
107.20
159.23
191.73
197.58
177.35
137.87
88.24
36.25
-12.76
-55.02
-87.09
-105.97
-110.92
-104.97
-94.24
-84.60
-77.63
-68.81
-50.03
-15.34
34.11
88.78
134.56
159.40
158.55
135.41
97.88
53.28
5.28
-45.33
-97.50
-146.71
-184.83
-202.97
-195.80
-164.64
-117.01
-63.04
-10.67
36.83
80.29
121.61
160.01
190.73
206.65
202.26
177.36
138.09
94.18
54.35
22.10
-5.10
-32.52
-63.17
-94.40
-118.87
-129.08
-122.31
-102.30
-77.00
-54.15
-37.26
-24.83
-12.19
5.03
28.25
55.38
82.03
103.37
115.71
117.70
109.91
93.81
70.49
39.91
1.63
-43.13
-89.49
-128.72
-150.66
-148.24
-120.68
-74.01
-18.01
37.63
85.72
122.07
144.52
152.28
146.01
128.29
102.89
72.80
38.68
-1.02
-47.48
-98.27
-146.02
-180.64
-193.65
-182.23
-150.20
-105.69
-57.32
-11.50
28.07
59.54
82.04
95.64
101.72
102.47
99.93
94.75
86.24
73.61
57.66
41.03
26.34
13.78
-0.08
-20.48
-50.46
-87.57
-123.79
-149.36
-158.17
-151.04
-134.93
-118.30
-105.79
-95.72
-81.64
-57.20
-20.83
22.42
63.12
92.26
105.61
105.16
97.13
88.01
81.11
75.77
68.90
58.27
44.64
31.83
24.03
22.30
22.92
19.17
6.01
-15.73
-38.56
-52.58
-52.01
-39.59
-25.44
-20.42
-28.62
-44.38
-56.16
-54.57
-38.93
-17.46
-1.21
3.52
-1.15
-7.65
-9.40
-5.76
-1.47
-1.65
-6.98
-13.02
-14.55
-10.76
-6.85
-10.20
-24.06
-44.12
-60.76
-65.46
-56.34
-38.77
-20.85
-7.68
1.28
9.82
20.36
30.79
35.86
31.54
18.75
3.30
-8.30
-13.70
-16.33
-22.47
-35.83
-54.09
-69.75
-74.94
-66.53
-48.01
-27.05
-10.77
-1.69
2.76
7.65
16.60
29.40
42.40
51.16
53.30
49.64
43.27
37.35
33.36
30.72
27.65
22.78
16.11
9.28
4.85
5.18
11.34
22.34
35.16
45.65
50.24
47.47
38.65
27.17
17.05
11.34
11.38
16.83
26.21
37.18
46.92
52.82
53.52
49.79
44.31
40.25
39.05
39.05
36.14
26.26
8.22
-15.21
-38.58
-56.37
-65.50
-66.29
-61.87
-56.67
-54.77
-58.31
-66.69
-76.54
-82.78
-80.69
-67.85
-45.32
-16.94
12.31
38.22
58.41
72.56
81.76
87.90
93.17
99.19
106.19
112.12
112.92
103.82
81.47
45.52
-0.55
-49.88
-93.82
-124.37
-136.89
-132.03
-115.64
-96.13
-80.67
-72.19
-69.10
-67.76
-65.75
-63.37
-62.17
-62.09
-59.48
-47.96
-22.09
18.78
68.80
117.39
153.11
167.93
159.81
132.88
95.60
57.31
24.99
0.55
-19.09
-39.30
-63.34
-89.19
-109.99
-118.14
-110.44
-90.98
-69.40
-55.50
-53.40
-58.96
-62.02
-51.86
-22.73
23.50
78.81
132.67
175.93
203.06
212.07
203.23
177.90
138.54
89.59
38.31
-5.86
-33.71
-39.84
-25.81
-0.75
21.42
27.09
8.52
-33.05
-88.08
-142.74
-184.35
-205.51
-205.11
-186.67
-155.20
-114.49
-66.21
-11.16
48.62
108.13
159.35
193.52
204.85
193.44
165.66
131.46
99.90
74.93
54.02
30.20
-3.14
-47.77
-98.86
-147.06
-183.01
-201.62
-204.01
-195.96
-184.19
-172.64
-160.58
-143.32
-114.86
-71.23
-13.04
53.92
119.87
174.05
208.25
219.11
208.55
182.21
147.09
109.51
74.28
44.50
21.42
3.98
-11.16
-28.45
-51.26
-79.35
-108.15
-130.39
-139.43
-132.29
-110.58
-78.60
-40.43
1.87
47.87
96.52
144.01
183.66
208.11
212.50
196.57
164.87
124.83
83.66
45.81
11.78
-20.75
-54.33
-89.27
-122.69
-149.81
-166.72
-172.55
-170.03
-163.67
-156.89
-150.03
-140.05
-122.08
-91.66
-47.04
9.70
72.46
132.12
178.43
202.55
200.35
174.43
133.33
88.14
47.96
17.17
-4.28
-17.89
-24.47
-23.83
-16.54
-5.67
3.19
4.03
-6.53
-27.62
-54.61
-81.26
-101.79
-112.00
-108.93
-90.38
-55.22
-4.84
55.52
117.29
170.45
206.74
221.86
216.36
194.69
162.72
125.29
84.85
41.66
-4.36
-51.32
-94.73
-129.10
-150.62
-159.59
-160.40
-159.35
-160.98
-165.61
-169.37
-166.09
-150.32
-119.47
-74.52
-19.68
38.28
90.99
129.83
147.96
142.66
116.87
78.98
40.23
10.85
-3.60
-4.06
2.87
7.88
2.87
-16.06
-47.30
-84.72
-120.11
-146.01
-157.83
-154.27
-136.42
-106.00
-64.70
-14.43
41.50
97.50
146.35
181.00
196.76
192.68
171.50
138.41
99.32
59.45
22.51
-9.49
-35.80
-56.27
-70.86
-79.57
-82.87
-82.14
-79.97
-79.47
-83.20
-91.77
-102.97
-112.06
-112.95
-100.08
-70.45
-25.25
29.63
84.69
129.14
154.33
156.39
137.39
104.17
65.56
29.58
1.80
-14.86
-19.62
-13.71
-0.58
14.20
24.19
24.46
13.82
-4.73
-25.76
-44.54
-59.14
-70.27
-79.02
-84.29
-82.20
-67.94
-39.13
1.61
46.54
85.44
109.42
114.19
101.19
76.32
47.44
21.27
1.27
-13.03
-24.68
-36.97
-51.14
-65.44
-76.27
-80.59
-78.14
-72.09
-67.39
-68.22
-75.56
-86.58
-95.94
-98.01
-88.46
-65.06
-27.77
21.22
77.08
132.22
177.08
202.57
203.11
179.13
137.40
88.78
44.41
11.95
-6.37
-13.30
-14.21
-14.28
-16.55
-21.52
-27.93
-34.17
-39.37
-43.85
-48.64
-54.57
-60.99
-65.48
-64.38
-54.20
-33.25
-2.75
33.34
69.53
100.53
122.46
133.06
131.49
117.69
92.27
56.51
12.87
-34.56
-79.98
-116.63
-138.33
-141.59
-127.32
-101.19
-72.06
-48.97
-37.96
-39.93
-50.87
-63.60
-70.45
-65.13
-44.04
-6.90
42.70
97.15
145.77
177.48
184.59
165.91
127.61
80.71
36.80
4.02
-14.83
-21.56
-20.40
-15.79
-11.24
-9.15
-10.98
-17.41
-28.36
-43.28
-61.41
-81.84
-102.94
-121.68
-133.43
-132.89
-116.15
-82.75
-36.58
15.31
65.08
106.39
135.46
150.66
151.63
138.93
114.20
80.28
40.95
0.35
-37.77
-70.21
-94.26
-107.83
-110.02
-102.04
-87.71
-72.67
-62.73
-61.43
-68.41
-79.38
-87.60
-86.11
-69.64
-36.17
12.50
70.48
128.56
175.94
202.84
203.33
177.37
131.10
75.21
21.96
-18.43
-40.44
-44.44
-36.00
-23.49
-14.82
-14.68
-23.20
-36.64
-49.69
-58.24
-61.14
-60.12
-57.99
-56.63
-55.59
-52.24
-43.22
-26.21
-1.10
30.05
63.79
96.31
124.03
143.61
152.12
147.55
129.33
98.83
59.29
15.37
-27.68
-64.79
-91.90
-106.76
-109.56
-103.18
-92.48
-82.85
-78.49
-80.74
-87.58
-94.34
-95.09
-84.28
-58.19
-16.10
38.84
99.45
155.57
196.35
213.30
202.84
167.44
114.76
55.77
1.76
-38.35
-59.98
-63.63
-54.16
-38.78
-24.36
-15.15
-12.03
-13.40
-17.32
-23.19
-32.11
-45.12
-60.98
-75.08
-80.54
-71.37
-45.82
-8.09
32.77
66.33
84.90
86.34
74.01
54.34
33.52
15.01
-1.02
-16.35
-32.60
-49.59
-64.97
-75.37
-78.15
-73.05
-62.51
-50.67
-41.59
-37.55
-38.55
-42.95
-48.80
-54.59
-59.03
-60.00
-53.87
-36.13
-3.69
42.47
95.78
145.22
178.82
187.99
170.62
131.60
80.91
30.06
-11.22
-37.22
-46.87
-43.20
-31.91
-19.61
-11.98
-12.17
-20.13
-33.25
-47.90
-61.33
-72.48
-81.67
-89.10
-93.47
-91.73
-79.96
-55.37
-18.11
27.76
75.13
116.23
145.21
159.96
162.03
154.85
141.36
122.29
96.24
61.62
19.32
-25.91
-66.51
-95.24
-108.61
-108.37
-100.25
-90.86
-84.61
-82.36
-82.06
-80.31
-73.88
-60.74
-40.52
-14.55
14.11
41.04
61.46
71.80
71.22
62.09
48.94
36.57
28.09
24.25
23.84
24.59
24.11
20.33
11.79
-2.01
-20.12
-39.96
-57.99
-70.94
-77.18
-77.53
-74.80
-72.25
-71.82
-73.10
-73.60
-70.05
-59.69
-41.02
-13.72
21.32
61.86
104.04
142.45
171.30
186.03
184.94
169.65
144.10
112.45
77.35
39.82
0.56
-38.28
-72.54
-97.17
-108.66
-107.06
-96.33
-82.81
-72.55
-68.82
-70.95
-74.95
-75.11
-66.28
-45.66
-13.66
25.94
66.67
100.64
120.58
121.92
104.62
73.42
36.34
2.01
-23.24
-37.07
-40.95
-38.29
-32.47
-25.86
-20.09
-16.76
-17.73
-24.32
-36.01
-50.07
-62.44
-69.70
-70.91
-67.82
-63.38
-59.72
-56.63
-51.31
-39.59
-17.94
14.70
55.79
99.51
138.38
165.53
176.77
171.62
152.71
124.03
89.19
50.58
10.17
-29.37
-64.01
-89.19
-101.73
-101.63
-92.35
-79.39
-68.27
-62.51
-62.94
-67.92
-73.94
-76.49
-70.83
-52.97
-21.15
22.89
73.47
122.06
159.61
179.47
179.07
160.12
127.47
87.26
45.40
6.60
-26.06
-51.15
-68.60
-79.23
-84.26
-84.83
-81.86
-76.18
-68.78
-61.04
-54.58
-50.75
-50.23
-52.66
-56.59
-59.66
-59.07
-52.17
-37.31
-14.29
15.37
49.01
83.49
115.80
143.03
162.09
169.55
162.07
137.60
96.89
44.57
-11.33
-61.34
-97.56
-116.35
-119.37
-112.44
-102.80
-96.20
-95.00
-97.99
-101.65
-101.65
-93.96
-75.42
-44.19
-0.71
51.05
103.03
144.55
165.80
161.85
135.06
94.33
51.39
16.18
-6.22
-15.75
-15.43
-8.90
0.67
10.43
17.28
18.07
10.98
-3.16
-20.61
-36.17
-45.41
-46.46
-40.31
-29.62
-17.21
-5.19
5.06
12.68
17.27
19.38
20.78
24.05
31.20
42.05
53.58
60.67
58.12
43.06
16.58
-16.33
-48.37
-72.56
-84.79
-85.03
-76.95
-66.15
-57.90
-55.37
-58.95
-66.52
-74.21
-77.37
-71.49
-53.41
-22.53
18.10
61.74
99.34
122.21
125.20
108.80
78.91
44.59
14.65
-5.26
-13.85
-13.49
-8.41
-2.79
0.44
0.18
-3.12
-7.97
-12.63
-15.96
-17.70
-18.33
-18.43
-18.05
-16.52
-12.91
-6.82
0.98
8.73
14.68
18.20
20.38
23.46
29.37
38.25
47.91
54.51
54.09
43.96
23.67
-4.66
-36.64
-66.52
-88.69
-99.34
-97.82
-87.06
-72.65
-60.97
-56.68
-60.87
-70.67
-80.25
-82.92
-73.19
-48.29
-8.93
40.53
92.80
139.04
171.05
183.72
176.56
153.75
122.51
90.37
62.44
39.83
20.06
-0.75
-25.07
-51.92
-77.03
-94.92
-101.90
-98.38
-88.88
-79.97
-76.97
-81.11
-88.93
-94.18
-90.62
-74.71
-46.40
-8.59
34.31
77.69
117.42
149.80
171.60
180.27
174.64
155.28
124.51
85.92
43.99
3.45
-31.22
-56.64
-71.45
-76.90
-76.43
-74.52
-74.82
-78.80
-85.25
-90.86
-91.44
-83.41
-64.97
-36.73
-1.66
34.97
66.57
86.74
91.56
81.29
60.90
38.06
20.11
10.81
9.07
10.17
8.82
2.49
-7.17
-15.67
-18.53
-14.39
-5.94
1.63
3.63
-1.52
-11.53
-21.91
-28.41
-29.08
-24.81
-18.09
-11.25
-5.17
0.95
8.60
18.73
30.69
42.22
50.53
53.48
50.70
43.60
34.29
24.40
14.09
2.53
-10.74
-24.80
-37.27
-45.64
-49.06
-49.13
-49.19
-52.45
-59.88
-69.53
-77.17
-78.04
-68.65
-48.24
-18.98
14.33
45.64
69.19
81.43
82.13
74.52
63.79
54.91
50.65
50.72
52.16
50.81
43.02
27.29
5.05
-19.63
-41.56
-56.40
-62.44
-60.96
-55.17
-48.36
-42.44
-37.58
-33.06
-28.38
-23.70
-19.38
-15.20
-10.04
-2.53
7.81
19.95
31.58
40.34
44.93
45.48
43.30
40.07
36.99
34.31
31.13
25.91
17.36
5.52
-7.88
-19.87
-27.76
-30.64
-29.88
-28.23
-28.06
-29.81
-31.76
-31.21
-26.23
-16.90
-5.25
5.90
14.36
19.37
21.49
21.79
21.19
20.16
18.73
16.83
14.51
12.09
9.96
8.32
6.66
3.84
-1.53
-10.06
-20.76
-30.95
-37.30
-37.33
-30.94
-20.61
-10.24
-3.41
-1.70
-4.28
-8.60
-11.91
-12.43
-10.02
-5.76
-1.20
2.45
4.74
6.02
7.06
8.67
11.24
14.51
17.73
20.00
20.71
19.80
17.70
14.82
11.16
6.22
-0.57
-9.03
-17.86
-25.01
-28.69
-28.56
-26.05
-23.55
-22.86
-23.96
-24.86
-22.97
-16.84
-7.27
3.03
10.94
14.72
14.80
13.22
12.18
12.67
14.09
14.87
13.58
9.86
4.53
-0.88
-4.98
-7.10
-7.43
-6.79
-6.19
-6.38
-7.65
-9.77
-12.20
-14.42
-16.17
-17.66
-19.55
-22.59
-27.14
-32.73
-37.92
-40.57
-38.54
-30.46
-16.38
2.16
22.58
42.07
58.20
69.19
73.97
72.09
63.91
50.85
35.44
20.73
9.26
2.20
-0.96
-1.79
-2.14
-3.35
-6.16
-10.91
-17.82
-26.86
-37.52
-48.55
-58.10
-64.04
-64.38
-57.64
-43.19
-21.61
4.93
32.85
57.77
75.64
83.81
81.69
70.45
52.55
30.99
9.04
-10.11
-23.79
-30.48
-30.29
-24.97
-17.19
-9.54
-3.77
-0.64
-0.10
-1.76
-4.98
-8.97
-12.79
-15.55
-16.62
-15.63
-12.39
-6.88
0.69
9.62
18.87
27.44
34.90
41.70
48.70
56.16
62.98
66.72
64.78
55.79
40.50
21.47
1.83
-15.84
-30.08
-40.24
-46.10
-47.67
-45.53
-41.09
-36.30
-32.92
-31.60
-31.69
-31.68
-30.14
-26.27
-20.14
-12.35
-3.75
4.64
11.66
16.13
17.32
15.33
11.18
6.32
2.09
-0.72
-2.02
-2.35
-2.76
-4.56
-8.88
-16.02
-25.13
-34.31
-41.31
-44.60
-44.10
-41.21
-38.16
-37.03
-38.80
-42.82
-47.04
-48.77
-45.52
-35.77
-19.07
4.15
32.89
65.67
100.09
132.23
156.50
166.59
157.66
128.88
84.78
34.39
-11.87
-45.88
-64.35
-68.90
-64.04
-54.64
-44.18
-34.60
-26.93
-22.20
-21.44
-25.15
-32.57
-41.57
-49.05
-51.78
-47.37
-35.13
-16.34
5.80
27.04
43.53
53.23
56.55
55.82
53.61
51.22
48.04
42.37
33.02
20.57
7.40
-3.52
-10.13
-12.26
-11.55
-10.47
-11.21
-14.90
-21.27
-28.91
-35.94
-40.68
-42.11
-39.86
-33.97
-24.77
-12.91
0.43
13.53
24.61
32.70
38.31
43.44
50.41
60.14
70.91
78.42
77.59
64.97
40.81
9.20
-23.26
-50.00
-66.62
-72.07
-68.54
-60.16
-51.31
-45.12
-42.76
-43.71
-46.69
-50.51
-54.26
-56.81
-56.21
-49.78
-35.29
-12.61
15.31
42.95
64.26
75.17
75.18
67.06
55.00
42.57
31.59
22.37
14.63
8.28
3.47
0.19
-2.08
-4.11
-6.56
-9.53
-12.70
-15.73
-18.52
-21.33
-24.53
-28.09
-31.24
-32.48
-30.03
-22.61
-10.12
6.07
23.47
39.43
52.24
61.68
68.67
74.03
77.26
76.50
69.54
55.51
35.83
13.75
-7.13
-24.42
-37.42
-46.55
-52.29
-54.80
-54.21
-51.23
-47.39
-44.64
-44.29
-46.39
-49.71
-52.39
-52.64
-49.10
-40.93
-27.90
-10.72
8.81
28.02
44.15
55.43
61.43
62.73
60.12
53.90
44.11
31.10
16.10
1.14
-11.60
-20.58
-25.39
-26.58
-25.24
-22.55
-19.54
-17.09
-15.86
-16.12
-17.69
-19.92
-21.76
-22.04
-19.57
-13.55
-3.74
9.27
24.10
39.05
52.81
64.93
75.57
84.49
90.13
89.54
79.67
59.26
30.26
-2.29
-31.90
-53.09
-63.23
-63.09
-55.96
-45.99
-36.71
-30.21
-27.00
-26.65
-28.34
-31.29
-34.73
-37.58
-38.24
-34.86
-26.10
-12.15
4.78
21.02
32.85
38.22
37.48
32.93
27.37
22.59
18.83
15.18
10.50
4.26
-3.30
-11.37
-18.94
-25.10
-29.23
-31.22
-31.52
-31.02
-30.59
-30.68
-31.11
-31.38
-31.08
-30.24
-29.12
-27.72
-25.31
-20.45
-11.55
2.16
20.12
40.44
60.39
77.00
87.53
89.84
82.90
67.27
45.40
21.24
-0.86
-17.50
-27.12
-30.15
-28.21
-23.34
-17.39
-11.97
-8.41
-7.73
-10.19
-14.95
-19.98
-22.70
-21.04
-14.34
-3.74
8.23
18.54
24.67
25.47
21.34
13.95
5.62
-1.55
-6.28
-8.35
-8.34
-7.05
-5.15
-3.08
-1.24
-0.12
-0.18
-1.46
-3.42
-4.97
-5.04
-3.21
-0.09
2.80
3.77
1.75
-3.07
-9.17
-14.27
-16.25
-14.07
-8.22
-0.61
6.27
10.35
10.91
8.92
6.51
5.93
8.30
13.08
18.34
21.72
21.57
17.44
10.08
0.85
-8.65
-16.79
-21.92
-22.70
-18.71
-11.08
-2.46
3.94
5.88
3.26
-1.69
-5.69
-6.07
-2.20
4.43
11.15
15.58
16.59
14.42
10.17
5.08
0.12
-4.06
-7.01
-8.40
-8.15
-6.48
-4.07
-1.93
-1.26
-2.98
-7.21
-13.02
-18.61
-22.09
-22.34
-19.59
-15.22
-11.00
-8.18
-6.89
-6.40
-5.66
-3.98
-1.15
2.70
7.33
12.45
17.47
21.39
23.00
21.43
16.68
9.83
2.63
-3.06
-6.02
-5.91
-3.41
-0.01
2.52
2.79
0.46
-3.41
-6.68
-7.22
-4.16
1.28
6.34
8.11
5.37
-0.66
-6.99
-10.68
-10.54
-7.55
-3.77
-0.63
2.06
5.68
11.22
17.99
23.48
24.78
20.67
12.65
4.40
-0.29
0.16
4.32
8.63
9.67
6.21
-0.19
-6.39
-9.67
-9.42
-7.36
-6.46
-9.05
-15.36
-23.41
-30.06
-32.66
-30.42
-24.70
-18.16
-13.36
-11.54
-12.12
-13.28
-13.06
-10.49
-6.15
-1.69
1.24
2.02
1.51
1.58
4.10
9.91
18.25
26.99
33.49
35.74
33.26
27.39
20.82
16.52
16.33
20.04
25.36
28.97
28.13
22.05
12.38
2.27
-5.27
-8.76
-8.71
-7.01
-5.59
-5.56
-6.93
-8.93
-10.92
-12.79
-14.86
-17.40
-20.08
-22.21
-23.17
-22.80
-21.33
-19.19
-16.70
-14.01
-11.18
-8.39
-6.00
-4.48
-4.38
-6.19
-10.28
-16.73
-25.20
-34.83
-44.23
-51.65
-55.27
-53.61
-45.86
-32.18
-13.74
7.15
27.06
42.31
49.96
49.16
41.53
30.67
20.70
14.47
12.66
13.82
15.64
16.34
15.44
13.75
12.50
12.44
13.62
15.52
17.54
19.20
20.10
19.83
18.01
14.40
9.20
3.19
-2.44
-6.32
-7.26
-4.68
1.25
9.56
18.69
26.67
31.56
31.90
27.16
17.98
6.01
-6.57
-17.61
-25.42
-29.16
-28.97
-25.92
-21.66
-17.87
-15.75
-15.77
-17.60
-20.34
-22.92
-24.43
-24.44
-23.15
-21.40
-20.21
-20.35
-21.87
-24.04
-25.47
-24.73
-21.01
-14.50
-6.42
1.65
8.37
13.18
16.23
17.95
18.28
17.18
15.10
13.63
15.36
22.38
35.31
52.82
72.65
93.15
114.01
135.24
155.32
170.12
173.79
161.21
130.55
84.39
28.91
-27.97
-78.22
-114.89
-133.01
-131.14
-112.42
-84.24
-55.73
-34.07
-21.81
-16.75
-14.36
-10.54
-3.71
6.00
18.15
32.78
49.76
66.81
78.90
79.08
61.30
23.26
-31.68
-94.63
-153.12
-194.07
-207.43
-189.48
-144.73
-85.44
-28.05
12.43
27.48
17.49
-9.47
-41.68
-68.52
-83.79
-86.36
-78.87
-65.29
-49.01
-32.01
-15.10
1.06
15.07
24.80
28.16
24.26
14.43
2.21
-7.69
-11.33
-7.43
1.66
10.79
14.55
10.29
-0.10
-10.34
-12.16
0.81
30.13
71.42
115.65
152.27
172.78
172.50
150.99
110.91
56.75
-5.25
-66.90
-118.12
-148.40
-150.19
-122.94
-75.59
-24.83
10.58
17.73
-4.14
-42.86
-78.86
-94.91
-84.46
-53.98
-17.99
10.21
26.07
34.58
44.58
60.84
79.81
92.57
92.46
81.31
69.49
69.61
87.23
115.90
139.86
142.49
115.98
65.30
5.00
-48.63
-84.77
-101.23
-102.87
-97.06
-89.86
-84.35
-80.97
-79.19
-78.58
-79.32
-81.89
-86.41
-92.00
-96.65
-97.48
-91.41
-76.41
-52.59
-22.72
8.35
35.50
55.23
66.62
71.23
71.78
70.47
68.11
64.07
57.32
47.62
36.14
25.15
16.97
12.88
12.46
13.95
15.23
14.73
12.01
7.80
3.44
0.29
-0.86
-0.04
1.99
4.09
5.14
4.46
1.95
-2.01
-6.65
-10.94
-13.80
-14.39
-12.59
-9.53
-7.50
-9.20
-15.91
-25.87
-33.91
-33.12
-17.80
13.39
55.96
100.94
137.75
157.56
155.30
130.28
85.81
28.75
-30.95
-81.67
-112.77
-117.87
-97.39
-58.90
-14.54
23.41
46.66
53.08
45.90
31.23
15.03
1.47
-7.43
-11.07
-9.33
-2.19
10.08
26.33
43.89
58.01
62.61
52.20
24.73
-15.98
-60.53
-97.01
-115.84
-113.77
-95.14
-69.52
-46.85
-33.07
-28.20
-27.86
-26.76
-22.00
-14.29
-6.71
-2.06
-0.75
-0.45
2.49
10.82
24.84
42.21
58.92
70.84
75.20
71.35
60.48
45.13
28.13
12.47
1.07
-3.05
2.60
18.90
43.65
70.60
90.74
95.64
81.89
53.84
22.55
0.35
-5.97
0.93
10.78
12.83
3.21
-12.74
-24.83
-26.13
-18.66
-12.41
-18.27
-39.57
-68.27
-88.87
-87.51
-60.74
-17.87
24.22
50.45
55.41
44.90
31.00
24.05
27.01
35.39
41.56
40.83
34.25
26.78
23.08
23.95
26.23
26.52
24.45
23.22
26.69
35.46
45.00
47.66
37.34
13.51
-17.91
-47.65
-67.79
-75.16
-71.81
-62.74
-52.84
-44.96
-39.68
-36.22
-33.60
-31.16
-28.70
-26.32
-24.15
-22.12
-20.07
-17.71
-14.79
-11.49
-8.20
-5.54
-4.34
-5.10
-7.71
-11.34
-14.69
-16.62
-16.66
-15.27
-13.48
-12.32
-12.19
-12.79
-13.59
-14.39
-15.77
-18.86
-24.57
-32.72
-41.70
-48.82
-51.40
-48.03
-39.39
-28.16
-18.15
-12.91
-14.52
-22.54
-33.85
-43.35
-45.54
-36.66
-16.58
10.69
38.20
58.72
67.56
64.23
52.09
36.35
21.71
10.71
3.64
-0.34
-2.01
-1.34
2.14
8.54
16.78
24.72
29.73
29.81
24.39
14.69
3.27
-6.83
-13.16
-14.61
-11.61
-5.73
1.13
7.38
12.15
15.16
16.35
15.65
12.90
8.15
2.05
-4.08
-8.53
-9.89
-7.74
-2.98
2.44
6.32
7.13
4.63
-0.10
-5.15
-8.68
-9.58
-7.91
-4.60
-1.00
1.74
3.06
3.05
2.26
1.48
1.45
2.65
5.22
8.78
12.47
14.93
14.58
10.10
1.20
-10.95
-23.74
-33.68
-37.59
-33.73
-22.66
-7.25
8.17
19.31
23.44
20.34
12.23
2.71
-4.76
-8.06
-6.83
-2.03
5.02
13.28
22.21
31.30
39.52
45.18
46.47
42.35
33.33
21.40
9.43
-0.00
-5.45
-6.94
-5.53
-2.58
0.88
4.25
7.00
8.15
6.18
-0.37
-11.89
-26.85
-41.70
-51.81
-53.23
-44.40
-27.05
-5.77
13.67
26.37
30.04
25.41
15.62
4.68
-4.14
-9.28
-11.00
-10.64
-9.60
-8.53
-7.23
-5.20
-2.27
0.97
3.37
3.83
1.95
-1.58
-5.24
-7.34
-6.82
-3.70
0.98
5.72
9.27
11.13
11.60
11.48
11.58
12.45
14.39
17.61
22.52
29.43
37.87
45.80
49.51
44.53
27.64
-1.00
-36.81
-71.51
-95.80
-102.90
-91.31
-65.48
-33.99
-6.16
11.38
16.50
11.27
0.16
-12.17
-22.16
-27.60
-27.24
-20.48
-7.57
9.84
28.45
43.81
51.76
50.05
39.35
23.16
6.46
-6.03
-11.52
-9.87
-3.30
4.76
11.05
13.71
12.70
9.49
6.13
4.16
4.01
5.01
5.88
5.42
2.98
-1.37
-7.03
-13.09
-18.49
-22.18
-23.26
-21.20
-16.09
-8.82
-1.01
5.32
8.46
7.59
3.20
-3.06
-8.89
-12.27
-12.15
-8.88
-3.96
0.62
3.31
3.61
2.17
0.36
-0.54
-0.03
1.43
2.68
2.64
0.97
-1.58
-3.50
-3.24
-0.09
5.33
11.26
15.57
16.67
14.23
9.27
3.58
-1.09
-3.70
-4.09
-2.65
0.18
4.14
9.06
14.38
18.86
20.79
18.72
12.38
3.14
-6.26
-12.72
-14.07
-9.96
-2.00
6.98
14.11
17.50
16.76
12.79
7.14
1.19
-4.32
-9.33
-14.04
-18.33
-21.41
-22.06
-19.35
-13.53
-6.41
-0.83
0.61
-3.07
-10.47
-18.33
-22.92
-21.83
-15.07
-4.82
5.64
13.60
17.86
18.78
17.48
14.83
11.03
5.80
-0.77
-7.68
-12.99
-14.70
-11.85
-5.32
2.46
8.44
10.57
8.70
4.57
0.71
-1.00
-0.32
1.41
2.30
1.21
-1.54
-4.34
-5.32
-3.46
0.72
5.43
8.70
9.33
7.55
4.69
2.47
2.03
3.39
5.54
6.98
6.50
3.68
-0.89
-5.95
-10.10
-12.41
-12.62
-11.10
-8.48
-5.31
-1.90
1.61
4.99
7.77
9.22
8.73
6.29
2.65
-0.75
-2.35
-1.18
2.67
8.00
13.05
16.21
16.71
14.80
11.51
7.99
4.95
2.39
-0.15
-3.06
-6.22
-8.81
-9.77
-8.40
-5.01
-0.95
1.79
1.52
-2.36
-8.93
-16.05
-21.18
-22.44
-19.33
-12.81
-4.77
2.75
8.35
11.53
12.58
12.12
10.70
8.59
5.94
3.01
0.36
-1.35
-1.62
-0.52
1.27
2.72
2.92
1.57
-0.96
-3.78
-5.95
-6.98
-7.00
-6.55
-6.21
-6.16
-6.07
-5.32
-3.43
-0.57
2.34
3.89
2.84
-1.13
-7.08
-13.01
-16.64
-16.38
-12.10
-5.24
1.74
6.26
6.74
3.11
-3.17
-9.87
-14.85
-16.79
-15.40
-11.23
-5.26
1.52
8.24
14.08
18.21
19.88
18.66
14.73
9.04
3.04
-1.73
-4.24
-4.23
-2.23
0.80
3.87
6.43
8.43
10.10
11.48
12.25
11.75
9.52
5.76
1.52
-1.66
-2.51
-0.78
2.60
5.96
7.82
7.68
6.11
4.28
3.13
2.77
2.49
1.45
-0.63
-3.08
-4.50
-3.55
0.18
5.70
10.87
13.15
10.79
3.52
-7.16
-18.55
-27.71
-32.51
-32.35
-28.16
-21.80
-15.26
-9.86
-5.95
-3.15
-0.87
1.22
2.99
4.05
4.11
3.26
2.03
1.06
0.78
1.11
1.52
1.44
0.60
-0.71
-1.79
-1.90
-0.70
1.43
3.62
4.93
4.95
4.11
3.53
4.37
7.06
10.92
14.47
16.14
15.29
12.62
9.81
8.49
9.09
10.42
10.20
6.52
-0.86
-10.00
-17.57
-20.55
-17.83
-10.86
-2.85
2.90
4.58
2.61
-0.97
-3.91
-5.10
-5.00
-5.02
-6.26
-8.56
-10.46
-10.14
-6.71
-1.05
4.49
7.23
5.53
-0.28
-8.03
-14.72
-17.98
-17.09
-13.11
-8.27
-4.66
-3.39
-4.18
-5.69
-6.40
-5.39
-2.77
0.43
2.98
4.13
4.06
3.65
3.83
5.02
6.73
8.03
8.09
6.81
4.93
3.60
3.77
5.56
8.25
10.79
12.38
12.98
13.23
13.87
15.11
16.26
16.15
13.72
8.96
3.10
-1.78
-3.80
-2.29
1.76
6.20
8.84
8.59
6.00
2.82
0.98
1.40
3.59
5.92
6.80
5.61
3.27
1.65
2.58
6.66
12.71
18.31
20.87
18.96
13.11
5.54
-0.92
-4.24
-4.20
-2.30
-0.85
-1.46
-4.08
-7.06
-8.17
-6.11
-1.45
3.42
5.69
3.66
-2.08
-8.92
-13.69
-14.41
-11.50
-7.40
-5.07
-6.27
-10.41
-14.95
-16.86
-14.42
-8.23
-0.81
4.74
6.60
5.01
2.06
0.28
1.05
3.77
6.31
6.28
2.63
-3.75
-10.48
-15.01
-16.06
-14.15
-11.22
-9.28
-9.31
-10.72
-11.86
-11.13
-7.96
-3.24
1.23
3.81
3.92
2.41
0.97
1.14
3.30
6.31
8.15
7.12
3.05
-2.37
-6.38
-6.68
-2.80
3.56
9.39
11.89
9.91
4.43
-2.11
-7.13
-9.10
-8.12
-5.48
-2.88
-1.55
-1.81
-3.07
-4.31
-4.48
-3.11
-0.46
2.45
4.44
4.72
3.34
1.24
-0.31
-0.46
0.67
2.02
2.21
0.43
-3.03
-6.89
-9.61
-10.31
-9.23
-7.58
-6.66
-7.13
-8.57
-9.86
-9.90
-8.38
-5.90
-3.64
-2.57
-2.85
-3.73
-3.98
-2.63
0.38
4.13
7.11
8.04
6.54
3.36
0.06
-1.69
-0.95
2.08
6.21
9.84
11.84
12.05
11.25
10.60
10.88
12.18
13.84
15.11
15.55
15.33
14.95
14.70
14.32
13.12
10.56
6.86
3.20
1.15
1.71
4.59
8.17
10.24
9.35
5.63
0.79
-2.85
-3.74
-1.99
0.66
1.91
0.28
-3.98
-9.04
-12.52
-12.91
-10.40
-6.82
-4.52
-5.10
-8.40
-12.61
-15.33
-14.89
-11.41
-6.72
-3.38
-3.23
-6.41
-11.25
-15.33
-16.71
-14.95
-11.14
-7.21
-4.70
-4.09
-4.68
-5.20
-4.65
-2.78
-0.21
2.14
3.46
3.63
3.13
2.78
3.24
4.64
6.46
7.87
8.11
7.00
5.05
3.15
2.18
2.52
3.80
5.20
5.85
5.31
3.85
2.19
1.07
0.91
1.54
2.42
2.97
2.95
2.52
2.11
2.10
2.55
3.17
3.45
3.01
1.83
0.31
-0.96
-1.50
-1.22
-0.53
-0.11
-0.52
-1.89
-3.68
-4.99
-4.97
-3.36
-0.73
1.82
3.18
2.86
1.31
-0.30
-0.71
0.79
3.96
7.73
10.70
11.87
11.07
8.99
6.97
6.33
7.77
11.04
14.97
17.96
18.72
16.95
13.45
9.52
6.14
3.55
1.52
-0.13
-0.93
-0.27
1.92
4.67
5.88
3.72
-1.71
-7.49
-8.65
-0.75
17.31
41.83
65.43
80.66
83.78
76.25
63.32
50.43
40.04
30.68
18.58
1.07
-20.84
-42.35
-57.41
-62.08
-56.79
-45.95
-35.40
-29.29
-28.33
-30.02
-30.51
-27.06
-19.53
-10.21
-2.62
0.38
-1.82
-7.34
-12.73
-14.91
-12.63
-6.90
-0.45
3.82
4.36
1.61
-2.32
-4.94
-4.68
-1.72
2.16
4.75
4.57
1.74
-2.09
-4.71
-4.63
-1.93
1.76
4.17
3.74
0.45
-4.08
-7.62
-8.62
-7.09
-4.51
-2.92
-3.62
-6.45
-9.91
-12.10
-11.85
-9.41
-6.29
-4.34
-4.73
-7.26
-10.57
-12.86
-12.87
-10.58
-7.17
-4.29
-3.21
-4.07
-5.85
-7.02
-6.42
-3.98
-0.69
1.89
2.61
1.32
-1.07
-3.18
-4.09
-3.75
-3.13
-3.41
-5.26
-8.28
-11.15
-12.27
-10.72
-6.83
-2.08
1.57
2.68
1.10
-2.07
-5.04
-6.37
-5.70
-3.86
-2.35
-2.32
-3.94
-6.26
-7.84
-7.62
-5.54
-2.62
-0.27
0.46
-0.45
-2.09
-3.11
-2.59
-0.51
2.18
4.13
4.31
2.70
0.22
-1.72
-2.02
-0.56
1.80
3.64
3.87
2.34
-0.03
-1.84
-2.07
-0.68
1.31
2.50
2.00
-0.04
-2.46
-3.84
-3.31
-1.10
1.52
3.07
2.67
0.55
-2.07
-3.73
-3.54
-1.70
0.62
1.99
1.53
-0.59
-3.17
-4.71
-4.28
-2.02
0.83
2.67
2.50
0.43
-2.28
-4.00
-3.66
-1.35
1.65
3.70
3.67
1.63
-1.22
-3.24
-3.29
-1.40
1.32
3.31
3.48
1.82
-0.56
-2.13
-1.84
0.19
2.78
4.28
3.66
1.07
-2.16
-4.31
-4.24
-2.01
1.07
3.29
3.46
1.61
-1.12
-3.13
-3.32
-1.73
0.59
2.16
1.99
0.16
-2.26
-3.82
-3.56
-1.60
0.92
2.48
2.12
0.01
-2.63
-4.20
-3.69
-1.24
1.90
4.09
4.22
2.36
-0.35
-2.39
-2.69
-1.27
0.87
2.42
2.46
1.08
-0.77
-1.78
-1.12
1.01
3.50
4.87
4.21
1.69
-1.43
-3.53
-3.50
-1.40
1.52
3.58
3.61
1.66
-1.05
-2.92
-2.88
-1.01
1.45
2.99
2.63
0.57
-2.00
-3.55
-3.10
-0.84
2.02
3.89
3.71
1.59
-1.32
-3.44
-3.69
-2.07
0.37
2.12
2.18
0.61
-1.49
-2.73
-2.23
-0.22
2.10
3.34
2.67
0.42
-2.22
-3.77
-3.39
-1.29
1.31
2.92
2.62
0.57
-2.06
-3.77
-3.58
-1.62
1.02
2.83
2.85
1.16
-1.08
-2.46
-2.08
-0.12
2.23
3.56
3.02
0.88
-1.68
-3.25
-2.96
-1.05
1.34
2.77
2.38
0.36
-2.11
-3.59
-3.18
-1.08
1.54
3.19
2.94
0.95
-1.57
-3.10
-2.71
-0.60
2.00
3.59
3.27
1.27
-1.16
-2.54
-1.98
0.28
2.95
4.53
4.06
1.76
-1.15
-3.14
-3.22
-1.54
0.78
2.25
1.92
-0.08
-2.57
-4.07
-3.64
-1.49
1.11
2.60
2.00
-0.42
-3.34
-5.11
-4.68
-2.22
0.96
3.22
3.48
1.89
-0.35
-1.71
-1.23
0.84
3.30
4.65
4.03
1.76
-0.87
-2.32
-1.78
0.36
2.75
3.83
2.84
0.23
-2.56
-3.99
-3.28
-0.86
1.85
3.33
2.78
0.59
-1.96
-3.42
-3.06
-1.24
0.84
1.83
1.04
-1.14
-3.44
-4.46
-3.45
-0.78
2.22
3.99
3.68
1.55
-1.12
-2.77
-2.49
-0.49
2.01
3.54
3.22
1.28
-1.10
-2.54
-2.21
-0.38
1.78
2.93
2.28
0.16
-2.23
-3.47
-2.76
-0.46
2.14
3.49
2.75
0.27
-2.61
-4.30
-3.96
-1.86
0.69
2.20
1.90
0.16
-1.74
-2.44
-1.31
1.13
3.52
4.48
3.35
0.62
-2.33
-4.03
-3.65
-1.55
1.01
2.52
2.17
0.22
-2.08
-3.25
-2.49
-0.13
2.53
4.00
3.48
1.35
-1.08
-2.39
-1.84
0.11
2.16
2.95
1.84
-0.72
-3.39
-4.77
-4.15
-1.90
0.72
2.29
2.06
0.31
-1.79
-2.85
-2.14
0.07
2.60
4.08
3.72
1.83
-0.40
-1.62
-1.08
0.91
3.15
4.37
3.87
1.94
-0.30
-1.63
-1.38
0.14
1.85
2.49
1.39
-1.16
-3.97
-5.64
-5.29
-3.11
-0.24
1.83
2.11
0.68
-1.36
-2.60
-2.19
-0.34
1.81
2.93
2.33
0.38
-1.69
-2.57
-1.64
0.66
3.05
4.17
3.38
1.08
-1.48
-2.92
-2.49
-0.52
1.85
3.25
2.92
1.11
-1.00
-2.12
-1.56
0.31
2.29
3.12
2.25
0.18
-1.80
-2.43
-1.17
1.41
3.91
4.95
3.87
1.14
-1.87
-3.70
-3.48
-1.48
1.18
3.08
3.34
2.09
0.39
-0.47
0.25
2.27
4.38
5.22
4.02
1.16
-2.10
-4.31
-4.65
-3.35
-1.56
-0.59
-1.17
-2.96
-4.89
-5.74
-4.95
-2.99
-1.02
-0.30
-1.36
-3.73
-6.06
-6.97
-5.83
-3.09
-0.11
1.68
1.57
-0.04
-1.85
-2.50
-1.29
1.35
4.06
5.43
4.67
2.17
-0.81
-2.79
-2.90
-1.35
0.73
1.95
1.50
-0.42
-2.69
-3.88
-3.16
-0.75
2.11
3.91
3.76
1.85
-0.58
-2.04
-1.61
0.47
2.92
4.21
3.42
0.87
-2.13
-4.01
-3.84
-1.87
0.66
2.23
1.99
0.19
-1.96
-2.99
-2.12
0.31
2.96
4.31
3.56
1.12
-1.64
-3.13
-2.47
-0.00
2.91
4.66
4.30
2.10
-0.72
-2.65
-2.80
-1.36
0.53
1.56
0.98
-0.87
-2.77
-3.35
-1.94
0.95
3.88
5.22
4.18
1.22
-2.10
-4.05
-3.66
-1.23
1.81
3.79
3.70
1.81
-0.63
-2.13
-1.84
-0.05
2.03
3.05
2.31
0.16
-2.16
-3.31
-2.58
-0.36
2.09
3.36
2.69
0.47
-2.05
-3.39
-2.75
-0.42
2.37
4.11
3.91
1.97
-0.55
-2.26
-2.29
-0.82
1.04
2.01
1.36
-0.61
-2.75
-3.71
-2.77
-0.32
2.33
3.68
2.98
0.58
-2.17
-3.75
-3.33
-1.24
1.27
2.69
2.22
0.20
-2.11
-3.32
-2.72
-0.68
1.54
2.58
1.77
-0.46
-2.84
-3.96
-3.09
-0.66
2.06
3.55
3.04
0.86
-1.70
-3.17
-2.73
-0.69
1.73
3.06
2.53
0.49
-1.80
-2.89
-2.07
0.26
2.79
4.10
3.48
1.37
-0.96
-2.10
-1.33
0.88
3.22
4.23
3.19
0.55
-2.34
-3.97
-3.55
-1.42
1.15
2.68
2.39
0.59
-1.49
-2.49
-1.73
0.41
2.66
3.69
2.80
0.41
-2.22
-3.68
-3.22
-1.18
1.19
2.47
1.85
-0.36
-2.90
-4.30
-3.70
-1.39
1.39
3.09
2.83
0.88
-1.45
-2.63
-1.87
0.42
2.81
3.76
2.50
-0.41
-3.45
-4.97
-4.17
-1.54
1.42
3.09
2.60
0.36
-2.28
-3.76
-3.26
-1.14
1.41
2.96
2.79
1.21
-0.60
-1.36
-0.48
1.57
3.49
4.00
2.58
-0.17
-2.87
-4.09
-3.23
-0.83
1.71
2.96
2.19
-0.14
-2.71
-4.13
-3.64
-1.59
0.81
2.20
1.86
0.11
-1.84
-2.67
-1.70
0.66
3.13
4.32
3.56
1.26
-1.27
-2.61
-2.03
0.10
2.48
3.71
3.03
0.82
-1.66
-3.02
-2.49
-0.43
1.94
3.22
2.66
0.60
-1.69
-2.82
-2.05
0.21
2.63
3.73
2.78
0.21
-2.63
-4.21
-3.76
-1.66
0.75
2.02
1.42
-0.58
-2.64
-3.36
-2.13
0.47
3.02
4.06
2.98
0.35
-2.36
-3.64
-2.81
-0.44
2.00
3.00
1.93
-0.63
-3.19
-4.24
-3.14
-0.43
2.39
3.87
3.31
1.21
-1.14
-2.41
-1.99
-0.38
1.26
1.73
0.59
-1.61
-3.60
-4.13
-2.74
-0.07
2.48
3.51
2.44
-0.17
-2.87
-4.13
-3.25
-0.68
2.16
3.77
3.38
1.44
-0.72
-1.67
-0.76
1.50
3.75
4.59
3.40
0.74
-1.95
-3.21
-2.39
-0.07
2.31
3.22
2.03
-0.71
-3.55
-4.96
-4.21
-1.79
0.90
2.37
1.86
-0.19
-2.44
-3.48
-2.63
-0.36
2.03
3.17
2.50
0.52
-1.43
-2.03
-0.76
1.72
3.98
4.63
3.17
0.29
-2.52
-3.76
-2.84
-0.34
2.26
3.53
2.82
0.65
-1.64
-2.74
-2.06
-0.11
1.84
2.56
1.54
-0.70
-2.88
-3.71
-2.66
-0.27
2.11
3.11
2.14
-0.26
-2.73
-3.87
-3.08
-0.88
1.42
2.50
1.80
-0.11
-1.96
-2.57
-1.54
0.47
2.18
2.51
1.16
-1.13
-3.05
-3.44
-2.02
0.45
2.57
3.10
1.75
-0.72
-2.86
-3.37
-1.88
0.85
3.35
4.29
3.21
0.84
-1.42
-2.26
-1.26
0.90
2.84
3.34
2.04
-0.34
-2.41
-2.92
-1.48
1.17
3.58
4.39
3.16
0.57
-1.91
-2.88
-1.84
0.56
2.88
3.73
2.61
0.21
-2.00
-2.72
-1.54
0.76
2.67
2.93
1.21
-1.63
-4.08
-4.83
-3.54
-1.04
1.20
1.86
0.62
-1.74
-3.76
-4.16
-2.62
0.11
2.54
3.38
2.21
-0.24
-2.51
-3.33
-2.30
-0.16
1.68
2.05
0.66
-1.65
-3.42
-3.46
-1.55
1.39
3.81
4.39
2.86
0.12
-2.26
-2.93
-1.59
0.93
3.11
3.69
2.34
-0.10
-2.16
-2.68
-1.45
0.67
2.24
2.21
0.46
-2.02
-3.81
-3.82
-1.94
0.85
3.07
3.53
2.06
-0.49
-2.68
-3.34
-2.24
-0.17
1.56
1.85
0.52
-1.57
-3.04
-2.87
-0.99
1.62
3.49
3.57
1.85
-0.60
-2.26
-2.03
0.09
3.00
5.10
5.19
3.20
0.21
-2.19
-2.78
-1.41
0.90
2.65
2.67
0.84
-1.83
-3.82
-3.99
-2.31
0.18
1.97
2.01
0.32
-2.04
-3.59
-3.36
-1.42
1.16
2.91
2.83
0.99
-1.61
-3.52
-3.71
-2.15
0.22
2.03
2.24
0.81
-1.30
-2.69
-2.35
-0.31
2.35
4.13
4.00
2.05
-0.58
-2.33
-2.16
-0.18
2.40
4.01
3.62
1.39
-1.44
-3.27
-3.06
-0.97
1.80
3.64
3.49
1.46
-1.26
-3.10
-3.05
-1.29
0.95
2.11
1.31
-1.17
-4.00
-5.57
-4.99
-2.54
0.46
2.45
2.49
0.82
-1.36
-2.61
-2.08
-0.05
2.34
3.69
3.26
1.37
-0.73
-1.65
-0.69
1.69
4.09
5.00
3.70
0.72
-2.43
-4.11
-3.48
-0.96
1.98
3.70
3.28
1.05
-1.69
-3.42
-3.27
-1.53
0.57
1.62
0.90
-1.20
-3.39
-4.21
-2.99
-0.21
2.67
4.12
3.41
1.05
-1.51
-2.70
-1.82
0.65
3.23
4.42
3.41
0.70
-2.33
-4.12
-3.84
-1.83
0.63
2.06
1.61
-0.47
-2.97
-4.47
-4.15
-2.29
-0.03
1.27
0.95
-0.65
-2.38
-3.07
-2.27
-0.53
0.95
1.09
-0.36
-2.62
-4.45
-4.88
-3.91
-2.52
-2.04
-3.29
-5.99
-8.84
-10.27
-9.45
-6.88
-4.31
-3.76
-6.35
-11.44
-16.85
-19.91
-18.99
-14.60
-9.29
-6.59
-8.98
-16.52
-26.52
-34.75
-37.64
-34.20
-26.65
-19.30
-16.44
-20.24
-29.73
-41.80
-52.61
-58.88
-58.35
-49.49
-31.27
-4.44
27.40
57.71
78.88
85.53
77.46
60.12
41.96
30.09
26.62
27.47
24.84
11.63
-14.40
-49.40
-85.12
-112.83
-126.83
-126.05
-113.40
-93.56
-70.77
-47.41
-24.42
-2.35
17.59
33.21
42.31
44.10
39.89
32.59
25.78
22.06
22.22
25.29
29.15
31.48
30.79
27.06
21.53
16.12
12.53
11.53
12.74
14.91
16.60
16.76
15.14
12.31
9.48
8.35
10.50
16.83
26.81
38.02
46.42
47.39
37.36
15.35
-16.31
-52.37
-86.10
-110.94
-121.87
-116.17
-93.80
-57.54
-12.79
33.15
72.60
99.39
110.62
107.44
94.20
76.84
60.76
49.40
43.66
42.34
43.14
43.63
41.95
37.33
30.09
21.42
12.95
6.22
2.33
1.79
4.59
10.15
17.29
24.22
28.84
29.34
24.95
16.39
5.81
-3.98
-10.60
-13.06
-11.96
-9.19
-6.86
-6.41
-8.04
-10.81
-13.20
-13.89
-12.18
-8.27
-3.00
2.54
7.41
11.08
13.39
14.39
14.07
12.25
8.82
4.01
-1.38
-6.06
-8.69
-8.52
-5.88
-2.21
0.72
1.66
0.61
-1.13
-1.78
-0.20
3.36
7.33
9.72
9.32
6.37
2.40
-0.77
-2.21
-2.46
-3.12
-5.68
-10.41
-15.91
-19.75
-19.98
-16.45
-11.24
-7.72
-8.71
-14.78
-23.62
-31.17
-33.76
-30.21
-22.46
-14.46
-9.88
-10.00
-13.24
-16.42
-16.94
-14.47
-10.98
-9.25
-10.97
-15.54
-20.47
-23.05
-21.97
-18.02
-13.46
-10.58
-10.36
-12.14
-14.30
-15.42
-15.10
-13.99
-13.15
-13.23
-14.01
-14.50
-13.64
-10.96
-6.93
-2.58
1.10
3.91
6.51
10.07
15.44
22.56
30.25
36.72
40.31
40.20
36.80
31.47
26.01
21.96
20.04
20.05
21.03
21.75
21.33
19.61
17.26
15.31
14.55
14.88
15.38
14.77
12.35
8.56
4.91
3.14
4.11
7.16
10.36
11.55
9.62
5.21
0.41
-2.46
-2.13
0.86
4.49
6.43
5.36
1.66
-2.87
-6.07
-6.65
-4.87
-2.33
-0.96
-1.90
-4.84
-8.23
-10.22
-9.84
-7.51
-4.84
-3.62
-4.65
-7.26
-9.66
-10.03
-7.76
-3.87
-0.54
0.15
-2.48
-7.21
-11.54
-13.04
-10.67
-5.35
0.55
4.64
5.76
4.59
3.16
3.60
6.87
12.22
17.62
20.89
20.95
18.37
15.06
13.14
13.77
16.56
19.85
21.74
21.15
18.46
15.13
12.85
12.42
13.31
14.02
13.01
9.80
5.27
1.24
-0.59
0.29
2.85
5.00
4.82
1.61
-3.64
-8.78
-11.62
-11.16
-8.14
-4.63
-2.89
-4.17
-8.03
-12.60
-15.70
-16.05
-14.01
-11.31
-10.01
-11.22
-14.34
-17.42
-18.21
-15.55
-10.15
-4.23
-0.30
0.27
-1.92
-4.68
-5.54
-3.19
1.62
6.54
8.96
7.57
3.17
-1.78
-4.55
-3.74
-0.04
4.25
6.59
5.74
2.42
-1.20
-2.86
-1.62
1.58
4.53
5.10
2.54
-2.06
-6.40
-8.34
-7.08
-3.55
0.19
2.19
1.75
-0.37
-2.47
-3.06
-1.72
0.68
2.56
2.67
0.82
-1.94
-3.93
-3.85
-1.44
2.27
5.59
7.07
6.27
3.98
1.78
1.08
2.37
4.95
7.32
8.13
6.96
4.62
2.69
2.57
4.64
7.93
10.69
11.27
9.09
4.89
0.30
-3.12
-4.70
-4.92
-4.90
-5.59
-7.09
-8.54
-8.72
-6.87
-3.34
0.46
2.66
2.00
-1.48
-6.32
-10.36
-11.78
-10.09
-6.34
-2.56
-0.66
-1.42
-4.07
-6.82
-7.90
-6.59
-3.54
-0.34
1.48
1.34
-0.13
-1.52
-1.58
-0.01
2.40
4.23
4.28
2.31
-0.77
-3.36
-4.03
-2.28
1.15
4.64
6.56
6.17
3.96
1.43
0.15
0.81
2.77
4.36
4.02
1.38
-2.32
-4.82
-4.19
-0.18
5.47
9.88
10.69
7.52
2.16
-2.42
-3.94
-2.14
1.13
3.20
2.33
-0.97
-4.27
-4.71
-0.85
6.21
13.20
16.42
13.81
6.11
-3.49
-11.04
-13.93
-12.12
-7.98
-4.76
-4.56
-7.24
-10.55
-11.66
-8.95
-3.12
3.14
6.71
5.82
1.09
-4.91
-9.12
-9.75
-7.22
-3.71
-1.77
-2.79
-6.19
-9.86
-11.49
-9.89
-5.67
-0.77
2.65
3.45
1.97
-0.29
-1.69
-1.49
-0.22
0.69
-0.18
-3.21
-7.38
-10.68
-11.06
-7.49
-0.60
7.55
14.37
17.87
17.50
14.26
10.07
6.69
4.89
4.25
3.68
2.38
0.53
-0.67
0.24
3.89
9.35
14.33
16.26
13.71
7.29
-0.49
-6.43
-8.18
-5.40
0.26
6.09
9.80
10.54
9.13
7.26
6.38
6.86
7.96
8.42
7.42
5.11
2.52
0.87
0.78
1.78
2.57
1.80
-1.07
-5.29
-9.19
-10.95
-9.68
-5.95
-1.62
1.01
0.37
-3.58
-9.42
-14.90
-18.13
-18.36
-16.17
-12.88
-9.77
-7.40
-5.53
-3.62
-1.40
0.78
2.08
1.76
-0.31
-3.41
-6.32
-7.85
-7.54
-5.78
-3.67
-2.38
-2.58
-4.07
-5.91
-6.96
-6.51
-4.69
-2.43
-1.03
-1.38
-3.46
-6.29
-8.39
-8.60
-6.68
-3.47
-0.38
1.45
1.85
1.65
2.12
4.11
7.39
10.75
12.69
12.37
10.16
7.45
5.76
5.81
7.08
8.06
7.27
4.18
-0.38
-4.60
-6.62
-5.54
-1.89
2.70
6.30
7.72
6.96
5.14
3.74
3.69
4.89
6.24
6.35
4.48
0.99
-2.74
-5.06
-4.98
-2.77
0.27
2.57
3.25
2.66
2.04
2.72
5.14
8.54
11.36
12.22
10.86
8.36
6.56
6.92
9.58
13.13
15.39
14.59
10.41
4.23
-1.64
-5.16
-5.61
-3.82
-1.58
-0.55
-1.30
-3.16
-4.76
-4.97
-3.60
-1.51
-0.01
-0.11
-1.87
-4.45
-6.60
-7.37
-6.59
-4.89
-3.33
-2.82
-3.77
-5.96
-8.77
-11.56
-13.91
-15.78
-17.27
-18.34
-18.60
-17.45
-14.37
-9.46
-3.63
1.53
4.46
4.29
1.34
-2.97
-6.74
-8.49
-7.74
-5.21
-2.30
-0.37
-0.10
-1.17
-2.58
-3.26
-2.67
-1.07
0.65
1.59
1.34
0.31
-0.59
-0.47
0.92
3.11
5.13
6.14
5.95
5.10
4.51
4.88
6.24
7.89
8.75
8.01
5.57
2.24
-0.72
-2.10
-1.44
0.78
3.39
5.15
5.48
4.77
4.19
4.92
7.37
10.81
13.71
14.56
12.83
9.35
5.84
4.01
4.56
6.81
9.16
9.95
8.42
5.08
1.31
-1.34
-2.01
-0.83
1.18
2.75
2.95
1.63
-0.63
-2.86
-4.25
-4.58
-4.30
-4.13
-4.64
-5.81
-7.00
-7.31
-6.24
-4.11
-1.96
-1.08
-2.16
-4.83
-7.72
-9.23
-8.39
-5.46
-1.81
0.87
1.45
-0.01
-2.44
-4.43
-5.04
-4.26
-2.82
-1.62
-1.15
-1.27
-1.46
-1.26
-0.61
0.14
0.48
0.11
-0.85
-1.96
-2.70
-2.78
-2.31
-1.73
-1.55
-2.08
-3.24
-4.56
-5.38
-5.25
-4.13
-2.50
-1.13
-0.64
-1.20
-2.40
-3.49
-3.79
-3.07
-1.70
-0.41
0.10
-0.41
-1.70
-3.09
-3.95
-3.96
-3.29
-2.49
-2.13
-2.48
-3.38
-4.34
-4.81
-4.55
-3.74
-2.91
-2.56
-2.94
-3.89
-4.89
-5.41
-5.15
-4.17
-2.87
-1.72
-1.05
-0.91
-1.08
-1.24
-1.16
-0.84
-0.54
-0.53
-0.92
-1.49
-1.78
-1.36
-0.13
1.49
2.77
3.12
2.46
1.44
1.07
2.13
4.69
7.95
10.70
11.99
11.66
10.38
9.21
8.86
9.30
9.83
9.52
7.94
5.44
2.96
1.50
1.56
2.83
4.42
5.41
5.33
4.38
3.26
2.72
3.10
4.20
5.42
6.06
5.75
4.57
2.97
1.55
0.69
0.44
0.45
0.29
-0.40
-1.63
-3.02
-4.02
-4.14
-3.27
-1.79
-0.42
0.14
-0.44
-1.90
-3.51
-4.51
-4.46
-3.58
-2.53
-2.03
-2.40
-3.35
-4.16
-4.16
-3.20
-1.74
-0.62
-0.56
-1.67
-3.39
-4.80
-5.15
-4.30
-2.78
-1.50
-1.16
-1.88
-3.12
-3.99
-3.81
-2.50
-0.66
0.77
1.08
0.23
-1.09
-1.90
-1.48
0.14
2.16
3.48
3.29
1.61
-0.73
-2.53
-2.90
-1.73
0.24
1.85
2.21
1.19
-0.59
-2.09
-2.49
-1.68
-0.24
0.86
0.87
-0.35
-2.21
-3.76
-4.16
-3.19
-1.30
0.59
1.62
1.44
0.34
-0.92
-1.59
-1.35
-0.46
0.44
0.73
0.24
-0.67
-1.37
-1.34
-0.55
0.58
1.41
1.51
0.93
0.16
-0.21
0.18
1.20
2.34
3.01
2.91
2.19
1.33
0.89
1.14
1.92
2.75
3.13
2.86
2.10
1.31
0.93
1.13
1.72
2.28
2.43
2.08
1.44
0.92
0.84
1.21
1.72
1.90
1.41
0.24
-1.22
-2.35
-2.68
-2.13
-1.06
-0.11
0.14
-0.49
-1.66
-2.75
-3.17
-2.69
-1.58
-0.46
0.10
-0.09
-0.77
-1.37
-1.35
-0.56
0.73
1.91
2.43
2.09
1.10
0.03
-0.56
-0.40
0.37
1.28
1.75
1.44
0.41
-0.95
-2.09
-2.57
-2.35
-1.71
-1.14
-1.05
-1.52
-2.25
-2.74
-2.53
-1.52
-0.05
1.21
1.67
1.10
-0.18
-1.44
-1.98
-1.52
-0.40
0.62
0.86
0.12
-1.11
-1.98
-1.80
-0.54
1.09
2.11
1.86
0.45
-1.22
-2.09
-1.55
0.10
1.81
2.43
1.46
-0.64
-2.62
-3.27
-2.06
0.43
2.94
4.20
3.68
1.87
-0.09
-1.12
-0.79
0.47
1.73
2.15
1.44
0.03
-1.34
-2.00
-1.76
-1.00
-0.33
-0.30
-1.04
-2.24
-3.25
-3.51
-2.78
-1.31
0.24
1.15
1.07
0.20
-0.74
-0.90
0.19
2.31
4.63
6.16
6.32
5.22
3.59
2.31
1.89
2.22
2.72
2.74
2.03
0.83
-0.27
-0.78
-0.52
0.19
0.80
0.81
0.05
-1.20
-2.33
-2.77
-2.19
-0.85
0.58
1.32
0.96
-0.30
-1.69
-2.28
-1.56
0.18
2.04
3.00
2.57
1.05
-0.63
-1.49
-1.15
-0.04
0.89
0.74
-0.74
-3.02
-5.14
-6.21
-5.97
-4.88
-3.84
-3.67
-4.71
-6.59
-8.47
-9.48
-9.10
-7.51
-5.46
-3.91
-3.47
-4.11
-5.11
-5.51
-4.70
-2.86
-0.87
0.26
0.08
-0.96
-1.79
-1.37
0.61
3.49
6.11
7.56
7.75
7.49
7.91
9.71
12.58
15.43
16.86
16.02
13.00
8.79
4.74
1.95
0.78
0.83
1.27
1.39
0.89
0.03
-0.67
-0.81
-0.35
0.32
0.66
0.31
-0.69
-1.87
-2.63
-2.58
-1.76
-0.63
0.11
-0.04
-1.17
-2.81
-4.18
-4.54
-3.60
-1.73
0.17
1.13
0.59
-1.27
-3.63
-5.47
-6.12
-5.63
-4.65
-4.01
-4.18
-5.04
-5.94
-6.16
-5.35
-3.76
-2.13
-1.19
-1.36
-2.41
-3.68
-4.37
-4.00
-2.67
-0.93
0.49
1.11
0.96
0.55
0.48
1.09
2.25
3.38
3.87
3.45
2.39
1.37
1.05
1.70
3.01
4.20
4.49
3.52
1.55
-0.61
-2.08
-2.32
-1.42
-0.05
1.01
1.21
0.63
-0.20
-0.58
-0.12
1.02
2.25
2.93
2.81
2.15
1.58
1.70
2.62
3.95
4.95
5.04
4.07
2.47
0.96
0.18
0.34
1.09
1.77
1.84
1.20
0.29
-0.17
0.35
1.86
3.78
5.23
5.49
4.42
2.51
0.57
-0.68
-1.03
-0.78
-0.57
-0.94
-2.02
-3.45
-4.58
-4.84
-4.10
-2.78
-1.61
-1.27
-2.01
-3.42
-4.75
-5.24
-4.63
-3.30
-2.06
-1.69
-2.46
-4.00
-5.46
-5.99
-5.23
-3.51
-1.64
-0.50
-0.51
-1.41
-2.44
-2.80
-2.14
-0.79
0.51
1.04
0.56
-0.55
-1.49
-1.54
-0.50
1.22
2.86
3.72
3.56
2.68
1.68
1.12
1.20
1.77
2.38
2.63
2.34
1.66
0.97
0.67
0.93
1.61
2.30
2.55
2.12
1.15
0.15
-0.32
0.09
1.23
2.54
3.30
3.14
2.20
1.14
0.67
1.15
2.28
3.31
3.48
2.53
0.91
-0.45
-0.70
0.35
2.12
3.59
3.92
2.97
1.40
0.19
0.08
1.06
2.42
3.17
2.71
1.11
-0.92
-2.45
-2.89
-2.25
-1.09
-0.20
-0.13
-0.89
-2.01
-2.77
-2.65
-1.64
-0.23
0.79
0.84
-0.16
-1.75
-3.13
-3.70
-3.34
-2.49
-1.85
-1.95
-2.82
-4.00
-4.76
-4.58
-3.43
-1.84
-0.60
-0.31
-1.07
-2.40
-3.48
-3.67
-2.79
-1.30
0.04
0.57
0.13
-0.90
-1.83
-2.13
-1.73
-0.98
-0.42
-0.38
-0.80
-1.23
-1.17
-0.38
0.96
2.31
3.05
2.88
1.99
1.01
0.71
1.55
3.45
5.76
7.53
8.09
7.34
5.90
4.71
4.56
5.65
7.50
9.24
10.09
9.74
8.53
7.17
6.38
6.46
7.20
8.04
8.35
7.76
6.30
4.22
1.91
-0.31
-2.24
-3.78
-4.90
-5.69
-6.36
-7.19
-8.31
-9.64
-10.79
-11.35
-11.07
-10.06
-8.68
-7.28
-6.09
-5.16
-4.55
-4.39
-4.81
-5.66
-6.34
-5.98
-3.98
-0.59
2.83
4.39
2.60
-2.56
-9.34
-14.94
-16.99
-14.89
-10.31
-6.28
-5.43
-8.38
-13.30
-16.94
-16.68
-12.16
-5.56
-0.27
1.19
-1.26
-5.18
-7.15
-4.86
1.48
9.24
14.83
15.65
11.36
3.96
-3.37
-7.82
-8.10
-4.78
0.29
4.99
7.93
8.82
8.27
7.15
6.03
4.95
3.68
2.24
1.21
1.61
4.27
9.18
15.20
20.38
22.89
21.93
18.13
13.21
9.17
7.25
7.48
8.84
9.90
9.61
7.83
5.27
3.04
2.00
2.32
3.39
4.16
3.70
1.74
-1.22
-4.18
-6.20
-6.88
-6.64
-6.35
-6.86
-8.55
-11.11
-13.79
-15.91
-17.20
-17.99
-18.99
-20.83
-23.66
-26.95
-29.74
-30.96
-30.09
-27.50
-24.57
-23.19
-24.80
-29.49
-35.61
-40.36
-41.08
-36.73
-28.41
-18.87
-11.15
-6.93
-5.73
-5.08
-1.92
5.85
18.47
34.50
51.89
68.93
84.27
96.32
103.02
102.46
94.18
79.86
63.24
48.67
39.20
35.46
35.69
36.90
36.37
32.40
24.56
13.34
-0.16
-14.24
-26.49
-34.31
-35.94
-31.48
-23.03
-13.76
-6.55
-2.95
-3.10
-6.13
-10.79
-16.01
-20.97
-24.95
-27.24
-27.26
-24.85
-20.52
-15.30
-10.49
-7.06
-5.08
-3.76
-1.92
1.23
5.62
10.40
14.21
15.87
14.91
11.65
6.92
1.71
-3.24
-7.53
-11.07
-13.92
-16.05
-17.26
-17.23
-15.73
-13.01
-9.90
-7.60
-7.15
-8.81
-11.75
-14.41
-15.31
-13.93
-10.95
-7.86
-5.94
-5.59
-6.09
-6.28
-5.38
-3.60
-2.01
-1.81
-3.45
-6.35
-9.10
-10.31
-9.28
-6.49
-3.24
-1.04
-0.77
-2.26
-4.49
-6.19
-6.57
-5.74
-4.60
-4.20
-5.05
-6.74
-8.24
-8.50
-7.10
-4.55
-1.95
-0.31
0.06
-0.30
-0.35
0.69
2.83
5.22
6.57
5.97
3.38
-0.30
-3.67
-5.51
-5.38
-3.70
-1.52
0.12
0.70
0.46
0.27
1.11
3.44
6.82
10.00
11.48
10.38
7.00
2.74
-0.59
-1.82
-1.01
0.68
1.83
1.71
0.73
0.12
1.04
3.75
7.40
10.47
11.75
10.96
8.90
6.89
6.11
6.89
8.70
10.43
11.08
10.23
8.16
5.68
3.64
2.50
2.14
2.02
1.58
0.55
-0.78
-1.75
-1.70
-0.43
1.57
3.36
3.99
3.09
1.12
-0.91
-1.99
-1.75
-0.67
0.21
-0.02
-1.59
-3.89
-5.81
-6.42
-5.50
-3.64
-1.91
-1.17
-1.68
-2.94
-4.06
-4.26
-3.27
-1.55
0.12
0.97
0.74
-0.24
-1.20
-1.46
-0.79
0.46
1.51
1.66
0.67
-1.01
-2.53
-3.07
-2.37
-0.90
0.33
0.40
-1.03
-3.47
-5.85
-7.09
-6.76
-5.28
-3.60
-2.66
-2.77
-3.46
-3.82
-3.13
-1.42
0.52
1.58
1.05
-0.88
-3.14
-4.38
-3.78
-1.55
1.21
3.15
3.44
2.24
0.59
-0.24
0.48
2.59
5.11
6.80
6.88
5.35
3.00
0.96
0.11
0.64
2.03
3.33
3.72
2.95
1.43
-0.07
-0.86
-0.75
-0.13
0.39
0.39
-0.09
-0.58
-0.53
0.29
1.56
2.63
2.79
1.77
-0.14
-2.17
-3.41
-3.33
-2.03
-0.17
1.26
1.54
0.53
-1.19
-2.65
-2.99
-2.04
-0.38
0.99
1.23
0.22
-1.32
-2.32
-1.95
-0.20
2.08
3.70
3.79
2.32
0.09
-1.69
-2.11
-1.02
0.91
2.61
3.23
2.56
1.09
-0.23
-0.61
0.20
1.79
3.29
3.87
3.19
1.61
-0.02
-0.86
-0.59
0.36
1.11
0.75
-1.00
-3.60
-5.89
-6.77
-5.78
-3.39
-0.76
0.93
1.11
0.11
-1.19
-1.97
-1.97
-1.63
-1.77
-2.97
-5.15
-7.50
-8.91
-8.60
-6.68
-4.16
-2.44
-2.54
-4.42
-7.00
-8.62
-7.93
-4.64
0.27
5.11
8.32
9.24
8.33
6.84
5.92
6.02
6.69
6.95
6.02
3.79
0.94
-1.46
-2.57
-2.22
-0.94
0.35
0.93
0.65
-0.01
-0.30
0.31
1.76
3.45
4.52
4.31
2.78
0.52
-1.52
-2.48
-2.02
-0.45
1.42
2.73
2.98
2.28
1.30
0.81
1.27
2.49
3.79
4.38
3.89
2.58
1.21
0.60
1.06
2.24
3.33
3.55
2.67
1.11
-0.28
-0.74
-0.08
1.23
2.37
2.60
1.71
0.12
-1.29
-1.74
-0.98
0.53
1.86
2.09
0.94
-1.12
-3.06
-3.92
-3.34
-1.83
-0.41
0.01
-0.81
-2.29
-3.42
-3.41
-2.19
-0.48
0.71
0.66
-0.65
-2.53
-4.01
-4.43
-3.78
-2.61
-1.73
-1.70
-2.52
-3.68
-4.47
-4.39
-3.45
-2.16
-1.28
-1.38
-2.54
-4.27
-5.73
-6.22
-5.57
-4.17
-2.81
-2.20
-2.60
-3.67
-4.72
-5.10
-4.53
-3.24
-1.82
-0.79
-0.42
-0.52
-0.70
-0.57
-0.03
0.71
1.16
0.84
-0.43
-2.30
-4.04
-4.83
-4.21
-2.39
-0.16
1.47
1.85
1.06
-0.18
-0.87
-0.38
1.21
3.19
4.72
5.33
5.17
4.89
5.12
6.09
7.47
8.62
9.07
8.84
8.45
8.61
9.68
11.35
12.78
13.00
11.52
8.67
5.51
3.30
2.92
4.36
6.78
8.88
9.57
8.40
5.76
2.65
0.27
-0.56
0.21
1.89
3.45
4.07
3.58
2.52
1.72
1.71
2.40
3.06
2.92
1.71
-0.07
-1.43
-1.47
0.02
2.32
4.21
4.55
2.90
-0.26
-3.71
-6.13
-6.67
-5.42
-3.31
-1.59
-1.19
-2.16
-3.75
-4.92
-4.99
-4.14
-3.28
-3.51
-5.29
-8.16
-10.86
-12.12
-11.39
-9.17
-6.76
-5.45
-5.82
-7.35
-8.77
-8.79
-6.88
-3.66
-0.51
1.17
0.77
-1.13
-3.10
-3.67
-2.17
0.92
4.23
6.34
6.51
5.07
3.13
1.84
1.73
2.43
2.97
2.42
0.55
-2.02
-4.13
-4.78
-3.69
-1.48
0.62
1.53
0.76
-1.27
-3.49
-4.83
-4.75
-3.55
-2.15
-1.55
-2.23
-3.87
-5.57
-6.36
-5.85
-4.40
-2.88
-2.10
-2.26
-2.77
-2.62
-1.04
1.94
5.38
7.90
8.41
6.69
3.49
0.17
-2.04
-2.62
-1.91
-0.80
-0.16
-0.35
-1.10
-1.74
-1.65
-0.72
0.58
1.44
1.19
-0.29
-2.39
-4.10
-4.48
-3.19
-0.74
1.81
3.37
3.41
2.25
0.83
0.14
0.60
1.87
3.09
3.46
2.78
1.56
0.69
0.80
1.87
3.21
3.87
3.29
1.60
-0.34
-1.52
-1.28
0.30
2.42
4.01
4.29
3.14
1.16
-0.67
-1.50
-1.06
0.24
1.53
2.07
1.61
0.56
-0.28
-0.22
0.82
2.24
3.10
2.70
1.00
-1.31
-3.21
-3.93
-3.33
-1.94
-0.65
-0.16
-0.69
-1.86
-3.00
-3.51
-3.18
-2.25
-1.27
-0.76
-0.93
-1.56
-2.09
-1.91
-0.73
1.23
3.28
4.60
4.66
3.53
1.87
0.60
0.41
1.34
2.82
3.91
3.88
2.60
0.62
-1.15
-1.97
-1.67
-0.70
0.18
0.42
-0.05
-0.80
-1.24
-1.04
-0.37
0.23
0.19
-0.68
-1.99
-3.04
-3.20
-2.40
-1.16
-0.32
-0.55
-1.90
-3.70
-4.92
-4.72
-2.96
-0.29
2.16
3.42
3.15
1.82
0.45
-0.05
0.72
2.33
3.82
4.19
2.99
0.58
-1.99
-3.56
-3.44
-1.80
0.45
2.15
2.50
1.47
-0.18
-1.39
-1.43
-0.25
1.45
2.67
2.64
1.32
-0.63
-2.20
-2.59
-1.69
-0.09
1.21
1.40
0.33
-1.39
-2.82
-3.22
-2.50
-1.28
-0.48
-0.70
-1.84
-3.14
-3.69
-2.98
-1.28
0.57
1.66
1.56
0.58
-0.44
-0.67
0.24
1.94
3.62
4.46
4.12
2.88
1.43
0.57
0.68
1.59
2.68
3.24
2.89
1.77
0.51
-0.21
-0.07
0.69
1.41
1.41
0.47
-1.02
-2.27
-2.52
-1.59
0.04
1.44
1.77
0.72
-1.25
-3.17
-4.07
-3.43
-1.52
0.82
2.61
3.22
2.71
1.69
0.94
0.89
1.38
1.77
1.38
-0.02
-2.09
-3.99
-4.94
-4.62
-3.33
-1.83
-0.86
-0.73
-1.15
-1.49
-1.13
0.10
1.75
3.04
3.20
2.01
-0.10
-2.23
-3.45
-3.29
-1.98
-0.29
0.88
0.96
0.05
-1.20
-1.97
-1.70
-0.42
1.29
2.60
2.95
2.29
1.10
0.10
-0.20
0.16
0.68
0.74
0.01
-1.23
-2.29
-2.46
-1.52
0.13
1.64
2.24
1.69
0.40
-0.84
-1.37
-1.04
-0.26
0.27
0.04
-0.97
-2.30
-3.31
-3.51
-2.86
-1.75
-0.71
-0.18
-0.24
-0.63
-0.92
-0.76
-0.09
0.80
1.37
1.15
-0.03
-1.83
-3.55
-4.43
-4.07
-2.68
-0.97
0.16
0.13
-1.02
-2.64
-3.86
-4.07
-3.23
-1.84
-0.65
-0.14
-0.32
-0.73
-0.83
-0.32
0.62
1.48
1.70
0.97
-0.56
-2.44
-4.12
-5.19
-5.59
-5.54
-5.42
-5.50
-5.88
-6.39
-6.71
-6.58
-5.88
-4.72
-3.42
-2.30
-1.55
-1.23
-1.16
-1.20
-1.27
-1.40
-1.67
-2.10
-2.51
-2.47
-1.38
1.23
5.29
9.93
13.48
14.12
10.83
4.20
-3.52
-9.38
-11.27
-9.08
-4.76
-1.05
0.32
-0.23
-0.57
1.49
6.36
12.10
15.50
14.30
8.90
2.30
-1.64
-0.64
4.60
10.88
14.54
13.60
8.81
2.88
-1.33
-2.45
-1.06
1.11
2.57
2.99
3.08
3.73
5.28
7.23
8.69
9.15
8.71
8.03
7.81
8.28
9.08
9.54
9.09
7.55
5.27
2.96
1.34
0.94
1.89
4.00
6.84
9.71
11.51
10.68
5.54
-4.83
-19.60
-35.67
-48.48
-53.75
-49.36
-36.32
-18.15
0.83
17.38
30.04
38.74
43.62
44.38
40.36
31.48
19.07
5.91
-4.67
-10.02
-9.25
-3.37
5.25
13.83
20.51
24.86
27.80
30.73
34.38
38.05
39.77
37.47
30.30
19.49
7.98
-1.21
-6.46
-8.23
-8.39
-8.68
-9.35
-9.23
-7.26
-4.35
-3.95
-10.65
-27.39
-53.00
-81.94
-106.47
-120.15
-120.48
-109.36
-91.29
-70.72
-50.34
-31.10
-13.39
1.63
12.00
15.94
13.22
5.58
-3.99
-12.73
-19.02
-22.31
-22.37
-18.64
-10.46
2.13
17.74
33.84
48.04
59.38
68.83
78.12
87.86
95.98
98.23
90.51
71.57
44.37
14.91
-10.74
-29.22
-40.84
-48.10
-53.18
-56.12
-55.03
-47.92
-34.78
-18.49
-3.62
5.86
8.52
5.83
0.97
-3.32
-6.06
-8.09
-10.85
-14.69
-18.22
-19.01
-15.27
-7.33
2.15
9.59
12.60
11.47
8.90
8.32
11.62
18.06
24.67
28.12
26.62
20.81
13.35
7.17
3.96
3.29
2.90
0.19
-5.98
-14.16
-20.67
-21.52
-14.92
-3.03
8.49
13.27
7.85
-5.80
-20.84
-29.10
-25.70
-12.00
4.95
16.20
16.01
4.90
-10.81
-22.56
-24.09
-14.26
3.21
22.26
37.58
46.05
46.49
38.45
22.11
-0.55
-24.50
-42.01
-45.31
-30.59
-0.76
34.92
64.57
78.78
74.31
54.56
27.10
-0.19
-21.91
-36.01
-42.84
-43.62
-39.53
-31.72
-21.73
-11.85
-4.83
-2.72
-5.52
-10.87
-14.79
-13.72
-6.45
5.41
18.59
29.99
38.09
42.86
44.61
43.06
37.28
26.90
13.45
0.25
-9.06
-12.69
-11.92
-10.33
-11.58
-17.07
-25.15
-32.17
-34.41
-30.04
-19.84
-6.77
5.46
14.18
18.95
21.63
25.35
32.37
42.38
52.10
56.53
51.59
36.48
14.52
-8.23
-25.89
-35.46
-37.71
-36.05
-33.95
-32.88
-31.82
-28.53
-21.67
-12.13
-2.96
2.28
1.59
-4.28
-12.08
-17.79
-18.78
-15.10
-9.27
-4.66
-3.49
-5.60
-8.80
-10.22
-8.05
-2.42
4.94
11.89
17.12
20.63
23.22
25.51
27.17
27.09
24.11
17.92
9.45
0.43
-7.43
-13.14
-16.53
-17.94
-17.70
-15.95
-12.76
-8.38
-3.15
2.90
10.37
19.91
31.30
42.58
50.53
52.08
46.11
34.31
20.26
7.37
-3.21
-12.98
-24.73
-39.96
-57.19
-72.16
-79.93
-77.61
-66.07
-49.61
-33.85
-23.23
-19.32
-20.71
-24.17
-26.69
-26.72
-24.46
-20.96
-16.39
-9.57
1.02
15.33
30.16
39.88
39.47
28.14
11.15
-2.09
-2.78
12.21
38.08
64.23
79.54
77.91
60.81
35.88
12.49
-2.92
-9.11
-9.35
-8.56
-10.24
-15.00
-21.00
-25.48
-26.46
-23.78
-18.61
-12.47
-6.46
-0.98
3.86
7.57
9.35
8.35
4.21
-2.58
-10.67
-18.32
-23.79
-26.02
-24.98
-21.67
-17.68
-14.43
-12.28
-10.35
-7.05
-1.21
6.74
14.41
18.06
14.37
2.30
-15.82
-34.85
-48.77
-52.80
-45.13
-27.39
-3.61
21.51
44.11
61.71
72.90
76.88
73.10
61.52
43.22
20.93
-1.24
-18.82
-28.31
-28.27
-19.68
-5.47
10.32
23.96
33.01
36.58
35.02
29.23
20.15
8.79
-3.54
-14.87
-22.82
-25.48
-22.78
-17.04
-12.14
-11.84
-17.86
-28.72
-40.22
-47.29
-46.26
-36.46
-20.33
-2.35
12.71
21.52
23.18
19.13
12.34
5.84
1.49
-0.62
-1.81
-3.66
-6.57
-8.98
-7.86
-0.47
13.43
30.66
45.55
52.62
49.41
37.95
23.59
12.05
6.29
5.36
5.64
3.84
-0.66
-5.51
-7.25
-3.96
3.22
10.66
14.70
13.96
10.21
7.08
7.64
12.18
17.77
19.89
15.01
2.85
-13.16
-27.24
-33.81
-30.13
-17.49
-0.72
14.17
22.60
23.36
18.60
12.18
7.16
4.33
2.48
-0.13
-4.07
-8.24
-10.71
-10.27
-7.48
-4.46
-3.63
-6.10
-11.00
-15.89
-18.08
-15.96
-9.80
-1.67
5.41
8.76
7.22
1.68
-5.31
-10.95
-13.69
-13.95
-13.56
-14.25
-16.38
-18.62
-19.08
-16.49
-11.23
-5.09
-0.12
2.36
2.13
-0.17
-3.65
-7.43
-10.77
-13.22
-14.90
-16.75
-20.25
-26.43
-34.98
-43.93
-50.38
-51.96
-47.99
-39.55
-28.62
-16.81
-4.78
7.29
18.50
26.53
28.42
22.41
9.70
-5.25
-16.37
-18.75
-11.04
3.95
20.82
34.22
41.07
41.23
36.68
29.80
22.06
13.85
5.13
-3.56
-10.77
-14.64
-13.94
-9.03
-1.97
4.27
7.25
6.53
3.94
2.72
5.65
13.37
23.76
32.74
36.41
32.95
23.59
11.99
2.76
-0.34
4.61
17.54
36.78
59.53
82.01
99.82
108.80
106.29
92.18
69.18
41.83
14.85
-8.26
-25.90
-38.08
-45.44
-48.75
-48.75
-46.37
-42.86
-39.51
-36.93
-34.64
-31.23
-25.25
-16.34
-5.75
4.00
10.15
10.88
6.02
-3.04
-14.10
-25.17
-35.00
-43.02
-48.93
-52.26
-52.29
-48.62
-41.62
-32.78
-24.25
-18.13
-15.49
-15.99
-18.09
-19.71
-19.28
-16.48
-12.39
-8.92
-7.87
-9.88
-14.21
-19.28
-23.75
-27.32
-30.85
-35.48
-41.57
-48.16
-53.57
-56.71
-57.93
-58.71
-59.90
-59.78
-54.02
-38.05
-10.49
24.71
59.44
85.41
98.40
99.91
95.26
89.57
84.66
79.30
71.93
63.76
59.00
61.96
73.22
88.05
98.74
99.24
88.74
71.50
53.46
38.27
25.53
12.33
-3.53
-21.20
-37.12
-47.81
-52.53
-53.74
-55.16
-58.90
-63.67
-65.92
-62.53
-52.95
-39.70
-26.62
-16.48
-9.53
-3.86
3.28
13.84
28.17
44.86
60.99
72.56
75.25
65.93
44.51
15.08
-14.96
-37.80
-48.55
-47.52
-39.55
-31.11
-26.73
-27.07
-29.56
-30.80
-28.77
-23.78
-17.60
-11.79
-6.65
-1.50
4.49
11.07
16.69
19.05
16.18
7.38
-6.32
-22.41
-37.72
-49.34
-55.48
-55.98
-52.29
-46.78
-41.92
-39.29
-39.08
-40.21
-40.88
-39.50
-35.35
-28.73
-20.61
-12.09
-4.07
2.76
7.78
10.54
10.97
9.72
8.04
7.33
8.40
11.00
14.02
16.21
17.10
17.30
18.08
20.39
23.97
27.38
28.67
26.63
21.48
14.97
9.50
7.02
8.18
12.10
16.82
20.29
21.21
19.55
16.36
13.13
11.00
10.22
10.14
9.86
8.87
7.54
6.88
7.85
10.61
14.22
17.05
17.71
15.94
12.87
10.37
10.06
12.29
15.95
19.07
20.00
18.36
15.23
12.43
11.37
12.15
13.59
13.98
12.24
8.65
4.70
2.20
2.13
3.93
5.75
5.50
2.06
-4.08
-10.93
-15.93
-17.11
-13.95
-7.51
0.08
6.45
10.02
10.45
8.60
6.33
5.94
9.52
18.07
30.88
45.43
58.19
65.89
66.88
61.75
53.12
44.62
39.46
39.23
43.49
49.99
55.48
56.81
51.87
40.35
23.87
5.48
-11.40
-24.20
-32.01
-35.65
-36.79
-36.96
-36.95
-36.60
-35.33
-32.73
-29.13
-25.77
-24.63
-27.71
-36.58
-51.37
-70.09
-88.84
-102.93
-108.88
-105.78
-95.85
-83.70
-74.89
-73.91
-82.69
-99.87
-121.00
-139.84
-149.89
-146.35
-127.50
-95.28
-54.70
-12.28
25.78
55.21
74.15
82.97
83.51
78.42
70.75
63.32
57.91
54.53
51.66
46.84
37.99
24.57
8.08
-8.35
-21.26
-28.12
-28.21
-22.65
-13.86
-4.57
2.93
7.35
8.49
7.12
4.65
2.73
2.78
5.56
11.01
18.15
25.48
31.40
34.69
34.96
32.68
28.98
25.23
22.48
21.13
20.90
21.02
20.65
19.33
17.20
14.83
12.83
11.49
10.55
9.38
7.40
4.39
0.72
-2.85
-5.63
-7.45
-8.78
-10.59
-13.69
-18.28
-23.54
-27.72
-28.87
-25.60
-17.91
-7.31
3.76
12.88
18.72
21.46
22.41
23.06
24.07
25.03
24.80
22.53
18.37
13.67
10.32
9.72
12.01
15.94
19.52
20.95
19.37
15.12
9.30
3.06
-2.94
-8.80
-14.97
-21.74
-28.79
-35.10
-39.36
-40.58
-38.65
-34.37
-29.16
-24.48
-21.25
-19.67
-19.32
-19.54
-19.74
-19.67
-19.25
-18.27
-15.97
-11.04
-2.06
11.69
29.31
48.09
64.16
73.95
75.64
69.97
59.85
48.86
39.57
32.56
26.58
19.67
10.57
-0.53
-12.16
-22.43
-29.94
-34.21
-35.48
-34.17
-30.36
-23.68
-13.80
-1.31
11.56
20.75
21.64
11.22
-9.50
-34.76
-55.67
-64.00
-56.08
-34.63
-7.44
16.83
32.79
40.32
43.17
45.25
47.14
45.46
35.39
14.82
-12.88
-39.50
-55.68
-55.57
-39.76
-14.90
9.66
26.29
32.03
28.99
22.00
15.43
10.98
7.57
2.94
-4.20
-12.89
-20.28
-23.22
-20.11
-11.92
-1.84
6.20
9.47
7.74
3.13
-1.17
-2.59
-0.52
3.69
7.62
9.32
8.30
5.63
3.19
2.41
3.55
5.60
6.97
6.40
3.66
-0.33
-4.08
-6.31
-6.65
-5.75
-4.90
-5.26
-7.23
-10.15
-12.75
-13.88
-13.15
-11.23
-9.40
-8.83
-9.86
-11.86
-13.57
-13.90
-12.58
-10.31
-8.38
-7.82
-8.86
-10.73
-12.09
-11.82
-9.64
-6.27
-3.08
-1.32
-1.40
-2.70
-3.90
-3.75
-1.81
1.28
4.15
5.45
4.58
2.04
-0.92
-2.99
-3.49
-2.71
-1.65
-1.43
-2.61
-5.01
-7.90
-10.53
-12.64
-14.49
-16.60
-19.19
-21.77
-23.22
-22.37
-18.69
-12.83
-6.47
-1.53
0.85
1.03
0.79
2.50
7.90
17.14
28.65
39.85
48.29
52.66
53.07
50.60
46.45
41.27
35.05
27.55
18.90
10.04
2.56
-2.00
-2.95
-0.95
2.18
4.21
3.56
0.07
-4.97
-9.45
-11.59
-10.73
-7.68
-4.14
-1.76
-1.30
-2.28
-3.40
-3.34
-1.51
1.62
4.83
6.81
6.93
5.45
3.38
1.80
1.25
1.38
1.24
-0.17
-3.10
-6.79
-9.81
-10.77
-9.17
-5.76
-2.17
-0.08
-0.29
-2.41
-5.06
-6.77
-6.80
-5.49
-3.98
-3.47
-4.43
-6.30
-7.90
-8.11
-6.57
-3.93
-1.45
-0.29
-0.81
-2.53
-4.35
-5.31
-5.13
-4.34
-3.91
-4.65
-6.65
-9.16
-10.93
-10.87
-8.66
-4.94
-1.02
1.75
2.75
2.33
1.57
1.66
3.13
5.58
7.85
8.76
7.83
5.61
3.35
2.35
3.18
5.36
7.65
8.69
7.82
5.39
2.56
0.64
0.38
1.58
3.29
4.39
4.23
2.95
1.35
0.33
0.36
1.23
2.22
2.52
1.71
0.06
-1.73
-2.86
-2.90
-2.01
-0.84
-0.17
-0.41
-1.45
-2.67
-3.32
-2.92
-1.60
0.05
1.26
1.58
1.13
0.59
0.73
1.96
3.99
5.94
6.82
6.11
4.13
1.93
0.65
0.90
2.34
3.86
4.23
2.87
0.20
-2.58
-4.22
-4.14
-2.83
-1.46
-1.22
-2.57
-4.97
-7.23
-8.27
-7.66
-5.95
-4.22
-3.50
-4.15
-5.68
-7.06
-7.33
-6.08
-3.73
-1.29
0.24
0.33
-0.72
-2.02
-2.54
-1.72
0.16
2.17
3.21
2.69
0.91
-1.03
-1.88
-0.97
1.35
3.90
5.29
4.79
2.68
0.16
-1.47
-1.53
-0.37
0.90
1.18
0.02
-2.02
-3.80
-4.30
-3.27
-1.40
0.16
0.45
-0.67
-2.54
-4.04
-4.30
-3.19
-1.34
0.28
0.89
0.35
-0.81
-1.74
-1.72
-0.60
1.18
2.84
3.63
3.27
2.02
0.59
-0.27
-0.09
1.02
2.46
3.44
3.41
2.38
0.97
0.05
0.21
1.40
2.87
3.66
3.15
1.54
-0.22
-1.00
-0.20
1.84
3.95
4.88
4.02
1.84
-0.38
-1.32
-0.40
1.85
4.15
5.18
4.38
2.19
-0.20
-1.58
-1.37
0.07
1.75
2.61
2.19
0.80
-0.67
-1.33
-0.80
0.60
2.02
2.60
1.97
0.46
-1.18
-2.16
-2.16
-1.51
-0.88
-0.92
-1.75
-2.94
-3.69
-3.39
-1.99
-0.09
1.34
1.53
0.31
-1.68
-3.39
-3.86
-2.77
-0.63
1.47
2.45
1.79
-0.13
-2.32
-3.69
-3.66
-2.52
-1.18
-0.67
-1.48
-3.32
-5.22
-6.17
-5.68
-4.06
-2.23
-1.22
-1.50
-2.77
-4.11
-4.57
-3.69
-1.76
0.30
1.58
1.66
0.85
-0.00
-0.06
1.00
2.73
4.19
4.52
3.44
1.47
-0.32
-0.92
0.04
2.06
4.03
4.86
4.08
2.11
0.03
-1.04
-0.57
1.06
2.84
3.69
3.15
1.58
0.01
-0.53
0.42
2.39
4.25
4.87
3.78
1.48
-0.85
-1.96
-1.35
0.47
2.31
2.95
1.94
-0.13
-1.99
-2.43
-1.04
1.51
3.87
4.78
3.77
1.39
-1.10
-2.51
-2.30
-0.89
0.67
1.35
0.66
-0.99
-2.64
-3.32
-2.63
-0.97
0.71
1.38
0.63
-1.21
-3.17
-4.25
-3.90
-2.37
-0.54
0.59
0.39
-1.00
-2.81
-4.07
-4.14
-3.07
-1.57
-0.55
-0.63
-1.69
-2.97
-3.47
-2.62
-0.64
1.56
2.85
2.60
1.05
-0.78
-1.71
-1.12
0.72
2.82
4.03
3.76
2.29
0.55
-0.45
-0.17
1.09
2.48
3.10
2.51
0.96
-0.79
-1.89
-1.90
-0.97
0.21
0.87
0.57
-0.52
-1.73
-2.22
-1.56
-0.00
1.62
2.34
1.68
-0.02
-1.78
-2.50
-1.68
0.30
2.38
3.42
2.89
1.15
-0.77
-1.82
-1.49
-0.13
1.30
1.79
0.89
-1.08
-3.15
-4.27
-3.88
-2.22
-0.24
0.99
0.83
-0.53
-2.15
-2.90
-2.15
-0.14
2.12
3.47
3.28
1.82
0.09
-0.78
-0.24
1.43
3.24
4.14
3.59
1.89
-0.05
-1.22
-1.07
0.19
1.74
2.57
2.10
0.50
-1.43
-2.67
-2.57
-1.25
0.49
1.67
1.69
0.75
-0.32
-0.55
0.50
2.49
4.42
5.29
4.63
2.85
0.96
-0.06
0.22
1.40
2.56
2.75
1.58
-0.59
-2.87
-4.36
-4.60
-3.79
-2.73
-2.24
-2.76
-4.08
-5.44
-5.98
-5.23
-3.51
-1.64
-0.59
-0.82
-2.02
-3.24
-3.50
-2.39
-0.37
1.52
2.26
1.46
-0.39
-2.21
-2.98
-2.28
-0.51
1.34
2.32
1.97
0.55
-1.13
-2.18
-2.06
-0.87
0.67
1.68
1.57
0.43
-0.99
-1.69
-0.99
0.97
3.29
4.75
4.60
2.98
0.89
-0.43
-0.26
1.20
2.95
3.81
3.16
1.29
-0.81
-2.09
-2.02
-0.88
0.45
1.03
0.44
-1.00
-2.43
-2.96
-2.18
-0.48
1.20
1.88
1.14
-0.61
-2.30
-2.86
-1.80
0.48
2.88
4.28
4.08
2.57
0.66
-0.61
-0.68
0.28
1.53
2.20
1.81
0.59
-0.71
-1.20
-0.42
1.28
2.95
3.47
2.31
-0.12
-2.64
-3.93
-3.40
-1.57
0.15
0.25
-1.93
-5.80
-9.80
-12.27
-12.37
-10.54
-8.28
-7.27
-8.48
-11.60
-15.18
-17.46
-17.30
-14.88
-11.65
-9.59
-10.23
-13.89
-19.57
-25.47
-29.73
-30.96
-28.43
-21.99
-12.01
0.42
13.43
24.46
30.96
31.38
25.89
16.61
6.94
0.30
-1.05
3.25
11.68
21.45
29.53
33.62
32.78
27.61
19.84
11.49
4.19
-1.36
-5.18
-7.62
-8.83
-8.78
-7.46
-5.36
-3.65
-3.63
-6.07
-10.51
-15.02
-16.98
-14.03
-5.23
8.44
24.31
38.86
48.86
52.43
49.53
41.86
32.17
23.14
16.47
12.44
10.18
8.59
7.23
6.85
9.02
15.14
25.17
36.85
46.01
48.04
39.75
20.95
-5.08
-32.65
-55.47
-68.75
-70.50
-61.69
-45.33
-25.19
-4.89
12.54
24.52
29.10
25.35
14.16
-1.52
-17.12
-27.93
-30.89
-25.78
-15.24
-3.56
5.26
9.05
8.01
3.99
-0.80
-4.93
-8.10
-10.85
-13.68
-16.51
-18.52
-18.66
-16.30
-11.79
-6.40
-1.77
0.90
1.42
0.72
0.26
1.19
3.70
6.84
9.05
9.06
6.53
2.32
-2.06
-5.22
-6.67
-6.94
-7.12
-8.11
-10.04
-12.15
-13.29
-12.62
-10.13
-6.71
-3.71
-2.21
-2.50
-4.08
-5.95
-7.24
-7.65
-7.51
-7.40
-7.56
-7.54
-6.27
-2.61
3.97
12.91
22.66
31.35
37.72
41.51
43.55
45.06
46.89
48.79
49.09
45.26
35.00
17.48
-5.72
-30.96
-53.71
-70.36
-79.60
-82.45
-81.16
-77.56
-72.03
-63.76
-51.95
-37.14
-21.53
-7.97
1.74
7.88
12.64
18.55
26.90
36.89
46.11
51.99
53.43
51.35
48.27
46.83
48.02
50.35
50.09
43.08
27.08
3.40
-22.95
-45.11
-57.24
-56.99
-46.25
-29.83
-12.97
1.00
11.28
18.68
23.90
26.40
24.64
17.53
5.84
-7.40
-17.91
-22.10
-18.66
-9.14
2.79
13.10
18.98
19.76
16.67
11.88
7.27
3.66
0.72
-2.47
-6.58
-11.51
-16.26
-19.47
-20.17
-18.36
-15.16
-12.31
-11.25
-12.35
-14.62
-16.23
-15.39
-11.32
-4.58
3.36
10.92
17.12
21.84
25.35
27.76
28.62
27.12
22.74
15.98
8.55
2.88
1.08
3.88
10.24
17.60
23.04
24.35
20.97
13.95
5.29
-3.10
-10.13
-15.57
-19.49
-21.55
-20.76
-16.00
-6.88
5.48
18.50
29.15
35.06
35.55
31.85
26.35
21.62
19.70
21.86
28.45
38.92
51.52
63.21
69.94
67.55
52.98
25.24
-14.21
-61.62
-111.42
-157.00
-191.66
-209.70
-207.68
-185.53
-146.85
-98.28
-47.85
-2.82
31.93
54.81
67.02
71.43
71.32
69.58
68.23
68.37
69.95
71.30
68.93
58.50
36.56
2.90
-38.03
-77.80
-106.93
-118.64
-111.63
-90.11
-61.42
-32.63
-7.99
11.43
26.25
37.10
43.78
45.65
42.72
36.31
28.77
22.58
19.36
19.45
22.04
25.74
28.96
30.47
29.68
26.88
23.15
19.95
18.35
18.39
18.95
18.36
15.29
9.62
2.56
-3.94
-8.23
-9.74
-9.25
-8.29
-8.30
-9.84
-12.30
-14.33
-14.63
-12.66
-8.95
-4.76
-1.34
0.71
1.82
3.17
5.94
10.63
16.73
22.91
27.60
29.76
29.25
26.83
23.68
20.87
18.89
17.62
16.59
15.33
13.81
12.44
11.92
12.88
15.47
19.23
23.21
26.35
27.72
26.74
23.05
16.49
7.14
-4.38
-16.65
-27.39
-34.08
-34.91
-29.75
-20.44
-10.17
-2.14
1.86
2.02
0.02
-2.21
-3.82
-5.45
-8.82
-15.42
-25.46
-37.55
-49.15
-57.72
-61.83
-61.77
-59.31
-56.91
-56.57
-58.89
-62.92
-66.76
-68.60
-67.60
-63.98
-58.58
-52.10
-44.66
-36.00
-26.19
-16.09
-7.13
-0.52
3.72
6.89
10.96
17.23
25.49
33.99
40.50
43.49
42.94
40.07
36.53
33.47
31.15
29.09
26.71
23.87
20.93
18.50
17.04
16.58
16.73
16.96
16.84
16.26
15.40
14.57
13.92
13.37
12.52
10.96
8.49
5.42
2.55
1.01
1.70
4.87
9.88
15.32
19.55
21.39
20.63
18.15
15.62
14.69
16.29
20.18
25.13
29.54
32.28
33.29
33.52
34.45
37.06
41.28
45.87
48.96
49.09
45.85
40.28
34.41
30.70
31.15
36.75
46.93
59.26
69.55
72.49
63.28
39.66
3.67
-38.10
-76.36
-102.54
-112.02
-105.64
-88.63
-67.77
-48.38
-32.90
-21.35
-12.92
-7.41
-5.42
-7.39
-12.63
-18.99
-23.75
-25.06
-22.87
-18.78
-15.08
-13.57
-14.75
-17.90
-21.70
-24.89
-26.73
-27.14
-26.43
-24.97
-22.99
-20.50
-17.45
-13.93
-10.30
-7.13
-5.05
-4.40
-5.13
-6.86
-9.07
-11.35
-13.51
-15.52
-17.29
-18.56
-18.94
-18.14
-16.24
-13.72
-11.32
-9.71
-9.15
-9.46
-10.08
-10.41
-9.98
-8.57
-6.18
-2.92
1.10
5.68
10.57
15.32
19.39
22.20
23.33
22.68
20.44
17.15
13.49
10.10
7.43
5.61
4.48
3.74
3.11
2.50
2.07
2.04
2.56
3.48
4.44
5.03
5.01
4.51
3.91
3.59
3.69
4.04
4.25
4.00
3.26
2.30
1.54
1.31
1.64
2.27
2.81
2.94
2.61
2.00
1.39
1.02
0.94
1.02
1.03
0.82
0.39
-0.10
-0.38
-0.27
0.27
1.04
1.72
2.00
1.75
1.10
0.40
0.06
0.30
1.06
2.00
2.72
2.94
2.70
2.31
2.18
2.52
3.29
4.11
4.55
4.30
3.34
1.88
0.31
-1.11
-2.22
-3.11
-3.89
-4.64
-5.33
-5.80
-5.90
-5.60
-5.03
-4.49
-4.25
-4.45
-4.98
-5.54
-5.76
-5.39
-4.51
-3.44
-2.60
-2.25
-2.35
-2.56
-2.44
-1.78
-0.64
0.61
1.57
2.06
2.21
2.36
2.85
3.74
4.79
5.54
5.66
5.04
3.94
2.80
1.99
1.68
1.74
1.85
1.71
1.22
0.54
0.03
0.00
0.57
1.55
2.55
3.15
3.11
2.50
1.64
0.94
0.69
0.91
1.40
1.81
1.84
1.40
0.67
-0.06
-0.52
-0.66
-0.63
-0.71
-1.04
-1.58
-2.04
-2.08
-1.56
-0.65
0.20
0.58
0.27
-0.55
-1.42
-1.86
-1.66
-0.97
-0.23
0.09
-0.24
-1.07
-1.97
-2.48
-2.37
-1.75
-1.00
-0.57
-0.69
-1.24
-1.83
-2.08
-1.80
-1.11
-0.40
-0.03
-0.17
-0.64
-1.06
-1.03
-0.40
0.67
1.78
2.50
2.62
2.21
1.59
1.14
1.12
1.53
2.14
2.62
2.67
2.24
1.49
0.75
0.33
0.36
0.68
0.99
0.99
0.58
-0.05
-0.54
-0.61
-0.26
0.20
0.33
-0.15
-1.13
-2.16
-2.71
-2.46
-1.54
-0.38
0.47
0.67
0.23
-0.51
-1.16
-1.41
-1.24
-0.87
-0.61
-0.67
-1.04
-1.47
-1.63
-1.31
-0.52
0.43
1.11
1.22
0.74
-0.01
-0.57
-0.57
-0.01
0.84
1.51
1.64
1.18
0.39
-0.28
-0.47
-0.11
0.54
1.06
1.11
0.59
-0.25
-0.99
-1.24
-0.91
-0.22
0.41
0.63
0.32
-0.28
-0.76
-0.79
-0.33
0.37
0.89
0.93
0.49
-0.13
-0.54
-0.45
0.06
0.65
0.93
0.68
0.01
-0.71
-1.04
-0.75
0.02
0.86
1.33
1.17
0.52
-0.22
-0.58
-0.32
0.44
1.23
1.57
1.16
0.12
-1.09
-1.91
-1.95
-1.22
-0.09
0.85
1.20
0.85
0.12
-0.53
-0.70
-0.33
0.30
0.75
0.68
0.09
-0.70
-1.24
-1.17
-0.51
0.40
1.06
1.11
0.55
-0.27
-0.84
-0.79
-0.12
0.85
1.58
1.72
1.20
0.34
-0.38
-0.56
-0.15
0.58
1.22
1.43
1.15
0.62
0.19
0.16
0.53
1.02
1.25
0.91
0.01
-1.11
-1.98
-2.21
-1.76
-0.91
-0.12
0.23
0.06
-0.39
-0.74
-0.70
-0.26
0.31
0.61
0.37
-0.39
-1.37
-2.18
-2.47
-2.20
-1.57
-0.92
-0.52
-0.45
-0.54
-0.54
-0.27
0.28
0.89
1.27
1.22
0.79
0.25
-0.01
0.27
1.09
2.10
2.85
2.93
2.28
1.20
0.22
-0.20
0.08
0.82
1.49
1.66
1.19
0.35
-0.37
-0.59
-0.20
0.50
1.02
0.99
0.37
-0.50
-1.12
-1.11
-0.44
0.55
1.37
1.63
1.28
0.62
0.08
-0.02
0.33
0.78
0.90
0.39
-0.69
-1.95
-2.88
-3.17
-2.85
-2.28
-1.92
-2.05
-2.60
-3.22
-3.49
-3.18
-2.36
-1.36
-0.58
-0.27
-0.39
-0.66
-0.72
-0.32
0.50
1.48
2.23
2.48
2.16
1.47
0.75
0.32
0.31
0.65
1.13
1.51
1.67
1.64
1.60
1.73
2.07
2.50
2.76
2.57
1.84
0.77
-0.26
-0.84
-0.74
-0.09
0.72
1.25
1.25
0.77
0.14
-0.29
-0.35
-0.12
0.10
0.06
-0.31
-0.80
-1.06
-0.83
-0.11
0.84
1.61
1.89
1.62
0.98
0.34
0.00
0.06
0.39
0.77
0.96
0.89
0.66
0.43
0.38
0.54
0.84
1.13
1.30
1.33
1.27
1.23
1.29
1.40
1.49
1.47
1.32
1.12
1.01
1.05
1.19
1.20
0.81
-0.19
-1.75
-3.53
-4.94
-5.33
-4.26
-1.71
1.77
5.25
7.65
8.12
6.33
2.58
-2.26
-7.09
-10.89
-13.13
-13.78
-13.27
-12.20
-11.01
-9.87
-8.77
-7.66
-6.66
-6.00
-5.93
-6.43
-7.18
-7.65
-7.40
-6.41
-5.17
-4.42
-4.72
-6.10
-8.05
-9.79
-10.71
-10.67
-10.01
-9.25
-8.83
-8.87
-9.14
-9.27
-8.82
-7.45
-4.97
-1.39
2.95
7.39
11.04
13.00
12.66
9.90
5.04
-1.25
-8.19
-14.96
-20.90
-25.55
-28.87
-31.29
-33.65
-36.71
-40.83
-45.74
-50.56
-54.34
-56.46
-56.79
-55.47
-52.67
-48.32
-42.26
-34.73
-26.75
-20.12
-16.75
-17.79
-22.90
-30.25
-37.42
-42.84
-46.70
-50.85
-57.66
-68.44
-82.22
-95.64
-103.94
-102.49
-87.89
-58.59
-15.16
39.28
98.66
153.77
193.53
208.08
192.78
151.34
95.75
42.43
5.86
-6.95
1.74
22.98
46.59
65.99
79.96
90.62
99.66
105.75
104.92
93.46
71.08
42.34
14.87
-4.23
-11.75
-9.43
-2.51
3.18
4.03
-0.20
-6.94
-12.67
-14.79
-12.62
-7.43
-1.52
3.04
5.16
5.03
3.85
3.15
4.05
6.81
10.77
14.71
17.46
18.38
17.62
15.81
13.65
11.53
9.47
7.39
5.51
4.34
4.47
6.11
8.83
11.66
13.57
13.90
12.53
9.76
6.02
1.74
-2.58
-6.24
-8.37
-8.26
-5.76
-1.55
3.07
6.72
8.54
8.50
7.21
5.36
3.36
1.21
-1.23
-3.94
-6.52
-8.40
-9.10
-8.54
-7.10
-5.51
-4.51
-4.61
-5.82
-7.74
-9.75
-11.24
-11.94
-12.04
-11.98
-12.16
-12.61
-12.89
-12.32
-10.48
-7.53
-4.36
-2.17
-1.88
-3.59
-6.50
-9.22
-10.52
-9.90
-7.82
-5.42
-3.87
-3.82
-5.16
-7.23
-9.42
-11.51
-13.74
-16.41
-19.36
-21.67
-21.95
-19.02
-12.69
-3.98
5.15
12.72
17.51
19.53
19.83
19.73
20.08
20.93
21.56
21.24
19.71
17.58
16.01
16.11
18.26
21.74
24.97
26.14
23.98
18.36
10.31
1.70
-5.56
-10.14
-11.69
-10.81
-8.65
-6.31
-4.43
-3.01
-1.77
-0.64
-0.15
-1.21
-4.48
-9.57
-14.80
-17.72
-16.37
-10.40
-1.44
7.64
14.17
17.15
17.60
17.87
20.17
25.23
31.93
38.05
41.53
41.64
39.27
36.22
34.27
34.45
36.77
40.68
45.42
50.04
53.20
53.11
48.03
37.20
21.57
3.83
-12.61
-25.18
-33.26
-38.28
-42.73
-48.55
-56.04
-63.67
-68.95
-69.71
-65.12
-56.16
-45.42
-36.23
-31.47
-32.45
-38.41
-46.64
-53.29
-54.83
-49.26
-36.73
-19.58
-1.55
13.58
23.17
26.57
25.07
20.96
16.30
12.09
8.34
4.89
2.28
1.89
5.12
12.04
20.63
27.47
29.52
25.99
18.94
12.31
9.89
13.31
21.53
31.68
40.61
46.12
47.46
45.16
40.54
35.27
31.08
29.47
31.10
35.45
40.69
44.02
42.72
35.11
21.14
2.31
-18.85
-39.64
-57.82
-71.81
-80.66
-83.87
-81.50
-74.33
-63.95
-52.55
-42.59
-36.02
-33.62
-34.93
-38.39
-41.80
-43.11
-41.07
-35.63
-27.90
-19.67
-12.61
-7.85
-5.33
-4.49
-4.56
-5.02
-5.77
-6.35
-5.44
-1.32
6.51
16.40
24.77
27.72
23.20
12.18
-1.86
-14.72
-23.40
-27.19
-27.18
-25.36
-23.19
-21.05
-18.46
-14.63
-9.10
-2.13
5.39
12.43
18.26
22.78
26.57
30.16
33.39
35.06
33.66
28.62
21.24
14.12
9.69
8.84
10.39
12.12
12.38
10.99
9.14
8.33
9.09
10.74
12.02
12.11
11.09
9.85
9.32
9.89
11.18
12.39
12.84
12.32
11.01
9.21
7.00
4.15
0.46
-3.97
-8.57
-12.41
-14.55
-14.59
-12.79
-9.92
-7.01
-4.93
-4.13
-4.55
-5.73
-7.05
-8.03
-8.54
-8.69
-8.75
-8.98
-9.49
-10.24
-11.08
-11.78
-12.09
-11.88
-11.21
-10.36
-9.72
-9.59
-9.92
-10.24
-9.91
-8.56
-6.53
-4.81
-4.53
-6.20
-9.38
-12.68
-14.61
-14.35
-12.16
-9.31
-7.38
-7.42
-9.50
-12.69
-15.53
-16.72
-15.67
-12.56
-8.29
-3.87
0.07
3.52
7.03
11.34
16.56
22.06
26.74
29.55
30.19
29.30
28.08
27.62
28.31
29.75
31.10
31.63
31.14
30.02
29.01
28.82
29.75
31.58
33.59
34.92
35.11
34.35
33.52
33.58
34.85
36.85
38.37
38.19
35.84
31.79
27.25
23.36
20.33
17.23
12.74
5.98
-2.66
-11.39
-17.85
-20.45
-19.28
-16.15
-13.64
-13.61
-16.32
-20.47
-24.19
-26.27
-26.95
-27.35
-28.48
-30.44
-32.24
-32.59
-30.96
-27.98
-25.24
-24.32
-25.94
-29.54
-33.61
-36.53
-37.14
-35.17
-31.04
-25.57
-19.60
-13.90
-9.24
-6.38
-5.82
-7.53
-10.81
-14.39
-17.09
-18.28
-18.11
-17.16
-15.84
-13.94
-10.74
-5.74
0.65
6.91
11.28
12.79
11.92
10.28
9.58
10.60
12.90
15.28
16.80
17.38
17.80
19.17
22.07
26.27
30.92
35.13
38.40
40.75
42.49
43.80
44.57
44.45
42.99
40.00
35.76
31.17
27.52
25.86
26.20
27.34
27.29
24.26
17.81
9.08
0.29
-6.46
-10.24
-11.64
-12.12
-12.98
-14.49
-15.76
-15.38
-12.38
-6.97
-0.66
4.40
6.36
4.31
-1.53
-10.10
-20.01
-29.93
-38.65
-45.10
-48.25
-47.28
-42.01
-33.15
-22.36
-11.83
-3.57
1.15
1.98
-0.62
-5.78
-12.43
-19.41
-25.52
-29.72
-31.39
-30.53
-27.70
-23.70
-19.33
-15.18
-11.74
-9.43
-8.50
-8.83
-9.64
-9.68
-7.84
-4.09
0.15
2.42
0.33
-7.14
-19.00
-32.65
-45.10
-54.08
-58.72
-59.26
-56.34
-50.48
-41.89
-30.87
-18.21
-5.20
6.69
16.30
23.23
27.78
30.53
31.93
32.10
30.88
28.12
24.11
19.75
16.32
15.01
16.36
20.05
24.87
29.25
31.81
31.80
29.19
24.63
19.16
13.95
10.01
7.93
7.67
8.57
9.52
9.54
8.25
6.00
3.64
1.92
0.88
-0.17
-2.15
-5.47
-9.56
-13.02
-14.38
-13.02
-9.63
-5.83
-3.24
-2.63
-3.47
-4.39
-4.13
-2.27
0.54
3.09
4.46
4.55
4.13
4.40
6.19
9.55
13.61
17.02
18.53
17.51
14.25
9.73
5.16
1.47
-1.03
-2.59
-3.75
-4.95
-6.29
-7.67
-8.98
-10.27
-11.79
-13.71
-15.90
-17.89
-19.09
-19.04
-17.80
-15.91
-14.25
-13.67
-14.49
-16.31
-17.99
-18.04
-15.35
-9.85
-2.74
3.91
7.96
8.36
5.54
1.25
-2.33
-3.52
-1.85
2.00
6.55
10.10
11.35
9.72
5.77
0.96
-2.86
-4.38
-3.60
-1.89
-1.16
-2.58
-5.71
-8.46
-8.51
-4.65
2.27
9.71
14.96
16.78
15.71
13.39
11.35
10.24
10.03
10.81
12.94
16.86
22.49
29.02
35.07
39.37
40.88
38.97
33.33
24.05
11.90
-1.19
-12.61
-19.99
-22.32
-20.62
-17.25
-14.37
-12.95
-12.91
-14.29
-18.04
-25.60
-37.42
-51.50
-63.61
-68.96
-64.81
-52.14
-35.58
-21.24
-13.99
-15.39
-23.52
-34.30
-43.64
-48.95
-49.61
-46.43
-40.62
-33.19
-25.10
-17.93
-13.94
-15.68
-24.52
-39.54
-57.05
-71.68
-78.14
-72.88
-55.29
-27.91
3.83
33.03
53.53
61.98
58.89
48.10
34.82
22.87
13.15
3.87
-7.45
-21.43
-35.28
-43.49
-40.26
-22.62
7.09
41.07
68.36
79.40
70.57
46.56
18.83
0.33
-0.74
14.74
37.89
57.33
65.58
62.69
54.85
49.66
50.89
56.63
61.31
59.82
50.79
37.08
23.96
15.91
14.54
18.22
23.33
26.29
25.27
20.87
15.59
12.44
13.47
18.84
26.68
34.12
38.55
38.69
34.77
28.04
20.09
12.22
5.22
-0.56
-5.13
-8.88
-12.57
-17.10
-23.02
-29.99
-36.59
-40.67
-40.28
-34.66
-24.74
-12.91
-2.10
5.36
8.57
8.13
5.59
2.58
0.06
-1.92
-3.93
-6.57
-9.95
-13.60
-16.75
-18.75
-19.46
-19.35
-19.22
-19.69
-20.94
-22.49
-23.52
-23.19
-21.14
-17.62
-13.50
-9.83
-7.38
-6.31
-6.09
-5.73
-4.33
-1.55
2.15
5.72
8.04
8.47
7.14
4.90
2.75
1.29
0.46
-0.29
-1.55
-3.37
-5.08
-5.51
-3.50
1.51
9.10
17.87
25.85
31.10
32.30
29.07
21.94
12.17
1.39
-8.62
-16.17
-19.76
-18.34
-11.64
-0.50
13.05
26.14
35.85
40.15
38.61
32.43
23.96
15.78
9.91
7.24
7.53
9.76
12.57
14.83
15.88
15.62
14.48
13.13
12.18
12.02
12.79
14.60
17.62
22.07
28.00
35.14
42.91
50.60
57.75
64.42
70.94
77.53
83.66
87.79
87.89
82.28
70.82
55.49
39.95
28.33
23.44
25.57
32.32
39.88
44.93
46.35
45.54
45.04
46.34
48.21
46.32
34.90
9.73
-29.26
-77.05
-125.00
-164.13
-188.45
-196.80
-192.36
-180.26
-164.94
-148.59
-131.61
-114.08
-97.63
-85.59
-81.75
-88.20
-103.43
-122.44
-138.27
-144.96
-139.61
-123.07
-99.19
-72.93
-48.40
-27.81
-11.21
2.76
15.85
29.19
42.38
53.46
59.63
58.75
50.92
39.55
30.62
30.94
45.24
73.83
111.66
149.62
177.16
185.28
169.19
129.86
74.24
13.69
-39.20
-74.39
-87.45
-80.62
-61.00
-36.94
-14.81
2.59
14.95
22.35
23.84
17.96
4.84
-12.05
-26.39
-32.11
-27.20
-15.57
-5.35
-4.22
-15.30
-35.33
-56.93
-72.74
-79.14
-76.76
-68.16
-54.99
-36.85
-13.03
14.73
41.07
58.65
61.96
50.52
29.21
5.52
-14.43
-28.65
-38.75
-47.54
-56.56
-64.85
-69.82
-68.92
-61.21
-47.77
-31.18
-14.46
0.15
12.06
22.59
34.24
49.14
67.36
86.49
102.61
112.18
113.88
109.12
101.11
92.94
86.25
80.57
73.83
63.37
47.41
26.18
2.73
-17.77
-30.39
-32.98
-27.97
-21.68
-21.13
-30.11
-46.93
-65.25
-77.57
-79.17
-70.14
-54.26
-36.08
-18.11
-0.02
19.84
41.64
62.64
77.82
82.46
74.92
57.85
36.83
16.96
0.39
-14.16
-29.42
-46.85
-65.24
-81.45
-92.47
-97.26
-96.94
-93.27
-86.95
-77.01
-62.01
-41.89
-18.91
3.27
21.82
36.48
49.66
64.49
82.24
100.77
115.12
119.83
111.64
91.29
63.66
35.82
14.18
2.24
-0.13
4.33
11.92
19.03
22.40
18.84
5.54
-18.71
-51.69
-87.12
-116.08
-130.39
-126.05
-104.76
-72.71
-37.01
-2.33
30.26
61.76
92.05
117.61
132.09
129.43
107.75
71.51
30.45
-4.12
-23.98
-26.94
-17.33
-3.71
4.82
2.06
-13.13
-36.82
-61.98
-81.45
-90.73
-89.29
-80.04
-67.23
-54.13
-41.48
-27.56
-9.64
13.96
42.42
72.36
98.87
116.99
123.08
115.72
95.88
66.89
33.87
2.67
-21.61
-35.96
-40.50
-38.67
-35.83
-37.33
-46.45
-63.15
-84.41
-105.70
-122.56
-131.62
-130.73
-118.48
-94.01
-57.60
-11.56
39.20
87.74
126.99
151.97
160.92
155.22
138.48
115.42
90.78
68.58
51.01
37.52
24.97
