1544027342.00
64.000000
-0.00
-0.00
-0.00
-0.00
-0.00
-0.00
-0.00
-0.00
-0.00
-0.01
-0.00
0.00
0.01
0.01
-0.00
-0.03
-0.05
-0.05
-0.00
0.13
0.36
0.66
1.01
1.37
1.72
2.06
2.40
2.77
3.24
3.80
4.43
5.08
5.70
6.27
6.80
7.35
7.97
8.81
9.87
11.10
12.39
13.62
14.75
15.82
16.99
18.40
20.42
23.05
26.17
29.51
32.78
35.82
38.71
41.77
45.33
50.06
56.01
62.94
70.34
77.64
84.50
91.01
97.69
105.09
114.26
125.26
137.76
150.98
164.03
176.39
188.12
200.88
212.90
226.41
242.16
260.93
282.79
306.52
329.23
346.62
354.12
348.27
328.73
297.45
258.41
215.87
173.00
131.32
91.10
52.25
14.97
-19.58
-50.49
-77.12
-99.71
-118.89
-135.23
-148.84
-159.41
-166.45
-169.48
-168.89
-165.73
-161.51
-157.76
-155.50
-154.69
-154.68
-154.54
-153.40
-151.12
-148.18
-145.54
-144.19
-144.62
-146.62
-149.38
-151.83
-153.15
-153.28
-152.97
-153.51
-156.11
-161.33
-168.82
-177.47
-185.75
-192.58
-197.83
-202.40
-207.95
-216.53
-229.48
-246.77
-266.79
-286.72
-303.11
-312.68
-313.19
-303.65
-284.31
-256.81
-224.38
-191.21
-161.43
-137.93
-121.21
-108.96
-97.44
-83.73
-67.21
-49.96
-35.37
-25.94
-21.27
-18.26
-13.17
-3.97
8.49
20.88
29.21
31.64
29.66
26.80
26.75
31.31
39.23
46.90
50.74
49.14
43.46
37.15
33.98
36.01
42.29
49.23
52.59
49.89
41.86
32.32
26.25
27.07
34.59
44.91
52.66
53.85
48.12
38.96
31.53
29.59
33.26
39.22
42.76
40.59
33.16
24.34
18.86
19.60
25.70
33.03
36.59
33.36
24.53
14.77
9.32
10.92
18.38
26.97
31.05
27.52
17.60
5.53
-3.60
-6.58
-3.77
1.19
3.77
1.16
-6.57
-16.30
-23.52
-24.88
-20.35
-12.99
-7.33
-7.13
-12.84
-20.97
-26.27
-24.97
-16.91
-5.93
2.09
2.83
-3.71
-13.34
-20.34
-20.67
-14.31
-5.35
0.69
0.24
-6.29
-15.01
-20.69
-19.86
-12.94
-3.91
2.19
2.02
-4.03
-11.82
-15.93
-12.92
-3.45
8.01
15.60
15.47
8.29
-1.25
-7.11
-5.56
2.91
13.77
21.20
21.56
15.48
7.32
2.65
5.07
14.25
26.10
35.23
37.99
34.49
28.62
25.73
29.39
39.29
51.22
59.62
60.73
55.07
47.13
42.63
45.01
53.54
63.65
69.77
68.64
61.29
52.14
46.32
46.78
52.59
59.56
62.94
60.05
51.85
42.31
36.10
35.88
40.72
46.74
49.32
45.81
37.11
27.09
20.38
19.53
23.65
29.03
31.39
28.36
20.93
12.76
7.93
8.58
13.80
20.01
23.01
20.43
13.06
4.38
-1.35
-1.44
3.57
10.21
14.13
12.62
6.16
-1.77
-6.84
-6.46
-1.26
5.33
9.10
7.59
1.51
-5.72
-10.07
-9.16
-3.62
3.25
7.42
6.52
1.03
-5.89
-10.28
-9.73
-4.74
1.59
5.46
4.48
-0.81
-7.29
-11.28
-10.63
-5.87
0.14
3.92
3.43
-0.84
-6.29
-9.72
-9.11
-4.74
0.98
5.01
5.30
1.96
-2.84
-6.16
-5.93
-2.24
2.81
6.31
6.29
2.86
-1.80
-4.71
-3.89
0.51
6.23
10.29
10.55
7.05
1.97
-1.57
-1.44
2.31
7.48
10.86
10.20
5.63
-0.37
-4.46
-4.39
-0.37
5.03
8.36
7.42
2.60
-3.47
-7.41
-7.05
-2.67
3.16
7.13
7.04
2.94
-2.87
-7.10
-7.41
-3.67
1.90
6.07
6.22
2.06
-4.09
-8.74
-9.23
-5.25
0.91
5.59
5.96
1.82
-4.44
-9.23
-9.75
-5.62
0.77
5.83
6.83
3.30
-2.62
-7.23
-7.42
-2.69
4.61
10.50
11.52
6.75
-1.08
-7.24
-7.94
-2.55
5.95
12.49
12.85
6.62
-2.49
-9.30
-9.98
-4.27
4.30
10.45
10.61
4.83
-3.84
-10.88
-12.84
-9.21
-2.65
2.96
4.62
1.45
-4.49
-9.28
-9.47
-4.30
4.04
11.39
13.60
9.24
0.81
-6.73
-8.97
-4.38
4.58
12.68
15.06
10.32
1.13
-7.51
-11.06
-8.05
-1.01
5.22
6.62
2.21
-5.60
-12.19
-13.49
-8.57
-0.21
7.00
9.07
4.85
-2.87
-9.10
-9.67
-3.87
5.30
12.69
13.93
8.36
-0.45
-7.13
-7.75
-1.87
6.98
13.50
13.85
8.03
-0.66
-7.48
-8.96
-4.84
1.88
6.85
7.03
2.08
-5.41
-11.31
-12.40
-8.28
-1.47
4.15
5.34
1.45
-5.11
-10.37
-11.37
-7.73
-1.72
2.96
3.59
-0.02
-5.42
-9.34
-9.46
-5.65
-0.09
4.10
4.77
1.83
-2.86
-6.58
-7.13
-4.18
0.68
4.91
6.37
4.42
0.36
-3.36
-4.59
-2.70
1.14
4.64
5.66
3.64
-0.16
-3.43
-4.19
-1.98
1.91
5.16
5.85
3.56
-0.34
-3.58
-4.31
-2.16
1.57
4.65
5.34
3.33
-0.11
-2.87
-3.32
-1.23
2.15
4.80
5.22
3.13
-0.26
-3.03
-3.72
-2.06
0.89
3.37
3.90
2.13
-0.94
-3.60
-4.34
-2.70
0.33
3.01
3.78
2.22
-0.74
-3.28
-3.80
-1.93
1.29
4.04
4.69
2.86
-0.37
-3.14
-3.86
-2.14
1.03
3.78
4.52
2.80
-0.44
-3.44
-4.57
-3.32
-0.50
2.21
3.31
2.30
-0.07
-2.23
-2.78
-1.30
1.44
3.87
4.57
3.06
0.14
-2.60
-3.64
-2.37
0.46
3.29
4.48
3.36
0.65
-2.04
-3.10
-1.93
0.69
3.11
3.70
1.99
-1.11
-3.85
-4.63
-2.97
0.22
3.15
4.20
2.84
-0.11
-2.94
-4.05
-2.89
-0.22
2.33
3.27
2.02
-0.67
-3.15
-3.97
-2.60
0.25
3.02
4.24
3.38
1.10
-1.20
-2.19
-1.36
0.73
2.77
3.48
2.34
-0.14
-2.71
-4.04
-3.49
-1.50
0.70
1.74
0.92
-1.33
-3.67
-4.64
-3.55
-0.91
1.85
3.11
2.14
-0.49
-3.23
-4.44
-3.40
-0.70
2.09
3.32
2.31
-0.31
-2.97
-4.06
-2.93
-0.23
2.46
3.61
2.54
-0.10
-2.72
-3.78
-2.68
-0.05
2.54
3.57
2.42
-0.21
-2.79
-3.84
-2.73
-0.05
2.79
4.37
4.02
2.16
-0.04
-1.29
-0.90
0.83
2.90
4.12
3.71
1.88
-0.35
-1.68
-1.34
0.46
2.55
3.43
2.26
-0.61
-3.73
-5.39
-4.68
-2.07
0.78
1.93
0.35
-3.59
-8.15
-11.29
-11.66
-9.25
-5.25
-1.36
0.88
1.06
-0.12
-1.36
-1.42
0.08
2.49
4.52
5.18
4.48
3.39
3.33
5.19
8.51
11.65
12.75
10.79
6.35
1.42
-1.55
-1.19
2.05
6.17
8.60
7.63
3.49
-1.72
-5.23
-5.24
-1.99
2.28
4.63
3.19
-1.58
-7.17
-10.52
-9.91
-5.94
-1.26
1.04
-0.66
-5.61
-11.20
-14.47
-13.76
-9.65
-4.56
-1.19
-1.10
-3.75
-6.95
-8.14
-5.93
-0.88
4.76
8.33
8.31
5.22
1.22
-0.94
0.40
4.86
10.26
13.80
13.61
9.80
4.56
0.96
1.09
4.93
10.22
13.54
12.39
6.92
-0.12
-4.89
-4.66
0.47
7.37
11.82
10.86
4.61
-3.84
-10.21
-11.52
-7.71
-1.63
2.67
2.26
-2.94
-10.08
-14.93
-14.33
-8.13
0.62
7.33
8.40
3.48
-4.15
-9.68
-9.50
-3.46
5.18
11.56
12.10
6.75
-1.46
-8.13
-10.00
-6.59
-0.45
4.52
5.36
1.42
-5.16
-10.51
-11.21
-6.48
1.36
8.16
9.94
5.45
-2.69
-9.57
-11.00
-5.82
3.25
10.98
12.74
7.46
-1.87
-10.22
-13.19
-9.54
-1.98
4.59
6.22
2.22
-4.98
-10.82
-11.40
-5.99
2.49
9.44
11.18
6.75
-1.05
-7.21
-7.64
-1.75
7.50
15.10
16.55
10.80
1.21
-6.64
-8.39
-3.01
6.38
14.01
15.02
8.69
-1.37
-9.70
-11.69
-6.37
2.86
10.34
11.74
6.37
-3.07
-11.51
-14.54
-10.91
-3.23
3.97
6.73
3.39
-3.95
-10.61
-12.08
-6.91
2.70
11.90
15.60
11.70
2.74
-5.78
-8.96
-5.11
3.20
10.39
11.53
5.62
-3.76
-11.23
-12.49
-6.95
1.87
8.42
8.77
2.84
-6.24
-13.69
-15.72
-11.69
-4.52
1.43
2.82
-1.36
-8.89
-15.35
-16.63
-11.59
-2.42
6.49
10.51
7.70
0.36
-6.37
-7.92
-2.77
6.60
14.81
16.87
11.50
1.91
-6.68
-9.73
-5.98
1.75
8.37
9.77
5.19
-2.92
-10.09
-12.35
-8.54
-1.06
5.86
8.39
5.08
-2.07
-8.52
-9.89
-4.68
5.06
14.62
19.14
16.49
8.56
-0.12
-4.94
-3.81
1.81
7.92
10.43
7.57
0.78
-6.23
-9.57
-7.37
-0.92
6.08
9.54
7.33
0.65
-6.41
-9.24
-5.45
3.55
13.20
18.40
16.42
8.48
-1.00
-7.08
-7.26
-2.67
2.91
5.36
2.63
-3.91
-10.57
-13.57
-11.14
-4.49
2.75
6.64
5.43
0.44
-4.70
-6.08
-2.05
5.41
11.88
13.16
7.65
-2.53
-12.34
-16.89
-14.30
-6.55
1.58
5.04
1.53
-7.05
-15.84
-19.79
-16.37
-7.18
2.90
8.69
7.63
1.18
-6.19
-9.59
-6.74
0.71
8.50
12.15
9.60
2.35
-5.41
-9.31
-7.23
-0.37
7.27
11.07
8.63
1.10
-7.12
-10.95
-7.50
2.01
12.79
19.23
18.01
10.11
0.02
-6.87
-7.45
-2.49
4.11
7.70
5.57
-1.44
-9.58
-14.40
-13.29
-6.88
1.18
6.28
5.69
0.08
-6.68
-9.92
-6.96
1.04
9.67
14.01
11.51
3.54
-5.42
-10.51
-9.42
-3.59
2.97
6.00
3.50
-2.91
-9.17
-11.13
-6.94
1.79
10.72
15.12
12.71
4.94
-3.60
-7.86
-5.22
2.83
11.51
15.65
12.64
4.06
-5.26
-10.20
-8.31
-1.18
6.60
10.17
7.25
-0.45
-8.29
-11.34
-7.27
2.09
11.74
16.23
12.75
3.04
-7.61
-13.32
-11.14
-2.78
6.37
10.40
6.45
-3.51
-14.03
-19.41
-16.89
-8.31
1.19
6.25
4.39
-2.72
-10.33
-13.33
-9.40
-0.28
9.24
13.96
11.29
2.93
-6.10
-10.40
-7.35
1.38
10.67
15.04
11.86
3.03
-6.29
-10.78
-8.00
0.27
9.06
13.28
10.59
2.90
-4.93
-7.82
-3.43
6.40
16.50
21.33
17.95
7.78
-4.23
-12.04
-12.11
-5.26
4.03
9.96
8.56
0.08
-11.18
-19.64
-21.38
-16.04
-7.22
-0.28
1.20
-2.72
-8.60
-11.52
-8.21
0.49
10.16
15.52
13.34
4.47
-6.10
-12.29
-10.62
-1.90
9.12
16.02
14.66
5.77
-5.90
-14.14
-14.43
-6.74
4.41
13.09
15.07
9.88
1.21
-5.55
-6.83
-2.67
3.80
8.02
6.93
1.27
-5.19
-8.06
-4.63
4.22
14.00
19.39
17.30
8.24
-3.64
-12.61
-14.82
-10.41
-2.85
2.96
3.35
-1.54
-8.01
-11.42
-8.89
-0.88
8.53
14.07
12.62
4.86
-5.25
-12.23
-12.29
-5.76
3.41
9.97
9.89
2.75
-7.74
-16.25
-18.70
-14.20
-5.75
1.43
3.21
-1.03
-8.28
-13.50
-12.62
-5.37
4.48
11.69
12.35
6.15
-3.04
-9.71
-10.17
-4.49
3.80
9.47
8.80
2.14
-6.67
-12.51
-11.60
-3.81
7.00
15.46
17.61
12.62
3.46
-4.80
-8.11
-5.62
0.41
5.79
6.79
2.87
-3.21
-7.27
-6.03
0.91
10.23
16.83
17.01
10.34
0.01
-8.53
-10.84
-6.29
2.00
8.98
10.20
4.60
-4.67
-12.54
-14.88
-10.49
-2.02
5.52
8.12
5.01
-1.28
-6.20
-6.14
-0.95
6.02
10.29
8.80
1.86
-6.45
-10.92
-8.46
0.25
11.10
18.39
18.21
10.86
0.31
-7.93
-9.52
-3.83
5.54
13.29
15.21
10.13
0.88
-7.56
-11.22
-9.15
-3.58
1.26
1.75
-2.48
-8.55
-12.25
-10.28
-2.48
7.49
14.35
14.34
7.02
-4.30
-14.02
-17.53
-13.89
-5.86
1.70
4.19
0.14
-7.85
-15.09
-17.39
-13.16
-4.69
3.18
6.28
3.43
-2.97
-8.08
-7.67
-1.13
8.22
15.19
15.58
8.86
-1.00
-8.15
-8.40
-1.31
9.32
17.46
18.59
12.28
1.90
-7.09
-10.14
-6.36
1.22
7.96
9.99
6.29
-0.44
-5.67
-6.04
-1.03
6.77
12.58
12.52
6.15
-3.67
-12.10
-14.80
-10.61
-2.45
4.78
7.11
3.32
-3.83
-9.31
-9.28
-3.26
5.75
12.67
13.25
7.05
-2.54
-10.50
-12.46
-7.27
2.08
10.61
14.07
10.88
3.00
-5.02
-9.04
-7.54
-2.00
3.85
6.10
3.46
-2.10
-6.79
-7.05
-1.78
6.47
12.93
13.71
7.87
-1.96
-10.54
-13.31
-9.22
-0.98
6.48
8.44
3.41
-5.84
-14.39
-17.75
-14.12
-5.72
2.53
6.31
4.16
-1.94
-7.32
-7.69
-2.08
6.79
14.15
15.44
9.40
-0.98
-10.47
-14.47
-11.28
-3.14
4.93
8.39
5.71
-1.21
-7.71
-9.25
-4.39
4.56
12.92
15.86
11.54
2.41
-6.44
-10.31
-7.19
0.72
8.25
10.71
6.59
-1.91
-9.72
-12.06
-7.59
1.06
8.91
11.01
5.70
-4.27
-13.63
-17.56
-14.03
-5.24
3.66
7.91
5.79
-0.72
-6.67
-7.37
-1.49
8.24
16.71
18.78
12.82
1.80
-8.70
-13.58
-10.79
-2.69
5.36
8.52
5.15
-2.67
-9.92
-11.90
-7.28
1.42
9.36
11.81
7.19
-1.76
-9.93
-12.79
-8.59
0.31
8.72
12.01
8.71
0.93
-6.49
-8.92
-4.99
2.83
9.92
11.74
6.73
-2.48
-10.88
-14.05
-10.31
-1.88
6.22
9.51
6.61
-0.42
-6.96
-8.71
-4.50
3.12
9.74
11.42
7.01
-0.71
-7.07
-8.37
-3.73
4.38
11.25
12.96
8.72
0.79
-6.61
-9.59
-7.06
-1.26
4.04
5.52
2.10
-3.95
-8.68
-9.00
-4.26
3.40
9.79
11.44
7.70
0.70
-5.63
-7.71
-4.58
1.45
6.47
7.12
2.39
-5.31
-11.72
-13.38
-9.47
-2.17
4.32
6.43
3.47
-2.46
-7.63
-8.82
-5.34
0.57
5.47
6.53
3.06
-2.75
-7.37
-8.14
-4.53
1.60
6.78
8.21
5.35
-0.08
-4.86
-6.16
-3.23
2.20
7.14
8.81
6.31
1.28
-3.33
-4.93
-2.68
2.03
6.32
7.75
5.63
1.27
-2.68
-3.86
-1.65
2.56
6.21
6.98
4.17
-0.79
-5.23
-6.79
-4.76
-0.43
3.55
4.86
2.81
-1.32
-4.98
-5.97
-3.68
0.47
3.96
4.65
2.05
-2.32
-5.93
-6.77
-4.42
-0.33
3.07
3.86
1.63
-2.32
-5.77
-6.83
-5.04
-1.54
1.71
2.92
1.52
-1.58
-4.63
-6.02
-5.13
-2.72
-0.40
0.37
-0.96
-3.69
-6.27
-7.36
-6.53
-4.45
-2.54
-2.07
-3.41
-5.87
-8.13
-8.99
-8.09
-6.18
-4.61
-4.62
-6.62
-9.91
-13.07
-14.81
-14.62
-13.18
-11.99
-12.52
-15.36
-19.90
-24.62
-27.97
-29.32
-29.34
-29.62
-31.78
-36.53
-43.22
-50.33
-56.25
-60.22
-62.74
-65.04
-68.44
-73.38
-79.21
-84.70
-88.79
-91.19
-92.33
-92.81
-92.54
-90.50
-84.88
-74.00
-57.46
-36.42
-13.29
9.57
31.04
51.99
74.57
101.44
134.47
173.67
216.99
260.83
301.29
335.18
360.55
376.70
383.85
382.70
373.95
358.21
335.98
308.19
276.13
241.43
205.57
169.78
134.60
99.68
65.01
29.00
-9.79
-51.93
-96.76
-142.79
-187.85
-229.82
-267.25
-299.78
-328.45
-355.26
-382.88
-413.71
-448.79
-486.15
-520.58
-544.94
-552.84
-541.74
-514.30
-477.78
-439.72
-406.62
-380.63
-359.32
-337.58
-310.43
-275.09
-230.71
-177.20
-114.55
-43.63
32.94
110.14
181.70
242.45
290.21
326.09
352.81
372.77
387.23
397.83
407.85
423.13
450.43
493.94
551.99
615.76
671.25
703.43
701.89
664.00
596.08
511.42
426.05
353.71
301.63
269.25
247.57
226.22
196.98
156.32
105.58
48.82
-9.99
-68.68
-126.51
-183.05
-236.52
-283.84
-321.95
-349.01
-365.34
-373.08
-375.31
-374.41
-371.21
-365.28
-356.57
-346.55
-338.16
-334.35
-336.16
-341.68
-346.72
-346.92
-340.01
-326.98
-311.01
-295.25
-280.97
-266.29
-247.70
-222.22
-189.00
-149.62
-107.19
-64.99
-25.38
10.82
44.24
76.37
108.79
142.61
178.30
215.46
252.58
285.95
309.44
315.62
298.76
258.68
202.73
143.89
95.08
63.43
47.87
41.86
39.28
38.87
44.41
59.90
83.98
108.81
124.01
123.06
107.55
85.87
67.55
57.84
55.73
56.59
56.69
55.34
54.17
54.35
54.97
53.51
48.34
40.18
31.86
26.21
23.86
22.77
19.93
13.57
4.32
-5.36
-12.85
-16.94
-18.14
-18.20
-18.81
-20.78
-23.87
-27.34
-30.51
-33.26
-35.95
-39.01
-42.50
-45.89
-48.21
-48.55
-46.69
-43.39
-40.14
-38.60
-39.64
-42.74
-46.02
-47.11
-44.49
-38.73
-32.44
-28.92
-30.29
-35.96
-42.87
-47.19
-46.19
-39.20
-27.15
-11.26
7.60
28.27
48.11
62.33
65.67
55.47
34.27
9.65
-9.20
-15.99
-10.76
0.95
11.81
17.18
17.10
15.10
14.66
16.62
18.88
18.36
13.60
6.00
-0.73
-2.52
3.19
16.51
35.21
55.51
72.90
83.15
82.81
70.46
47.74
19.48
-7.15
-25.44
-31.71
-26.45
-13.43
2.50
17.67
30.71
41.57
49.94
54.40
53.17
45.91
35.67
28.47
30.71
45.51
70.32
97.16
115.70
117.46
98.80
62.10
14.57
-34.38
-76.13
-105.13
-119.68
-121.62
-114.84
-103.58
-91.24
-79.69
-69.61
-61.28
-54.91
-50.75
-48.81
-48.58
-48.93
-48.53
-46.41
-42.40
-37.24
-32.16
-28.40
-26.56
-26.35
-26.76
-26.51
-24.67
-21.20
-16.93
-13.20
-11.11
-10.97
-12.12
-13.31
-13.36
-11.76
-8.85
-5.57
-2.88
-1.30
-0.69
-0.49
-0.12
0.69
1.75
2.61
2.91
2.61
2.05
1.75
2.09
3.11
4.45
5.52
5.79
5.09
3.73
2.38
1.79
2.46
4.33
6.79
8.82
9.51
8.49
6.05
3.17
0.92
0.23
1.50
4.55
8.74
13.19
16.87
18.67
17.57
12.94
5.14
-3.99
-11.52
-14.55
-11.87
-5.16
1.39
2.96
-3.44
-17.11
-33.73
-47.19
-52.25
-46.49
-30.97
-9.24
14.46
36.50
54.65
67.91
76.12
79.79
79.65
76.91
72.83
68.80
66.37
67.16
72.67
83.59
99.39
118.18
137.21
153.58
165.02
170.27
169.05
161.93
149.84
133.85
115.08
94.66
73.73
53.44
34.90
19.12
7.20
-0.13
-2.53
-0.24
6.91
18.72
34.92
55.21
77.10
98.73
118.43
134.69
147.04
154.86
157.52
154.71
146.57
133.71
117.45
99.24
80.42
61.88
43.86
26.03
7.76
-11.56
-32.22
-53.83
-75.75
-97.26
-117.81
-137.29
-155.93
-174.24
-192.98
-213.22
-236.04
-262.15
-291.08
-320.54
-346.46
-363.85
-368.54
-358.70
-335.71
-303.57
-267.47
-232.09
-200.46
-173.69
-151.43
-132.53
-115.43
-98.57
-80.64
-61.11
-40.79
-21.79
-6.79
2.09
4.45
2.14
-1.61
-3.45
-1.09
5.74
15.82
27.09
37.45
45.11
48.93
48.50
44.12
37.03
28.94
21.85
17.20
15.28
15.42
16.64
18.62
22.38
29.89
42.62
60.04
78.69
92.75
96.14
85.47
61.73
30.71
0.60
-21.51
-32.57
-34.46
-32.10
-29.85
-29.05
-27.71
-22.56
-12.15
1.08
11.64
13.83
4.86
-13.38
-35.66
-55.79
-69.42
-75.05
-73.54
-66.69
-56.30
-44.06
-32.21
-23.61
-20.77
-24.70
-33.85
-44.30
-51.04
-50.15
-40.65
-24.89
-8.33
2.64
3.15
-7.97
-27.05
-46.64
-58.54
-57.21
-42.23
-18.26
7.38
28.02
40.24
44.27
42.63
38.18
32.90
27.98
24.33
22.76
23.64
26.50
30.08
32.90
34.56
35.79
37.90
41.73
46.73
51.50
54.50
55.34
54.53
53.10
51.67
50.07
47.68
44.08
39.48
34.72
30.73
28.02
26.58
25.82
24.95
23.31
20.55
16.78
12.59
8.81
6.30
5.45
5.93
6.80
7.04
6.06
4.10
2.14
1.33
2.39
5.31
9.33
13.40
16.62
18.42
18.78
18.11
17.19
16.92
18.03
20.65
24.15
27.41
29.26
29.25
27.81
25.98
24.71
24.30
24.27
23.92
22.93
21.43
19.99
19.16
19.04
19.48
19.99
20.12
19.82
19.64
20.28
21.56
21.44
16.18
1.75
-23.66
-57.68
-93.63
-122.83
-138.43
-138.22
-124.90
-103.41
-77.32
-47.36
-12.83
25.27
62.08
90.10
103.09
99.56
83.91
64.16
47.51
37.89
35.95
41.23
54.76
79.21
116.94
167.06
224.62
281.87
331.34
368.20
390.56
398.06
390.42
367.34
329.92
282.35
231.80
186.43
152.02
129.26
113.96
99.74
81.65
58.72
34.24
13.85
2.86
3.80
15.73
35.19
57.88
80.34
100.56
117.82
131.24
138.98
138.05
125.02
97.62
56.04
2.94
-57.45
-120.62
-182.37
-238.27
-283.05
-311.36
-319.91
-310.10
-288.50
-264.93
-248.54
-244.70
-253.33
-270.10
-289.25
-306.02
-317.84
-323.92
-324.18
-318.28
-305.53
-285.43
-258.36
-226.10
-191.34
-156.94
-124.50
-93.38
-60.51
-22.49
21.67
68.02
108.12
133.09
138.24
126.12
105.27
85.76
73.65
68.12
63.08
51.79
31.72
6.07
-18.42
-35.77
-44.43
-47.53
-50.34
-56.39
-65.13
-72.65
-74.61
-69.65
-61.09
-55.70
-60.47
-79.29
-110.89
-149.56
-187.50
-217.76
-236.16
-241.86
-236.99
-225.51
-212.11
-201.17
-195.75
-196.58
-201.71
-207.12
-208.35
-202.36
-188.73
-169.48
-147.63
-125.50
-103.95
-82.19
-58.53
-31.30
0.89
38.47
80.95
126.21
170.04
206.15
227.78
230.00
211.89
177.40
133.86
89.36
49.95
18.47
-4.93
-21.58
-32.88
-39.98
-43.87
-45.73
-46.44
-46.23
-43.84
-36.85
-22.60
-0.02
29.34
61.50
91.28
114.38
128.97
135.95
138.27
139.07
140.47
142.79
145.26
146.95
147.36
146.54
144.37
140.17
133.02
122.69
110.07
97.17
86.01
77.58
71.48
66.54
61.75
56.83
52.38
48.81
45.98
43.02
38.97
33.54
27.35
21.78
18.10
16.90
17.79
19.74
21.46
21.81
20.03
15.86
9.60
2.14
-5.18
-10.87
-13.61
-12.93
-9.72
-6.41
-6.48
-13.39
-28.98
-52.32
-79.36
-104.04
-120.08
-123.05
-111.82
-88.86
-59.53
-30.72
-8.95
0.77
-3.70
-21.52
-49.27
-81.65
-112.53
-135.71
-145.79
-138.95
-113.88
-72.60
-20.61
34.32
84.12
122.98
148.95
163.71
170.82
172.97
170.19
159.45
136.71
100.11
52.58
2.34
-39.35
-62.47
-62.44
-42.10
-10.29
22.10
46.58
59.46
61.72
56.61
47.09
34.78
20.59
5.55
-8.85
-21.79
-34.16
-48.17
-65.44
-84.94
-102.49
-112.59
-111.81
-101.10
-85.67
-72.22
-64.70
-62.53
-61.16
-54.85
-39.86
-15.50
16.76
55.01
98.10
144.90
192.56
235.36
265.27
274.67
259.65
222.38
170.81
115.84
67.33
30.65
5.73
-11.72
-27.13
-44.07
-62.45
-79.14
-90.06
-92.71
-87.56
-77.33
-65.29
-53.63
-42.66
-31.57
-19.77
-7.98
1.83
7.42
7.82
4.01
-1.48
-5.90
-7.72
-7.21
-5.92
-5.61
-7.37
-11.01
-15.41
-18.97
-20.23
-18.66
-14.79
-10.18
-6.65
-5.52
-7.11
-10.60
-14.48
-17.18
-17.69
-15.91
-12.72
-9.62
-8.22
-9.67
-14.20
-20.90
-27.92
-33.00
-34.14
-30.33
-22.15
-12.07
-4.32
-3.99
-15.24
-39.33
-73.24
-109.49
-138.24
-150.18
-139.76
-107.08
-58.02
-2.25
49.70
89.46
112.82
119.98
114.62
102.12
87.89
76.08
69.05
67.58
71.23
78.86
88.53
97.62
103.11
102.36
94.29
79.97
62.38
45.19
31.09
20.79
13.14
6.08
-2.06
-11.35
-20.20
-25.72
-25.06
-16.60
-1.11
17.87
34.54
42.49
37.12
17.54
-12.74
-47.03
-77.83
-99.41
-109.20
-107.96
-98.59
-84.68
-69.73
-56.97
-49.78
-51.34
-63.45
-84.74
-109.62
-129.00
-133.27
-116.82
-81.67
-38.26
-2.10
12.96
1.30
-31.17
-69.14
-94.81
-95.83
-70.27
-26.18
23.03
65.02
93.01
106.81
110.72
110.30
109.63
110.77
114.00
118.69
123.23
124.84
119.56
103.18
73.24
30.89
-17.78
-63.13
-95.12
-106.80
-97.05
-70.72
-36.65
-4.29
19.44
31.96
34.89
32.46
29.45
29.37
33.52
40.96
49.35
56.09
59.45
59.03
55.28
48.99
40.62
30.52
19.86
11.10
7.03
9.17
16.00
22.96
24.39
16.28
-1.25
-23.54
-43.31
-53.88
-51.78
-38.02
-17.26
4.43
21.25
29.55
28.41
19.15
4.54
-12.37
-28.97
-43.19
-53.31
-58.01
-56.64
-49.99
-40.87
-33.25
-30.73
-35.10
-45.29
-58.15
-70.00
-77.87
-80.45
-77.62
-69.99
-58.26
-43.50
-27.22
-11.52
1.73
11.56
18.21
23.02
27.67
32.98
38.55
42.78
43.54
39.35
30.62
20.04
12.16
11.86
21.44
38.86
57.50
68.52
64.70
44.35
12.44
-21.36
-47.17
-59.19
-57.42
-46.31
-31.56
-17.15
-4.48
6.28
14.51
17.86
13.63
0.82
-18.07
-37.07
-49.02
-48.77
-35.53
-13.11
12.08
33.88
48.90
57.15
60.77
62.41
63.20
62.22
57.60
48.31
35.41
22.11
12.50
9.37
12.88
20.40
27.68
30.94
28.51
21.49
12.75
5.47
1.51
0.63
1.08
0.47
-2.85
-9.21
-17.25
-24.91
-30.25
-32.57
-32.82
-33.02
-35.18
-39.85
-45.77
-50.17
-50.26
-44.35
-32.48
-16.10
2.77
21.93
38.93
50.66
53.84
46.42
28.95
5.22
-18.78
-37.07
-46.26
-46.57
-41.33
-35.03
-31.16
-30.96
-33.43
-36.67
-38.84
-39.37
-39.01
-39.33
-41.57
-45.62
-49.69
-50.87
-46.61
-36.11
-21.03
-4.58
10.13
21.50
29.92
36.97
44.10
51.50
58.31
63.43
66.38
67.41
66.94
65.01
61.07
54.56
45.56
34.87
23.56
12.48
1.80
-8.59
-18.53
-27.22
-33.41
-36.06
-35.17
-31.94
-28.18
-25.51
-24.39
-24.09
-23.20
-20.53
-15.89
-10.29
-5.40
-2.69
-2.70
-4.77
-7.67
-10.14
-11.61
-12.11
-11.93
-11.03
-8.98
-5.64
-1.74
1.14
1.40
-1.40
-6.15
-10.56
-12.34
-10.09
-3.86
5.92
19.20
36.58
58.13
82.08
104.00
117.80
118.32
103.85
77.79
47.65
22.47
9.49
11.30
25.00
43.40
58.20
63.11
56.16
39.82
19.24
0.16
-12.20
-13.27
0.81
32.22
79.55
135.87
189.27
225.86
235.85
218.34
182.78
144.44
116.54
104.06
102.05
100.30
89.16
64.99
30.67
-6.79
-41.13
-70.46
-96.74
-123.33
-150.70
-176.00
-193.66
-199.02
-190.07
-165.71
-128.39
-82.13
-36.91
0.92
28.12
47.02
59.61
66.93
68.26
61.05
42.41
9.51
-38.28
-100.70
-176.56
-264.73
-362.68
-465.67
-567.09
-655.22
-720.82
-758.66
-769.60
-758.76
-733.76
-700.97
-663.65
-622.48
-576.96
-527.60
-475.13
-423.96
-374.65
-325.86
-275.46
-222.07
-165.83
-108.37
-52.78
-1.72
43.09
81.94
115.81
146.26
174.23
199.91
222.88
242.23
257.50
268.97
278.06
286.25
294.63
303.65
313.06
322.13
329.88
335.52
338.51
338.85
336.30
330.37
320.19
304.98
284.43
258.95
229.79
198.52
166.58
134.63
102.47
69.49
35.42
0.98
-31.88
-60.37
-81.80
-94.50
-98.70
-96.28
-89.99
-82.19
-73.85
-64.17
-51.19
-32.71
-7.01
26.81
68.80
117.52
169.22
217.46
254.11
272.24
269.36
249.47
222.22
199.14
188.42
191.61
203.78
217.02
225.12
226.56
224.43
223.58
227.66
237.16
250.13
264.45
279.79
298.14
322.76
356.43
397.95
443.81
488.82
527.59
555.82
570.96
572.18
559.80
534.81
498.38
451.78
396.21
333.09
264.30
192.38
120.47
51.90
-10.10
-63.40
-107.17
-142.26
-170.76
-195.31
-218.67
-242.37
-269.06
-300.90
-338.43
-379.31
-418.22
-447.91
-461.09
-454.10
-429.03
-393.25
-356.01
-324.76
-302.64
-288.42
-278.52
-269.75
-261.16
-253.68
-248.84
-246.96
-246.72
-245.87
-242.45
-235.69
-226.31
-216.24
-207.27
-200.06
-193.52
-184.98
-171.41
-151.19
-123.99
-91.28
-55.41
-18.08
20.62
61.38
103.85
144.68
178.07
198.32
203.31
195.80
182.18
168.92
159.09
151.53
142.75
130.50
116.19
104.41
100.02
104.80
116.10
127.93
134.13
131.11
118.71
99.32
75.85
50.05
21.91
-9.56
-44.29
-79.37
-108.90
-126.01
-126.36
-111.21
-87.54
-65.46
-53.65
-55.75
-69.51
-89.16
-109.31
-128.17
-148.19
-173.54
-206.39
-244.06
-279.10
-302.20
-306.14
-288.93
-254.31
-209.96
-163.79
-120.61
-80.99
-42.43
-2.15
40.15
81.17
115.21
136.78
143.36
136.72
122.30
107.02
96.27
91.80
91.53
91.51
88.99
84.36
81.09
83.43
93.53
109.95
128.64
145.29
158.08
168.14
177.99
188.97
199.10
203.54
196.59
174.82
138.79
92.62
42.12
-6.94
-49.52
-81.54
-99.35
-100.44
-84.55
-54.72
-17.69
17.18
40.36
45.15
29.67
-2.77
-44.99
-88.34
-125.16
-150.26
-161.49
-159.69
-147.82
-130.39
-111.93
-95.85
-83.64
-74.68
-66.66
-56.88
-44.00
-28.50
-12.36
2.46
15.28
26.75
37.61
46.85
51.71
49.02
37.55
19.65
0.83
-12.94
-18.08
-15.04
-7.39
0.65
6.49
10.05
12.62
15.15
17.07
16.52
11.72
2.28
-10.17
-22.10
-28.93
-26.53
-12.40
13.26
47.33
85.04
121.57
153.53
179.32
198.42
210.02
212.51
203.88
183.09
151.40
112.40
71.12
32.07
-2.14
-31.39
-57.74
-84.22
-113.69
-147.43
-184.55
-222.41
-257.47
-286.10
-304.69
-309.41
-296.30
-262.59
-208.68
-139.74
-65.48
2.68
55.66
89.96
108.29
117.18
123.11
129.64
136.85
142.97
146.72
148.56
150.10
152.71
156.51
160.11
161.35
158.54
150.95
139.14
124.28
107.40
88.91
68.50
45.47
19.40
-9.34
-39.18
-67.63
-91.84
-109.23
-118.02
-117.48
-107.76
-89.60
-64.01
-32.10
4.93
45.55
87.77
129.24
167.45
200.01
225.23
242.35
251.57
254.09
251.72
246.54
240.60
235.69
233.11
233.65
237.49
244.25
253.02
262.50
271.20
277.58
280.31
278.40
271.35
259.10
242.12
221.25
197.61
172.42
146.94
122.28
99.39
78.94
61.32
46.69
34.98
25.97
19.35
14.73
11.67
9.72
8.46
7.46
6.35
4.77
2.41
-0.94
-5.43
-11.12
-17.95
-25.79
-34.45
-43.74
-53.39
-63.17
-72.77
-81.88
-90.16
-97.24
-102.77
-106.39
-107.82
-106.84
-103.33
-97.28
-88.79
-78.06
-65.38
-51.15
-35.90
-20.18
-4.58
10.30
23.94
35.98
46.18
54.49
60.93
65.53
68.25
68.93
67.41
63.55
57.43
49.31
39.67
29.05
17.86
6.32
-5.62
-18.16
-31.48
-45.56
-60.04
-74.30
-87.62
-99.49
-109.80
-118.91
-127.53
-136.50
-146.46
-157.64
-169.90
-182.73
-195.47
-207.53
-218.69
-229.31
-240.74
-255.25
-275.30
-301.93
-333.23
-363.90
-386.50
-394.15
-383.21
-354.96
-315.18
-272.01
-233.48
-205.59
-191.86
-193.45
-209.16
-235.31
-265.82
-293.09
-310.05
-312.26
-299.23
-274.14
-242.17
-208.40
-176.65
-149.19
-127.03
-110.46
-99.10
-91.45
-84.73
-75.17
-59.07
-34.20
-0.85
37.54
74.73
102.78
114.45
105.89
78.58
39.47
-1.42
-34.57
-54.14
-59.31
-53.09
-39.98
-23.79
-6.81
9.87
25.69
40.43
54.31
67.76
80.56
91.05
96.09
92.87
81.52
66.79
56.92
59.71
78.08
107.54
137.60
156.53
156.34
135.50
98.25
51.65
2.73
-42.96
-81.08
-107.79
-120.04
-116.91
-100.91
-77.75
-54.36
-36.07
-24.64
-18.73
-16.33
-17.52
-25.29
-43.64
-74.12
-113.14
-152.13
-180.56
-190.17
-178.04
-146.96
-103.29
-53.83
-3.82
42.93
82.89
111.79
125.04
119.47
95.41
57.67
14.57
-24.35
-50.75
-59.27
-48.30
-20.07
19.90
63.78
103.35
131.93
146.24
146.76
136.40
117.97
91.97
56.48
9.27
-48.94
-112.23
-170.13
-210.97
-226.20
-213.46
-176.82
-124.47
-65.78
-9.09
38.90
72.89
89.05
85.94
65.86
35.59
5.29
-14.35
-15.72
2.89
36.79
76.78
112.36
135.48
142.68
135.52
119.34
101.11
87.54
83.39
90.11
104.70
119.71
124.86
110.80
73.30
15.88
-50.61
-112.08
-156.66
-178.60
-178.86
-162.53
-135.11
-100.63
-62.38
-25.36
2.32
11.06
-6.14
-49.13
-109.26
-171.97
-222.46
-251.59
-258.47
-249.38
-233.37
-217.52
-204.06
-190.81
-173.49
-148.63
-115.28
-74.71
-28.93
21.18
76.50
138.43
206.88
278.24
344.88
397.17
426.84
430.20
409.55
371.74
324.89
275.27
226.21
179.19
135.87
99.11
71.81
54.32
42.36
27.46
0.47
-43.55
-101.74
-163.47
-214.06
-240.88
-238.30
-209.47
-164.11
-114.10
-69.18
-34.91
-12.86
-2.36
-1.84
-9.27
-22.02
-36.86
-51.04
-63.80
-77.02
-94.08
-117.36
-145.89
-174.54
-195.89
-203.34
-194.11
-170.07
-136.23
-97.77
-57.66
-16.08
27.83
73.50
117.25
152.94
174.42
178.86
168.85
151.90
137.56
133.33
141.35
157.96
176.10
189.43
195.56
196.32
195.14
193.31
187.86
172.91
143.86
101.60
53.51
10.47
-18.64
-31.18
-31.15
-25.89
-21.05
-17.57
-12.49
-2.52
12.26
27.53
37.27
37.84
30.77
22.20
19.26
25.60
39.02
52.47
57.86
50.20
30.07
2.92
-23.88
-44.56
-57.41
-64.27
-68.44
-72.09
-74.97
-75.04
-70.32
-60.93
-49.83
-41.83
-41.24
-49.73
-65.19
-82.15
-93.98
-95.50
-85.14
-65.31
-41.21
-18.36
-0.34
12.30
21.62
30.91
42.53
56.39
69.37
75.96
70.39
49.20
13.60
-29.66
-69.98
-96.63
-102.83
-88.55
-60.32
-28.19
-1.36
15.32
22.20
23.46
24.20
28.12
36.23
46.79
55.75
57.51
46.08
17.45
-28.00
-84.01
-139.02
-179.21
-192.95
-174.70
-127.16
-60.37
11.17
72.22
110.29
118.13
95.15
47.46
-13.35
-72.98
-117.79
-138.11
-130.41
-97.45
-47.01
10.84
66.17
111.34
141.66
155.08
151.42
131.98
99.74
59.91
19.75
-12.79
-31.57
-34.72
-25.63
-11.48
0.15
5.05
3.80
0.60
-0.18
3.00
8.22
11.95
12.08
9.65
8.13
10.74
18.12
27.59
34.71
36.11
31.27
22.59
13.71
7.54
5.30
6.73
11.15
18.10
27.32
38.13
48.99
57.75
62.40
61.71
55.61
45.13
31.83
17.53
3.94
-7.48
-15.49
-19.10
-17.77
-11.56
-1.37
11.13
23.92
35.06
43.10
47.27
47.32
43.28
35.36
24.16
10.81
-2.98
-15.28
-24.72
-30.97
-34.85
-37.68
-40.36
-42.51
-42.43
-37.93
-27.79
-13.19
2.19
13.38
16.48
10.74
-0.80
-12.89
-20.69
-22.21
-18.95
-14.38
-11.48
-10.90
-10.93
-9.20
-4.67
1.51
6.58
8.08
5.49
0.52
-3.89
-5.24
-2.87
1.79
5.99
7.07
3.73
-3.31
-11.75
-18.64
-21.84
-20.91
-17.31
-13.55
-11.94
-13.36
-16.82
-20.06
-20.67
-17.18
-9.64
0.66
11.70
21.51
28.51
31.70
30.67
25.79
18.43
10.93
6.15
6.53
13.23
25.45
40.69
55.63
67.29
73.96
75.47
72.84
67.48
60.54
52.60
43.83
34.40
24.68
15.19
6.20
-2.53
-11.80
-22.53
-35.08
-48.83
-62.07
-72.53
-78.25
-78.22
-72.81
-63.62
-52.95
-43.21
-36.27
-32.99
-33.12
-35.40
-38.04
-39.43
-38.67
-35.84
-31.73
-27.36
-23.27
-19.30
-14.86
-9.45
-3.21
3.12
8.66
13.02
16.61
20.40
25.24
31.28
37.84
43.75
48.05
50.36
50.86
49.91
47.79
44.78
41.40
38.62
37.61
39.18
43.20
48.69
54.40
59.57
64.35
69.42
75.19
80.99
85.20
86.01
82.53
75.45
66.78
58.83
53.22
50.26
49.21
48.95
48.35
46.34
41.61
32.57
18.12
-1.40
-23.48
-43.81
-57.84
-63.08
-60.57
-54.54
-50.29
-51.13
-56.31
-61.42
-61.13
-52.85
-38.92
-25.79
-20.73
-27.73
-45.25
-67.22
-86.23
-97.08
-98.40
-92.12
-81.69
-70.34
-60.66
-54.55
-53.10
-55.73
-59.52
-59.73
-51.66
-33.39
-7.44
19.63
39.81
47.10
39.93
21.40
-2.62
-26.38
-46.59
-62.79
-76.27
-88.02
-96.93
-99.34
-90.32
-66.28
-27.13
22.78
75.70
123.09
158.52
179.43
187.30
186.27
181.26
176.38
173.90
174.18
176.07
177.51
176.22
170.00
156.66
133.68
98.41
48.92
-14.36
-87.31
-162.03
-228.74
-279.01
-308.92
-320.47
-320.23
-316.28
-314.64
-317.19
-321.82
-324.34
-320.83
-308.96
-288.36
-259.68
-223.51
-179.64
-127.24
-66.01
2.51
73.71
140.47
194.99
231.48
248.24
247.99
236.15
218.00
196.35
171.43
142.63
110.99
80.49
57.04
45.74
48.35
62.39
82.50
103.16
120.74
133.65
141.02
140.96
130.30
106.41
69.86
26.27
-14.48
-41.76
-48.64
-35.17
-8.81
18.20
33.30
28.05
1.08
-41.48
-87.94
-124.87
-141.27
-132.06
-99.48
-52.10
-1.90
39.49
63.99
68.70
56.00
32.22
5.78
-14.91
-23.37
-16.44
5.05
36.73
71.89
103.18
124.29
131.11
122.73
101.59
73.07
43.88
19.90
4.19
-3.83
-7.50
-11.02
-17.41
-27.50
-39.95
-52.01
-60.20
-60.59
-49.55
-25.04
11.45
53.73
91.23
111.82
106.22
72.44
18.01
-41.56
-87.63
-105.22
-88.79
-44.67
11.44
60.49
87.32
85.69
59.02
17.53
-26.68
-63.87
-88.50
-99.21
-97.45
-86.16
-68.89
-49.68
-32.76
-22.11
-20.58
-28.72
-44.23
-62.62
-78.98
-90.15
-96.22
-99.97
-104.82
-112.54
-121.88
-129.77
-133.44
-131.95
-126.04
-116.02
-99.63
-71.95
-27.67
35.28
112.94
195.50
270.44
326.63
358.24
365.72
354.31
330.85
300.50
264.58
220.58
164.35
93.52
10.50
-76.59
-156.04
-216.77
-252.51
-264.11
-258.55
-245.31
-232.10
-221.81
-212.48
-199.42
-178.43
-147.94
-109.64
-67.37
-25.69
11.42
41.09
61.64
72.58
74.80
70.59
63.50
57.56
56.02
60.20
68.73
77.82
82.46
78.46
64.31
42.23
17.65
-2.75
-13.89
-14.51
-7.69
0.75
5.15
2.75
-5.10
-14.06
-19.19
-17.08
-6.85
10.64
33.93
61.59
91.75
121.08
144.63
156.96
154.31
136.42
107.18
73.05
40.59
14.11
-5.43
-20.39
-35.26
-54.84
-82.23
-117.27
-156.11
-192.20
-218.70
-231.18
-229.38
-217.04
-199.79
-182.42
-166.87
-152.06
-135.21
-113.75
-86.37
-52.85
-13.32
32.01
82.17
134.19
182.57
220.29
241.07
241.68
223.37
191.16
151.61
110.35
70.44
32.24
-5.46
-43.57
-81.35
-116.32
-145.49
-167.34
-183.13
-196.63
-212.07
-231.37
-252.18
-268.38
-273.05
-262.15
-236.88
-203.17
-168.48
-137.89
-111.80
-86.06
-54.52
-12.04
43.07
108.17
176.76
240.03
289.38
318.69
326.17
314.59
289.89
258.61
225.49
192.11
157.19
118.10
72.89
21.73
-32.59
-85.21
-130.48
-163.42
-181.02
-182.96
-171.42
-150.10
-122.76
-92.26
-60.26
-27.54
5.23
37.27
67.66
95.61
120.33
140.54
153.97
157.59
148.81
127.25
95.91
60.98
29.89
8.32
-1.79
-2.70
0.85
4.12
4.28
0.67
-6.12
-15.41
-26.90
-40.20
-54.02
-65.69
-71.74
-68.91
-54.97
-29.16
7.88
53.97
104.99
154.44
194.05
215.66
214.25
190.77
152.85
112.45
81.02
64.63
61.21
61.95
56.19
37.38
6.66
-28.44
-58.98
-80.43
-95.26
-110.71
-133.05
-162.34
-190.83
-206.32
-198.25
-162.92
-104.94
-34.71
36.15
98.64
147.70
180.99
197.09
194.98
175.49
143.49
107.89
79.34
65.74
68.24
80.53
92.37
95.51
88.38
76.74
69.41
72.35
84.39
97.44
100.86
86.75
53.09
3.68
-54.40
-113.47
-166.29
-205.90
-225.78
-221.03
-190.46
-138.47
-74.94
-12.64
36.41
64.70
70.62
57.34
30.55
-3.85
-41.06
-76.97
-107.50
-128.87
-138.21
-134.87
-121.10
-100.91
-77.50
-52.18
-24.18
7.36
40.11
67.58
80.83
72.58
41.75
-3.13
-47.65
-77.24
-83.42
-69.00
-45.93
-28.78
-27.48
-42.84
-65.95
-86.52
-99.22
-106.68
-118.33
-143.76
-186.51
-242.83
-305.03
-364.81
-420.26
-475.84
-529.75
-579.74
-620.18
-642.05
-636.53
-612.79
-577.00
-535.33
-493.23
-454.52
-417.03
-379.37
-340.11
-298.64
-255.46
-210.15
-163.91
-118.42
-74.95
-34.66
1.69
34.33
63.67
89.85
114.21
137.21
158.79
178.92
197.25
213.05
225.95
235.70
242.05
245.89
247.80
248.30
247.85
246.65
244.42
240.92
235.81
228.79
220.09
209.92
198.49
186.02
172.68
158.49
143.56
128.16
112.63
97.62
83.71
71.39
60.95
52.54
46.03
41.25
37.95
35.95
35.10
35.27
36.34
38.11
40.32
42.65
44.82
46.58
47.87
48.75
49.34
49.76
50.05
50.12
49.81
49.01
47.69
46.00
44.25
42.86
42.25
42.83
44.87
48.29
52.50
56.35
58.43
57.59
53.57
47.24
40.30
34.56
31.10
29.83
29.55
28.70
26.17
21.92
16.83
12.33
9.65
9.29
10.91
13.73
16.89
20.03
23.35
27.62
33.78
42.69
55.00
70.92
89.98
110.62
129.88
143.64
147.54
138.54
116.28
83.81
46.93
12.49
-13.84
-28.93
-32.47
-26.36
-13.25
4.32
24.27
44.74
63.82
79.95
92.90
104.58
118.66
139.49
169.47
207.13
246.77
280.01
298.50
296.43
272.29
229.21
174.04
115.71
63.34
24.08
1.39
-5.53
-1.23
8.14
17.41
24.27
29.50
35.98
47.14
65.21
90.73
122.15
156.14
188.24
214.01
230.48
237.13
235.87
229.35
219.46
206.67
190.69
172.19
153.67
138.72
129.75
125.69
121.82
111.70
90.46
57.39
16.47
-25.37
-60.95
-85.19
-96.25
-95.32
-85.97
-73.23
-63.08
-61.66
-73.88
-101.71
-142.84
-190.94
-237.87
-276.77
-304.53
-322.23
-333.46
-341.49
-347.29
-349.21
-344.86
-333.25
-315.91
-296.24
-277.47
-260.93
-245.53
-228.85
-208.98
-185.61
-160.01
-134.15
-109.71
-87.33
-66.45
-45.50
-22.47
4.90
38.63
79.54
126.63
176.67
224.66
265.11
293.40
306.63
303.84
285.75
254.64
214.49
170.95
130.67
99.74
81.65
76.07
79.27
86.10
92.59
97.47
101.97
108.22
117.38
128.75
140.10
148.88
153.39
153.37
149.94
145.06
141.05
140.26
144.56
154.85
170.43
188.71
205.48
215.92
216.01
203.92
180.62
149.60
115.68
83.40
55.71
33.34
15.07
-1.37
-18.17
-36.71
-57.30
-79.34
-101.96
-124.23
-144.82
-162.05
-174.21
-180.17
-180.16
-175.72
-168.94
-161.25
-152.55
-141.40
-126.42
-107.63
-87.01
-67.68
-51.95
-39.81
-28.54
-13.90
7.39
35.46
66.46
93.66
109.80
109.87
93.10
63.35
27.90
-5.19
-30.36
-46.61
-57.58
-69.49
-87.09
-110.35
-133.77
-148.56
-146.93
-126.09
-89.93
-47.06
-6.87
24.34
44.77
55.89
59.89
57.53
48.26
31.77
9.45
-15.20
-37.82
-55.05
-65.71
-70.54
-71.37
-69.70
-66.18
-60.78
-53.67
-45.67
-38.32
-33.38
-31.81
-33.37
-36.39
-38.13
-35.75
-27.52
-13.21
5.73
26.35
44.79
57.35
61.75
58.09
49.00
39.10
33.36
35.26
45.57
61.74
78.74
90.45
91.40
78.31
51.15
13.29
-29.29
-69.29
-100.10
-117.44
-120.38
-111.27
-94.62
-75.32
-57.25
-42.82
-33.00
-27.57
-25.53
-25.21
-24.56
-21.61
-15.17
-5.29
6.58
18.12
26.78
30.90
30.28
26.07
20.22
14.40
9.46
5.39
1.93
-0.73
-1.55
1.01
8.04
19.33
32.72
44.58
51.04
49.47
39.48
22.83
2.53
-18.34
-37.53
-53.77
-66.47
-75.18
-79.15
-77.19
-68.14
-51.51
-28.30
-1.33
25.01
45.96
57.98
60.06
54.02
43.43
31.99
21.96
13.97
7.79
3.62
2.57
5.83
13.18
21.96
27.87
26.89
17.43
1.56
-15.86
-29.37
-35.34
-33.32
-25.65
-15.87
-7.01
-0.59
3.42
5.78
7.12
7.32
5.58
0.78
-7.81
-19.96
-34.27
-48.39
-59.89
-67.11
-69.75
-68.88
-66.41
-64.11
-62.90
-62.48
-61.48
-58.18
-50.97
-38.79
-21.34
0.78
25.68
50.17
70.21
81.97
83.30
74.70
59.10
40.56
22.51
6.72
-6.48
-17.10
-24.56
-27.84
-26.32
-20.80
-13.41
-6.48
-1.19
2.98
7.45
13.11
19.31
24.28
26.40
25.42
22.78
20.52
19.95
20.72
21.27
19.94
16.12
10.62
5.12
1.14
-0.81
-1.34
-1.70
-3.07
-5.90
-9.88
-14.08
-17.47
-18.93
-17.46
-12.06
-2.14
12.01
28.98
46.23
60.87
70.73
75.08
74.70
71.31
66.79
62.61
59.61
57.84
56.55
54.21
48.93
39.21
24.87
7.50
-10.05
-24.83
-35.22
-41.34
-44.67
-46.77
-48.39
-49.27
-48.76
-46.68
-43.58
-40.44
-37.82
-35.37
-32.06
-26.69
-18.83
-9.10
0.88
9.22
14.43
16.12
15.14
13.54
13.93
18.35
27.18
38.46
48.32
52.45
48.02
35.01
16.02
-5.10
-25.07
-42.18
-56.09
-66.78
-73.56
-74.91
-69.31
-56.50
-38.11
-17.49
1.51
15.87
24.15
26.67
24.87
20.56
15.29
10.15
5.84
2.94
2.08
3.84
8.43
15.24
22.79
29.08
32.38
31.95
28.34
23.10
18.08
14.63
13.08
12.69
12.22
10.56
7.37
3.24
-0.73
-3.51
-4.54
-4.01
-2.42
-0.34
1.89
4.21
6.71
9.51
12.77
16.72
21.73
28.09
35.65
43.50
49.91
52.90
51.01
44.13
33.65
21.88
11.14
2.81
-3.04
-7.44
-11.81
-17.28
-24.26
-32.41
-40.86
-48.52
-54.38
-57.70
-58.19
-56.07
-52.01
-46.94
-41.82
-37.35
-33.79
-30.81
-27.62
-23.25
-17.00
-8.80
0.52
9.50
16.65
21.06
22.76
22.63
21.73
20.61
19.02
16.08
10.97
3.59
-5.12
-13.46
-19.76
-23.14
-23.92
-23.36
-23.03
-24.03
-26.54
-30.06
-33.79
-37.07
-39.62
-41.30
-41.84
-40.79
-37.66
-32.33
-25.26
-17.47
-10.28
-5.04
-2.89
-4.71
-10.88
-21.23
-34.97
-50.76
-66.84
-81.20
-91.44
-94.75
-88.19
-69.50
-38.41
2.50
47.69
90.03
122.88
142.18
147.50
141.59
129.09
114.93
103.10
96.02
94.22
96.42
100.03
102.01
100.02
93.19
82.24
68.71
53.93
38.42
22.20
5.50
-10.44
-23.48
-31.48
-33.49
-30.54
-25.41
-21.24
-20.04
-21.64
-23.87
-23.92
-19.97
-12.23
-2.74
6.01
12.59
17.52
22.66
29.75
38.87
47.96
53.64
52.80
44.03
28.16
7.78
-13.82
-33.59
-49.24
-59.37
-63.49
-62.15
-56.79
-49.51
-42.43
-37.00
-33.63
-31.76
-30.36
-28.58
-26.05
-22.65
-18.17
-11.94
-3.03
9.08
23.60
38.18
49.38
53.91
50.05
38.34
21.21
1.98
-16.33
-31.48
-41.96
-46.53
-44.27
-35.19
-21.04
-5.63
5.94
9.14
1.98
-13.79
-33.04
-49.11
-56.39
-52.36
-38.10
-17.47
4.54
23.33
35.74
40.33
37.33
28.35
15.84
2.28
-10.72
-23.17
-36.57
-52.86
-72.92
-95.29
-116.27
-131.03
-135.53
-128.07
-109.57
-82.99
-51.95
-19.79
10.95
38.63
62.50
82.87
100.69
117.05
132.07
144.11
149.87
145.62
128.96
100.22
62.86
22.44
-14.82
-43.77
-61.23
-66.18
-59.49
-43.93
-24.19
-6.54
2.58
-1.00
-16.91
-39.54
-59.69
-68.27
-59.94
-35.15
0.50
38.90
72.38
95.50
105.51
101.93
85.93
60.30
29.62
-0.21
-23.15
-34.73
-33.61
-22.15
-6.19
6.32
7.79
-6.06
-34.04
-68.99
-100.09
-117.01
-114.18
-92.78
-59.53
-22.92
10.43
37.26
56.97
69.74
75.32
73.30
64.43
51.34
38.01
28.03
22.88
21.47
20.80
17.62
10.03
-1.54
-14.38
-24.67
-29.13
-26.94
-20.72
-15.81
-17.89
-29.94
-50.25
-72.75
-89.55
-94.25
-84.45
-62.10
-32.19
-0.60
27.83
50.13
65.17
73.19
75.20
72.54
66.54
58.28
48.71
38.79
29.44
21.17
13.36
4.27
-8.37
-25.93
-47.48
-69.55
-87.22
-96.05
-94.08
-82.57
-65.21
-46.14
-28.03
-11.14
6.16
25.55
46.99
67.99
84.36
92.04
88.93
75.85
56.00
33.53
11.91
-6.61
-20.80
-29.78
-32.76
-29.44
-20.94
-10.26
-1.81
0.30
-5.91
-19.19
-35.37
-48.97
-55.38
-52.39
-40.55
-22.49
-1.70
18.60
36.05
49.11
57.09
60.02
58.45
53.31
45.32
34.58
20.74
3.83
-14.96
-32.92
-46.58
-53.35
-52.87
-47.29
-40.35
-35.40
-33.77
-34.46
-35.20
-34.01
-30.24
-24.49
-17.47
-9.25
0.91
13.74
28.92
44.80
58.80
68.46
72.31
70.00
61.95
48.86
31.54
11.26
-9.77
-28.45
-41.48
-46.56
-43.46
-34.43
-23.63
-15.82
-14.65
-21.26
-33.73
-47.87
-58.77
-62.75
-58.65
-47.76
-32.79
-16.36
0.19
16.82
33.95
51.26
67.02
78.48
82.99
79.36
68.61
53.82
39.03
27.74
21.42
18.87
16.59
10.44
-2.26
-21.21
-42.76
-61.35
-72.01
-72.80
-65.66
-55.19
-45.92
-39.76
-34.94
-27.29
-12.98
8.73
34.53
58.13
72.93
74.75
63.20
41.35
14.19
-13.01
-35.99
-51.77
-58.65
-56.45
-46.78
-33.45
-21.99
-18.20
-25.80
-44.38
-68.81
-90.79
-101.96
-97.26
-77.06
-47.08
-16.01
8.28
22.14
27.65
31.27
40.39
59.49
87.99
120.75
150.72
172.16
182.27
180.76
167.94
143.17
105.45
55.37
-2.61
-59.87
-106.22
-133.71
-139.81
-127.93
-105.20
-78.85
-53.26
-29.19
-5.13
20.13
45.65
68.04
82.98
87.24
80.18
63.76
41.40
16.51
-8.34
-31.32
-50.52
-63.39
-67.25
-60.78
-45.61
-26.88
-12.01
-7.81
-17.08
-36.93
-59.48
-74.95
-75.88
-60.33
-32.63
-1.25
25.04
40.78
45.52
42.97
38.33
35.70
36.60
40.10
43.97
46.01
44.69
39.41
30.67
19.88
9.12
0.27
-5.87
-10.14
-14.69
-21.88
-32.75
-46.16
-59.19
-68.74
-73.00
-72.10
-67.44
-60.42
-51.32
-39.28
-23.25
-3.25
18.95
40.02
56.16
64.34
63.20
53.29
36.82
16.88
-3.20
-20.38
-32.34
-37.61
-35.72
-27.18
-13.61
2.24
16.64
25.59
26.05
17.15
0.71
-19.11
-37.14
-48.87
-51.72
-45.50
-31.84
-13.16
8.20
30.41
52.03
71.56
87.31
97.66
101.67
99.73
93.77
86.80
81.71
79.63
78.70
74.32
61.16
36.05
0.32
-39.84
-75.70
-99.62
-108.21
-103.21
-89.79
-73.43
-57.35
-42.05
-26.64
-10.88
3.73
14.34
18.40
15.32
6.91
-3.46
-12.37
-17.89
-19.98
-20.10
-19.93
-20.30
-20.80
-20.19
-17.47
-12.79
-7.82
-5.09
-6.61
-12.57
-21.05
-28.66
-32.11
-29.64
-21.71
-10.45
1.59
12.81
23.07
33.26
44.11
55.30
65.16
71.39
72.08
66.58
55.67
41.21
25.50
10.61
-2.03
-11.86
-19.17
-24.89
-30.22
-36.08
-42.63
-49.25
-54.93
-58.96
-61.16
-61.69
-60.36
-56.23
-47.79
-33.78
-14.29
8.75
31.94
51.51
64.52
69.57
66.75
57.14
42.20
23.54
3.13
-16.39
-32.04
-41.10
-42.21
-35.97
-24.93
-12.66
-2.66
2.73
2.82
-1.63
-8.86
-16.68
-22.94
-25.78
-23.91
-16.86
-5.20
9.51
24.96
38.76
49.09
55.05
56.62
54.37
49.02
41.29
32.03
22.46
14.26
9.22
8.36
11.12
15.14
16.94
13.28
2.55
-14.52
-35.27
-56.18
-73.95
-86.17
-91.31
-88.60
-77.93
-60.11
-37.06
-11.81
12.02
31.10
43.21
47.66
45.13
37.12
25.34
11.35
-3.36
-17.14
-28.12
-34.53
-35.42
-31.26
-23.99
-16.29
-10.43
-7.31
-6.18
-5.34
-3.27
0.55
5.63
11.09
16.49
22.09
28.49
35.81
43.37
49.91
54.53
57.31
59.29
61.63
64.59
66.87
66.22
60.80
50.66
38.04
26.43
18.56
14.73
12.69
8.99
1.04
-11.46
-26.71
-42.22
-56.35
-68.86
-80.10
-89.64
-95.45
-94.37
-83.69
-62.82
-34.04
-1.88
28.38
52.22
66.77
70.74
64.09
47.74
23.59
-5.23
-34.28
-58.71
-74.33
-78.99
-73.46
-61.33
-48.30
-40.61
-43.32
-58.49
-84.16
-114.59
-141.73
-158.05
-159.31
-146.21
-123.91
-99.47
-78.08
-60.49
-43.01
-20.12
11.89
52.40
96.57
137.77
170.71
193.45
207.52
216.46
223.78
231.42
239.42
246.01
248.46
243.87
229.66
204.15
166.74
118.03
59.86
-4.37
-69.43
-128.24
-172.78
-196.02
-194.39
-169.38
-127.50
-78.48
-32.25
3.73
26.00
34.86
33.19
24.95
13.97
3.27
-5.21
-10.53
-12.53
-11.83
-10.00
-9.73
-14.44
-27.24
-49.42
-78.97
-110.57
-137.19
-152.63
-154.01
-142.63
-122.87
-99.80
-76.97
-55.40
-34.27
-12.47
10.28
33.14
54.81
74.38
91.67
106.93
120.32
131.54
139.92
144.80
145.64
141.84
132.42
116.21
92.47
61.61
25.58
-12.44
-48.94
-81.15
-107.32
-126.27
-136.74
-137.10
-125.95
-103.34
-71.85
-36.58
-3.89
20.66
34.23
37.41
33.57
27.07
21.29
17.36
13.86
7.83
-3.32
-20.10
-40.14
-58.98
-72.05
-76.79
-73.80
-66.28
-58.21
-52.38
-49.39
-47.99
-46.22
-42.77
-37.38
-30.30
-21.52
-10.33
4.30
22.72
43.87
65.30
84.01
97.56
104.92
106.43
103.44
97.56
90.32
83.23
77.54
73.60
69.99
63.23
48.81
23.36
-12.86
-55.00
-94.86
-123.96
-136.81
-132.83
-115.71
-91.45
-66.06
-44.24
-29.09
-22.28
-23.86
-31.90
-42.53
-50.84
-52.65
-46.20
-32.90
-16.68
-2.63
4.66
2.52
-8.96
-26.83
-45.80
-59.83
-64.28
-57.79
-42.96
-25.18
-10.22
-1.74
0.04
-2.31
-5.11
-5.54
-2.71
2.61
8.85
14.53
18.67
20.99
22.12
23.72
28.31
38.44
55.36
77.92
102.40
123.82
138.04
143.75
143.01
140.18
139.65
143.71
151.66
160.48
166.52
166.86
159.75
143.83
117.38
78.57
27.01
-34.14
-97.10
-150.67
-183.66
-189.13
-167.27
-125.41
-75.25
-28.56
6.41
26.23
31.13
22.76
2.70
-27.54
-65.12
-104.59
-138.23
-158.26
-160.21
-145.16
-119.95
-94.43
-77.42
-73.26
-80.61
-94.01
-106.88
-114.40
-114.83
-109.13
-99.23
-86.52
-71.00
-51.37
-26.01
5.79
42.85
82.14
119.97
153.67
182.72
208.57
233.05
256.49
276.81
290.26
293.30
284.50
265.18
238.29
206.45
170.56
129.76
82.87
30.11
-25.97
-80.90
-129.37
-166.43
-188.08
-191.71
-176.74
-145.24
-102.45
-56.43
-16.46
9.30
16.10
3.90
-22.83
-56.76
-89.68
-114.34
-125.74
-121.79
-103.86
-77.24
-50.40
-32.80
-31.43
-47.60
-75.87
-106.18
-128.04
-134.96
-126.45
-106.93
-82.35
-56.76
-30.82
-2.90
28.31
61.70
93.51
118.95
134.59
139.86
136.97
129.54
120.86
112.80
105.44
97.44
86.84
71.86
51.57
26.18
-2.82
-33.01
-61.79
-87.17
-108.11
-124.06
-134.11
-136.32
-128.07
-107.41
-74.91
-34.57
6.64
40.98
62.59
69.47
63.58
49.40
31.89
14.84
0.40
-10.42
-16.79
-17.78
-12.86
-2.72
10.17
21.88
28.14
25.64
13.16
-8.06
-34.47
-60.96
-81.84
-92.28
-89.54
-73.98
-49.01
-20.06
7.30
29.25
44.61
54.63
61.59
67.38
72.49
76.12
77.14
75.05
70.64
65.62
61.75
59.84
59.31
58.65
56.27
51.12
42.54
29.53
10.63
-15.42
-47.89
-82.71
-112.66
-129.76
-128.61
-109.13
-76.79
-40.33
-8.29
13.76
24.00
23.44
14.32
-1.02
-20.07
-39.72
-56.17
-65.55
-65.28
-55.23
-38.37
-20.26
-7.50
-5.37
-15.76
-36.23
-60.75
-82.07
-94.52
-96.07
-88.34
-74.79
-58.18
-38.97
-15.69
13.09
46.61
81.16
111.20
131.86
141.13
140.43
133.46
124.19
115.28
107.55
100.60
93.85
87.04
80.38
74.26
68.88
64.07
59.05
52.10
40.74
22.43
-3.85
-36.09
-68.79
-94.24
-105.44
-99.23
-78.07
-49.27
-22.20
-4.67
-0.35
-8.30
-24.42
-43.75
-62.31
-77.73
-88.83
-94.82
-94.91
-88.68
-76.72
-61.25
-45.86
-34.52
-30.04
-32.99
-41.48
-51.94
-60.75
-65.60
-66.10
-63.22
-57.92
-49.86
-37.15
-17.32
10.94
46.17
83.93
118.12
143.24
156.41
158.25
152.17
142.84
134.48
129.61
128.50
129.14
127.79
120.22
103.43
77.25
44.92
11.89
-16.39
-36.74
-48.99
-54.92
-56.11
-52.37
-42.06
-23.99
0.46
26.85
49.05
62.04
64.11
57.28
45.63
33.18
22.25
13.49
6.93
3.03
2.99
7.79
16.87
27.43
34.98
35.04
25.02
5.12
-21.90
-52.04
-81.45
-107.11
-126.73
-138.23
-139.49
-128.82
-105.93
-72.89
-34.12
4.52
37.46
61.05
74.29
78.44
75.98
69.42
60.67
51.05
41.44
32.29
23.27
13.01
-0.55
-18.87
-41.49
-65.42
-85.92
-98.52
-100.94
-93.86
-80.11
-62.78
-43.68
-23.08
-0.90
21.84
42.42
57.25
63.47
60.46
50.08
35.69
20.50
6.40
-6.22
-17.80
-28.62
-38.32
-46.01
-51.09
-53.88
-55.67
-58.07
-61.99
-66.95
-71.23
-72.78
-70.37
-64.26
-56.09
-47.83
-40.75
-34.77
-28.79
-21.55
-12.49
-2.19
7.97
16.53
22.70
26.54
28.84
30.62
32.71
35.48
38.76
41.92
44.11
44.64
43.27
40.40
36.83
33.42
30.66
28.47
26.48
24.44
22.67
22.06
23.60
27.83
34.28
41.64
48.12
52.27
53.68
53.07
51.86
51.60
53.07
56.08
59.80
63.29
65.89
67.03
65.85
61.02
51.11
35.20
13.85
-10.50
-34.15
-53.30
-65.86
-72.14
-74.37
-75.35
-76.97
-79.61
-82.30
-83.69
-82.69
-78.91
-72.44
-63.64
-53.00
-41.30
-29.50
-18.77
-10.43
-5.15
-2.80
-2.27
-1.71
0.92
7.35
18.42
33.59
50.83
66.94
78.38
82.35
77.76
65.39
47.76
28.06
9.20
-6.89
-19.36
-28.30
-34.23
-37.73
-39.31
-39.42
-38.68
-37.91
-37.92
-39.29
-42.11
-45.97
-50.15
-53.87
-56.49
-57.72
-57.65
-56.62
-55.07
-53.29
-51.32
-49.10
-46.53
-43.78
-41.23
-39.26
-37.95
-36.92
-35.43
-32.76
-28.53
-22.90
-16.44
-9.66
-2.69
4.88
13.70
24.12
35.69
47.10
56.60
62.81
65.28
64.75
62.59
60.08
57.82
55.58
52.66
48.47
42.95
36.65
30.44
25.08
21.05
18.44
17.10
16.78
17.18
17.94
18.66
18.90
18.28
16.57
13.83
10.38
6.76
3.68
1.70
0.99
1.17
1.36
0.48
-2.16
-6.47
-11.36
-15.18
-16.49
-14.88
-11.33
-7.82
-6.25
-7.42
-10.53
-13.67
-14.80
-12.94
-8.63
-3.48
0.78
3.20
3.67
2.51
-0.21
-4.62
-10.61
-17.10
-21.97
-22.92
-18.77
-10.36
-0.62
6.75
8.89
5.11
-3.02
-12.60
-20.74
-25.72
-27.30
-26.37
-24.11
-21.47
-18.79
-15.79
-11.81
-6.40
0.39
7.77
14.47
19.22
21.33
21.03
19.35
17.63
16.84
17.22
18.32
19.37
19.89
20.02
20.46
22.02
25.05
29.07
32.88
35.20
35.36
33.75
31.69
30.69
31.50
33.51
34.98
33.83
28.88
20.69
11.46
4.20
1.28
3.35
8.99
15.42
19.83
20.70
18.46
15.13
13.09
13.65
16.32
18.92
18.69
13.75
4.10
-8.40
-20.93
-31.03
-37.66
-41.27
-43.13
-44.36
-45.25
-45.36
-44.23
-42.03
-39.53
-37.69
-36.74
-35.89
-33.71
-29.17
-22.57
-15.69
-10.94
-9.88
-12.22
-15.87
-18.17
-17.45
-14.00
-9.85
-7.47
-8.23
-11.66
-15.70
-18.01
-17.20
-13.56
-8.66
-4.42
-1.98
-1.29
-1.37
-1.02
0.34
2.33
3.74
3.17
-0.20
-6.11
-13.01
-18.62
-20.70
-17.87
-10.05
1.49
14.52
26.34
34.44
37.05
33.61
25.03
13.37
1.23
-9.21
-16.80
-21.54
-24.04
-24.79
-23.79
-20.66
-15.45
-8.91
-2.55
2.25
5.19
7.37
10.72
16.52
24.24
31.42
34.75
32.11
24.23
14.63
7.92
7.30
12.64
20.56
26.20
25.97
19.40
9.09
-0.99
-7.87
-10.95
-11.77
-12.40
-13.95
-15.85
-16.67
-15.59
-13.26
-11.72
-12.94
-17.41
-23.54
-28.35
-29.05
-24.67
-16.59
-7.85
-1.41
1.48
1.70
1.67
3.83
9.15
16.74
24.30
29.30
30.21
27.00
20.84
13.37
5.87
-1.17
-7.69
-13.72
-18.80
-22.08
-22.83
-20.99
-17.54
-14.19
-12.76
-14.39
-19.01
-25.36
-31.47
-35.45
-35.98
-32.79
-26.52
-18.51
-10.42
-3.76
0.29
1.13
-1.36
-6.95
-15.14
-25.18
-36.11
-46.70
-55.59
-61.55
-63.62
-61.31
-54.67
-44.21
-31.04
-16.75
-3.09
8.35
16.69
21.93
24.73
26.06
26.58
26.55
25.90
24.60
22.88
21.13
19.55
18.01
16.06
13.31
9.70
5.83
2.64
1.07
1.56
3.84
7.11
10.39
12.89
14.25
14.48
13.71
11.97
9.24
5.67
1.85
-1.10
-1.95
0.09
4.83
10.86
16.16
18.99
18.63
15.76
11.98
8.86
7.04
5.84
3.71
-0.80
-7.92
-16.27
-23.24
-25.97
-22.66
-13.15
1.18
18.04
35.07
50.04
60.85
65.52
63.04
54.36
43.03
34.21
32.51
39.28
51.22
61.65
63.55
53.20
32.04
6.16
-16.77
-30.91
-34.66
-30.75
-24.05
-18.92
-16.96
-16.89
-15.79
-11.54
-4.40
3.03
7.43
7.14
3.45
-0.19
-0.52
3.33
9.45
14.60
16.59
15.60
13.88
14.16
18.26
26.54
38.08
51.34
64.33
74.56
79.33
76.69
66.54
51.07
33.64
16.97
1.78
-13.23
-29.58
-47.24
-63.91
-76.12
-81.21
-78.81
-70.95
-60.72
-50.70
-41.84
-33.77
-25.76
-17.84
-11.04
-6.64
-5.32
-6.47
-8.66
-10.36
-10.78
-10.13
-9.34
-9.31
-10.50
-12.65
-15.18
-17.54
-19.42
-20.77
-21.62
-21.87
-21.40
-20.27
-18.75
-17.21
-15.71
-13.87
-11.07
-6.91
-1.76
3.33
7.09
8.82
8.85
8.49
9.20
11.85
16.00
20.11
22.14
20.54
14.99
6.49
-3.12
-11.89
-18.68
-23.34
-26.44
-28.80
-30.80
-32.35
-33.18
-33.08
-32.14
-30.28
-26.86
-20.35
-8.98
8.05
29.40
51.42
69.20
78.81
79.11
72.52
63.83
57.93
57.60
62.73
70.95
79.48
86.55
91.90
95.92
98.49
98.34
93.67
83.40
68.38
51.42
36.00
24.56
17.26
12.13
6.54
-1.17
-10.84
-21.01
-30.16
-37.84
-44.79
-52.03
-59.82
-67.35
-73.20
-76.03
-74.72
-67.99
-54.29
-32.45
-3.10
30.19
61.08
82.37
88.55
77.72
51.61
14.23
-29.89
-76.45
-120.95
-158.06
-181.70
-186.65
-170.39
-134.60
-84.77
-28.39
27.30
76.38
114.48
138.21
144.94
133.57
105.94
67.90
28.58
-2.71
-20.49
-25.57
-24.31
-24.70
-31.73
-44.53
-57.12
-62.48
-56.96
-42.46
-25.07
-11.25
-4.31
-3.57
-5.81
-8.25
-10.46
-14.03
-20.79
-30.94
-42.71
-53.55
-61.34
-65.63
-67.50
-68.67
-70.61
-73.86
-78.18
-82.91
-87.34
-90.89
-93.05
-93.25
-90.80
-84.71
-73.76
-57.03
-34.50
-7.59
20.87
47.32
68.89
84.42
94.96
102.93
110.52
118.32
124.69
126.65
121.38
107.56
85.98
58.91
29.93
3.51
-15.38
-22.19
-14.73
4.62
28.39
45.91
47.97
31.41
0.94
-33.03
-59.71
-73.04
-73.41
-65.71
-55.26
-44.56
-33.28
-20.69
-7.91
1.54
3.80
-2.20
-13.25
-22.99
-24.85
-15.61
3.12
25.88
45.91
57.50
57.95
48.01
31.27
13.08
-1.11
-7.32
-4.27
6.18
19.67
31.19
36.93
35.78
29.40
20.92
13.44
8.75
6.79
6.22
4.99
1.02
-7.08
-19.22
-33.42
-46.14
-53.64
-53.98
-47.78
-37.88
-27.86
-20.23
-15.29
-11.38
-6.18
2.16
14.03
28.10
41.66
51.28
53.94
48.28
35.10
17.47
-0.46
-15.29
-25.89
-33.61
-40.84
-49.22
-58.14
-64.79
-65.45
-56.82
-36.99
-5.27
38.20
92.09
153.41
216.46
273.13
314.39
332.76
324.40
289.93
234.01
163.58
86.78
12.04
-52.58
-100.34
-127.41
-134.32
-125.95
-109.94
-93.86
-82.72
-78.32
-80.19
-87.21
-97.94
-110.46
-121.37
-125.96
-119.92
-101.48
-72.80
-39.25
-7.08
18.59
35.17
41.46
36.09
16.88
-17.73
-66.10
-121.62
-173.40
-209.92
-223.43
-213.10
-185.25
-150.34
-119.01
-98.35
-90.06
-90.84
-94.04
-91.54
-75.77
-41.71
11.53
79.47
152.48
218.01
263.94
281.91
269.49
230.20
172.13
105.57
40.36
-15.56
-57.13
-82.51
-92.87
-91.72
-83.72
-73.20
-62.96
-53.92
-45.52
-36.78
-26.95
-15.30
-1.11
16.27
36.82
58.80
78.65
92.04
95.88
89.97
77.66
64.45
55.48
53.56
58.09
65.60
70.89
68.35
53.02
21.78
-25.16
-83.11
-142.70
-192.11
-220.94
-224.28
-205.04
-172.85
-140.38
-118.39
-111.99
-119.70
-134.76
-147.73
-149.35
-132.60
-94.54
-37.92
28.43
91.44
138.21
161.01
160.13
142.61
117.32
89.84
60.49
26.56
-13.15
-54.79
-90.16
-111.03
-113.44
-100.19
-78.23
-53.70
-27.98
2.47
42.37
92.89
148.81
199.93
235.24
247.21
234.25
200.16
150.83
91.16
23.54
-51.22
-131.11
-210.80
-281.30
-332.53
-357.06
-352.99
-324.64
-280.32
-228.86
-176.55
-125.72
-75.03
-21.31
38.22
103.94
172.40
236.48
286.63
313.52
310.96
277.91
218.72
141.77
57.22
-25.28
-98.34
-157.58
-201.46
-230.42
-245.78
-248.74
-240.09
-220.64
-192.06
-157.22
-119.62
-81.69
-43.27
-1.97
44.35
94.61
142.99
180.60
199.81
198.33
180.76
156.29
134.45
121.90
121.20
131.75
151.00
174.87
196.99
208.87
202.22
172.80
124.28
68.87
23.59
3.54
15.25
53.52
103.32
145.61
164.75
154.06
117.36
66.60
16.52
-20.81
-39.64
-41.00
-30.41
-14.62
1.06
13.94
23.53
30.35
34.86
37.32
38.38
39.69
43.65
52.45
66.14
81.36
91.32
87.55
63.15
16.18
-48.67
-121.02
-188.25
-239.82
-270.27
-279.71
-271.59
-249.84
-217.11
-174.93
-125.23
-71.84
-20.64
22.01
51.48
66.48
69.04
63.09
52.69
41.01
30.44
22.94
20.31
23.57
32.18
43.78
54.86
62.22
64.47
62.56
59.19
57.43
59.28
64.87
72.51
79.55
83.42
82.61
76.99
67.76
56.75
45.50
34.59
23.45
11.02
-3.32
-19.13
-34.96
-49.18
-60.89
-70.07
-77.15
-82.05
-83.81
-80.94
-72.38
-58.54
-41.40
-23.76
-8.18
3.96
12.63
18.55
22.47
24.77
25.41
24.28
21.57
17.86
14.10
11.30
10.04
10.16
10.65
10.07
7.15
1.54
-6.10
-14.34
-21.57
-26.58
-28.79
-28.11
-24.88
-19.71
-13.51
-7.50
-2.89
-0.44
-0.13
-1.24
-2.85
-4.48
-6.37
-9.20
-13.43
-18.76
-24.02
-27.71
-28.79
-27.34
-24.37
-21.45
-19.61
-18.99
-18.74
-17.74
-15.09
-10.51
-4.28
3.26
11.50
19.16
23.55
20.78
7.18
-18.54
-53.50
-90.96
-122.43
-141.30
-145.56
-138.08
-124.31
-108.71
-92.32
-72.97
-47.82
-16.28
18.46
50.66
74.80
88.30
92.66
92.05
91.01
92.12
95.36
98.56
99.33
96.55
90.71
83.63
77.27
72.76
70.11
68.50
66.93
64.92
62.94
61.90
62.64
65.03
67.77
68.71
65.85
58.40
47.49
35.79
26.37
21.32
20.57
21.75
21.22
15.67
3.75
-13.27
-32.03
-48.56
-59.87
-64.94
-64.62
-60.75
-55.06
-48.33
-40.43
-30.93
-19.89
-8.34
1.88
8.96
11.92
11.20
8.54
6.29
6.74
11.64
22.07
38.34
59.53
82.98
104.35
118.71
122.61
115.98
102.39
87.32
75.09
66.51
58.78
47.91
31.87
12.18
-6.93
-21.32
-29.42
-32.89
-34.87
-37.60
-40.81
-42.29
-39.92
-33.42
-24.90
-17.55
-13.96
-15.10
-20.49
-29.26
-40.47
-52.68
-62.72
-65.39
-54.93
-28.07
13.40
62.23
108.49
143.83
164.87
173.70
174.98
171.94
163.90
146.82
116.33
71.04
14.05
-48.10
-108.03
-160.33
-202.62
-234.87
-257.86
-271.57
-274.75
-265.36
-241.63
-202.81
-149.65
-84.19
-9.66
69.17
145.56
210.80
255.37
271.22
254.80
209.45
145.68
78.35
21.99
-14.04
-28.42
-27.49
-22.14
-23.70
-40.46
-75.95
-128.54
-192.20
-257.60
-313.85
-350.82
-361.34
-343.65
-301.63
-243.42
-178.17
-112.73
-49.78
11.58
73.62
137.41
201.22
260.48
309.03
341.16
353.02
343.74
315.41
272.33
219.53
161.35
100.44
37.21
-29.14
-99.04
-170.55
-238.21
-293.48
-326.80
-330.80
-303.43
-249.49
-180.00
-109.46
-52.73
-21.55
-22.06
-53.58
-108.48
-173.58
-233.12
-272.45
-281.70
-258.11
-206.49
-137.63
-65.34
-2.98
40.23
61.72
66.27
64.57
69.56
92.31
137.04
199.68
268.58
328.39
365.38
371.59
347.16
299.79
242.04
187.24
145.63
121.54
112.73
111.92
109.92
98.96
75.19
39.38
-4.64
-52.55
-101.82
-152.16
-203.87
-255.19
-300.74
-332.39
-342.16
-325.89
-285.40
-228.42
-166.43
-110.71
-69.61
-46.14
-37.63
-36.93
-34.82
-23.29
1.30
36.82
76.90
114.29
144.63
168.01
187.33
204.55
217.90
221.48
207.95
172.76
116.69
46.21
-29.20
-100.41
-160.98
-207.32
-237.57
-250.35
-245.04
-223.41
-190.93
-156.37
-129.15
-115.54
-115.60
-123.23
-128.91
-123.92
-103.66
-68.49
-22.54
28.52
78.66
122.10
153.34
168.36
166.36
150.87
129.82
112.51
106.76
115.81
137.40
165.15
190.93
207.59
210.38
197.57
168.64
124.88
69.14
6.34
-56.43
-110.81
-149.13
-167.07
-164.74
-147.66
-122.88
-96.12
-69.20
-40.18
-4.92
39.94
91.36
148.58
203.45
247.41
273.72
279.63
266.71
239.81
204.78
165.56
123.47
76.13
21.17
-41.26
-106.71
-166.82
-211.97
-234.93
-233.82
-212.04
-177.48
-137.94
-98.39
-59.42
-18.25
28.76
83.24
143.11
203.03
255.60
294.63
317.01
323.47
317.88
305.36
290.28
274.74
258.67
240.55
219.31
195.20
169.78
144.59
119.58
92.29
58.30
13.41
-44.23
-112.17
-183.30
-247.62
-294.84
-317.37
-312.01
-280.35
-227.77
-162.11
-92.32
-27.30
24.87
58.39
70.70
62.99
39.62
6.36
-32.04
-73.70
-119.59
-171.57
-229.37
-288.44
-340.21
-375.09
-386.46
-373.79
-342.88
-303.04
-263.11
-227.91
-197.44
-168.55
-137.62
-102.51
-62.54
-17.47
33.28
90.12
151.83
214.30
271.13
315.49
342.85
352.59
347.48
331.79
308.71
279.29
243.18
200.37
152.59
102.95
54.41
8.33
-35.79
-78.72
-119.33
-153.49
-174.79
-176.72
-155.53
-111.98
-51.70
16.01
80.34
131.41
162.34
170.78
159.14
133.45
101.05
67.69
35.71
3.27
-33.89
-79.61
-134.56
-194.79
-252.64
-299.43
-328.74
-338.78
-332.67
-316.55
-296.59
-276.29
-255.86
-233.35
-206.84
-175.89
-141.18
-103.11
-60.55
-11.52
45.02
106.86
167.78
219.19
252.94
263.77
250.42
214.96
161.66
96.64
27.81
-35.24
-82.77
-107.64
-108.23
-89.64
-62.27
-37.79
-24.53
-24.41
-32.70
-40.38
-37.89
-18.62
18.92
70.75
128.62
182.43
223.19
245.31
248.04
234.63
210.56
181.24
149.97
116.99
79.89
35.18
-19.14
-81.53
-146.35
-205.09
-249.34
-273.98
-279.13
-269.53
-252.14
-232.63
-213.20
-192.60
-167.87
-136.54
-97.77
-52.08
-0.67
54.89
112.26
167.64
216.09
252.84
275.07
282.77
278.28
264.38
242.25
210.90
168.47
114.79
53.43
-8.41
-62.18
-101.31
-123.77
-132.17
-131.63
-126.74
-119.28
-107.64
-88.50
-59.08
-18.98
29.38
81.54
132.21
176.27
209.30
227.89
230.14
216.14
188.10
149.93
106.04
59.62
11.61
-38.88
-92.91
-149.21
-203.01
-246.66
-272.24
-274.77
-254.31
-215.43
-164.34
-106.62
-46.35
12.46
63.93
100.52
116.22
111.19
94.25
80.67
85.34
115.23
165.42
221.33
265.86
287.14
282.52
256.97
218.28
172.36
121.97
68.40
14.30
-35.29
-74.41
-98.83
-108.40
-107.17
-101.40
-96.67
-95.90
-98.87
-102.95
-104.83
-101.71
-92.00
-75.38
-52.96
-27.28
-2.27
17.34
27.14
24.10
7.38
-21.96
-61.90
-110.20
-164.26
-220.23
-272.17
-312.34
-333.27
-330.47
-304.59
-261.46
-209.78
-157.63
-109.79
-67.18
-28.52
7.47
40.65
70.04
95.60
119.44
145.31
176.17
211.64
246.96
274.69
288.46
286.45
272.44
253.46
235.20
218.03
196.33
162.00
110.08
43.34
-27.22
-86.04
-119.32
-120.51
-92.56
-46.40
3.14
41.74
59.34
52.04
22.72
-19.72
-62.29
-90.95
-94.60
-68.61
-16.62
50.54
118.49
174.20
209.51
222.59
216.63
196.79
167.35
129.68
82.89
26.45
-37.09
-100.21
-151.44
-178.90
-175.51
-142.49
-89.87
-33.27
11.62
33.86
30.29
5.12
-32.64
-72.48
-104.72
-121.65
-117.98
-91.40
-43.69
18.60
84.80
142.36
180.11
191.45
175.90
137.94
84.54
22.35
-43.22
-107.32
-164.17
-205.86
-223.91
-213.06
-175.45
-122.12
-70.45
-37.39
-32.55
-54.14
-89.95
-123.38
-140.63
-135.32
-108.59
-65.83
-12.91
45.51
105.11
160.11
202.86
225.55
223.57
197.68
153.81
100.02
42.93
-14.58
-72.71
-132.14
-191.06
-244.08
-283.68
-303.48
-301.10
-279.22
-244.15
-202.81
-160.17
-117.65
-73.68
-25.33
29.90
92.59
160.72
229.82
293.97
347.27
385.64
407.84
415.69
412.78
402.64
387.48
367.92
343.78
314.88
281.69
244.69
203.83
158.29
106.93
49.00
-15.53
-85.88
-160.39
-235.73
-306.76
-366.52
-407.66
-424.64
-415.56
-382.51
-330.13
-263.58
-187.37
-105.89
-24.81
48.23
104.85
138.88
149.27
140.77
121.80
100.34
80.13
59.29
31.89
-8.47
-64.56
-133.40
-206.66
-273.49
-324.51
-354.91
-365.46
-361.23
-348.68
-332.39
-313.67
-290.78
-260.47
-219.75
-167.18
-103.41
-31.51
43.47
115.09
176.81
223.66
253.28
265.61
261.19
239.89
200.88
144.65
75.47
2.48
-62.22
-107.90
-129.65
-130.32
-118.75
-105.08
-96.05
-92.76
-91.14
-85.09
-69.70
-42.91
-5.16
41.74
95.32
152.33
207.57
254.46
286.21
297.94
288.67
261.60
222.60
177.53
129.99
79.73
24.65
-36.77
-102.84
-167.72
-222.82
-259.93
-274.33
-266.41
-241.92
-208.41
-172.28
-136.16
-98.40
-54.51
0.17
65.39
141.18
220.55
294.74
355.97
400.24
428.53
445.90
458.67
471.06
483.48
491.97
491.45
478.45
452.90
417.79
377.15
333.88
288.44
239.60
185.33
124.89
59.04
-10.37
-81.40
-152.15
-219.84
-279.67
-324.33
-346.22
-340.43
-308.11
-257.76
-203.19
-158.83
-134.92
-135.00
-156.58
-194.49
-243.69
-300.30
-360.31
-417.77
-464.21
-490.65
-491.07
-465.33
-419.75
-364.71
-310.30
-262.66
-222.63
-186.92
-150.91
-111.05
-65.71
-14.46
42.86
106.46
175.67
247.53
316.30
374.44
415.08
434.70
434.34
418.77
394.55
367.42
340.64
314.50
286.91
254.68
214.54
163.67
99.84
22.38
-66.64
-161.78
-254.43
-334.51
-392.92
-424.53
-429.69
-414.01
-385.51
-350.98
-313.66
-272.67
-225.00
-169.75
-110.08
-51.99
-5.39
18.34
12.05
-24.17
-82.37
-148.92
-208.85
-250.55
-268.80
-265.25
-245.85
-217.31
-184.94
-151.88
-120.07
-91.23
-66.99
-48.19
-33.78
-19.64
1.54
37.74
94.36
170.97
260.29
349.95
426.69
481.31
512.08
524.74
528.60
531.75
536.96
540.98
536.87
517.77
479.57
421.53
345.23
253.36
149.77
40.24
-66.84
-161.41
-234.22
-279.26
-295.00
-283.45
-248.40
-194.03
-125.29
-49.17
24.78
86.05
126.56
144.20
143.97
135.59
128.91
129.20
135.33
141.33
139.74
124.89
94.43
48.90
-9.38
-76.83
-148.64
-218.38
-278.98
-324.20
-350.53
-357.80
-348.32
-324.83
-288.57
-239.10
-176.02
-102.24
-23.46
50.65
110.62
150.99
172.12
179.52
180.27
179.24
176.97
169.99
153.07
122.25
76.58
18.58
-46.45
-111.55
-169.42
-213.67
-240.08
-247.63
-238.17
-214.87
-180.47
-136.01
-81.50
-17.96
50.38
115.56
167.71
198.75
205.70
191.66
164.24
132.02
101.19
73.85
48.17
20.18
-14.29
-58.06
-111.54
-172.12
-233.99
-289.12
-329.24
-348.74
-346.85
-327.97
-299.68
-269.71
-242.82
-219.80
-198.36
-175.28
-147.91
-114.42
-73.42
-23.82
34.14
97.47
159.63
211.92
246.32
258.32
248.68
222.20
184.74
139.98
88.22
27.98
-40.64
-113.24
-181.05
-233.74
-263.83
-269.99
-257.37
-234.70
-210.13
-187.95
-167.57
-145.65
-118.81
-85.70
-46.82
-3.21
44.75
97.05
152.26
206.18
251.77
281.33
289.19
273.95
238.29
186.97
124.68
55.43
-16.48
-84.98
-142.11
-180.14
-194.75
-187.25
-164.27
-134.64
-105.47
-79.47
-54.98
-27.95
5.35
46.52
94.70
146.97
198.95
245.27
280.19
298.62
297.71
277.85
242.36
196.40
144.97
91.36
36.55
-20.10
-79.41
-140.95
-202.39
-259.73
-308.29
-344.01
-364.50
-369.44
-360.35
-339.93
-311.31
-277.56
-241.42
-205.29
-170.94
-139.33
-110.15
-81.83
-51.75
-17.02
24.52
73.09
126.29
179.19
225.45
259.36
277.76
281.08
272.94
258.55
242.81
229.06
218.86
212.53
209.92
210.78
214.77
221.07
228.19
233.75
234.92
229.04
214.78
193.27
168.38
145.86
131.55
129.38
140.26
162.08
190.78
221.60
249.94
271.71
283.56
283.55
271.86
251.14
225.97
201.19
180.08
163.27
148.85
133.69
114.96
91.28
62.94
31.50
-1.02
-32.96
-63.62
-93.46
-123.86
-156.96
-195.14
-240.13
-291.71
-346.65
-398.04
-436.39
-452.21
-439.50
-398.66
-337.07
-266.89
-200.97
-148.57
-113.08
-92.39
-81.52
-75.85
-73.09
-73.40
-77.75
-85.98
-95.75
-103.00
-103.89
-96.92
-84.31
-70.98
-62.02
-59.75
-62.19
-64.10
-59.79
-46.14
-23.57
5.27
37.64
72.19
108.41
144.64
176.68
198.07
202.83
188.45
157.39
116.06
71.54
28.04
-14.72
-60.43
-112.97
-172.85
-235.36
-291.50
-331.14
-346.97
-337.45
-306.96
-263.41
-214.75
-166.47
-121.13
-79.60
-42.60
-10.85
15.85
39.75
64.78
94.59
129.92
167.03
198.72
217.04
216.68
197.48
164.55
126.44
92.04
67.41
53.91
48.30
45.05
39.61
31.08
22.71
19.51
25.21
40.20
62.03
87.67
115.35
144.15
171.93
193.72
203.17
196.43
176.30
152.77
138.79
143.22
165.40
195.01
217.37
221.17
203.45
169.81
129.96
92.17
59.89
31.96
5.04
-23.64
-55.34
-90.54
-130.19
-175.80
-228.07
-284.93
-340.44
-385.63
-411.54
-412.68
-389.50
-347.82
-296.15
-241.67
-187.38
-131.99
-72.41
-7.34
60.40
124.14
176.12
210.99
227.95
230.73
225.29
216.77
207.27
195.36
177.15
148.41
106.58
52.39
-9.47
-70.95
-122.33
-154.79
-162.61
-144.83
-105.48
-52.66
3.06
51.19
83.92
98.88
100.08
96.58
98.71
113.29
140.40
173.37
202.30
218.79
219.54
206.57
184.57
157.85
128.53
97.09
64.19
31.76
2.34
-22.56
-44.30
-67.60
-99.05
-144.30
-204.90
-276.42
-348.74
-408.97
-445.85
-453.77
-434.56
-396.18
-348.96
-301.31
-257.15
-215.70
-173.32
-126.09
-71.89
-11.47
51.48
111.04
160.30
192.94
204.95
195.51
166.58
121.27
62.70
-6.04
-80.56
-153.70
-215.66
-256.42
-269.63
-255.60
-221.26
-177.26
-133.31
-94.61
-61.07
-29.05
6.03
47.60
97.35
155.27
219.53
286.04
348.26
398.19
428.75
436.32
422.21
392.19
354.20
315.23
279.43
247.61
218.18
188.72
156.96
120.78
77.93
26.30
-34.96
-103.51
-172.80
-232.80
-272.87
-285.87
-271.23
-235.07
-187.33
-137.46
-91.14
-49.75
-12.30
21.79
51.13
73.02
85.34
88.18
83.88
75.49
64.84
51.57
33.35
6.88
-30.54
-79.64
-138.09
-200.17
-257.31
-300.33
-322.26
-320.83
-299.12
-263.89
-222.46
-179.79
-137.18
-92.86
-43.95
11.57
73.51
139.17
203.86
261.81
307.38
336.35
347.08
340.99
321.93
294.95
264.88
235.29
208.26
184.58
164.02
145.43
126.50
103.73
72.86
30.03
-26.45
-94.48
-167.49
-235.48
-287.62
-315.70
-316.87
-294.18
-254.61
-205.81
-153.32
-99.76
-46.05
6.52
54.97
94.96
122.47
135.41
134.46
122.42
102.75
78.37
50.89
20.18
-15.53
-58.94
-112.20
-174.86
-242.33
-305.95
-355.33
-382.07
-383.11
-361.89
-326.54
-286.23
-247.71
-213.40
-182.00
-150.51
-116.21
-77.24
-32.14
20.67
82.22
151.42
223.46
289.90
340.89
368.50
370.03
348.95
313.11
271.32
229.76
190.03
149.45
103.35
48.32
-15.26
-82.22
-143.75
-190.16
-214.15
-213.15
-189.69
-149.94
-101.03
-48.94
2.24
49.81
91.29
123.91
145.31
154.80
154.35
148.35
141.95
138.70
139.15
140.69
138.68
128.77
108.38
77.12
35.99
-13.60
-69.95
-129.95
-188.06
-236.32
-266.47
-273.18
-256.37
-221.15
-175.19
-125.46
-76.08
-28.51
16.97
59.88
99.10
133.68
163.37
188.50
208.93
223.23
228.75
223.05
205.35
177.01
141.06
100.63
57.62
12.33
-35.74
-86.25
-136.74
-182.94
-220.21
-245.61
-259.46
-264.89
-265.89
-264.55
-259.38
-245.92
-219.44
-178.37
-126.18
-70.98
-22.21
12.97
32.34
38.61
37.30
33.79
31.12
29.47
27.03
21.70
12.60
0.14
-14.71
-31.69
-51.65
-75.89
-104.70
-136.36
-167.25
-193.34
-211.93
-222.72
-227.49
-228.67
-227.80
-224.92
-219.05
-209.48
-196.62
-182.20
-168.37
-156.60
-146.70
-136.85
-124.04
-104.98
-77.05
-39.36
6.28
55.03
99.82
133.25
150.25
149.76
134.99
112.00
87.54
66.96
53.02
45.60
42.20
38.89
31.70
18.12
-1.72
-24.84
-46.49
-62.14
-69.19
-67.81
-60.08
-48.42
-34.28
-17.78
1.92
26.12
56.22
93.28
137.34
186.20
234.63
274.90
298.61
298.99
272.71
220.54
147.13
60.45
-28.98
-109.39
-169.99
-203.92
-210.52
-195.75
-169.72
-142.42
-119.92
-102.63
-86.75
-67.39
-41.43
-8.45
29.82
70.59
110.55
146.03
173.67
191.71
201.36
206.74
213.02
223.34
236.31
246.04
244.93
227.86
195.42
154.32
114.82
86.39
74.17
77.70
92.16
111.09
129.00
142.77
151.65
156.26
157.27
154.62
147.90
137.33
124.55
112.80
106.17
108.26
120.99
143.74
173.45
205.29
233.88
254.87
266.15
268.56
265.29
260.45
257.23
256.83
258.49
260.57
261.97
262.75
263.82
265.85
268.39
269.70
267.61
260.65
248.76
233.29
216.36
199.71
183.91
168.25
151.12
131.00
107.23
80.49
52.44
25.06
-0.34
-23.61
-45.80
-68.56
-93.26
-120.29
-148.69
-176.43
-201.21
-221.45
-237.30
-251.32
-268.23
-293.86
-332.36
-383.72
-441.91
-495.51
-530.96
-537.14
-509.65
-452.74
-377.90
-299.91
-232.10
-182.98
-155.27
-146.52
-150.90
-160.63
-167.48
-164.78
-149.60
-124.13
-94.92
-70.22
-55.77
-52.27
-55.64
-60.25
-63.05
-65.76
-73.55
-91.34
-119.79
-153.87
-184.60
-203.18
-204.18
-186.83
-154.35
-112.65
-68.86
-30.24
-2.61
11.70
15.24
14.91
19.37
35.08
63.34
99.88
137.05
167.29
186.26
193.98
194.29
192.41
192.44
195.97
201.36
204.78
201.63
188.04
162.23
124.59
77.09
22.80
-34.29
-88.98
-134.76
-164.43
-172.37
-156.97
-122.28
-77.51
-34.08
-1.50
16.15
21.12
20.40
21.63
29.39
43.27
58.81
70.59
75.53
74.84
73.37
77.20
90.34
113.30
142.95
174.40
203.03
226.00
242.66
253.88
261.48
267.82
275.85
289.05
310.66
342.56
383.54
429.33
473.33
509.01
532.03
541.42
538.93
527.19
508.11
481.96
447.87
404.98
353.40
294.47
230.36
163.47
96.16
30.78
-30.27
-84.50
-129.69
-164.28
-187.85
-201.25
-206.37
-205.64
-201.47
-195.72
-189.43
-182.85
-175.66
-167.28
-157.28
-145.42
-131.76
-116.46
-99.86
-82.37
-64.45
-46.75
-29.95
-14.77
-1.80
8.45
15.57
19.19
18.97
14.67
6.30
-5.65
-20.19
-35.82
-50.93
-64.29
-75.51
-85.27
-95.08
-106.72
-121.56
-140.01
-161.52
-184.89
-208.88
-232.75
-256.50
-280.90
-307.47
-338.26
-375.53
-420.63
-472.66
-527.26
-576.69
-611.57
-623.92
-610.18
-572.42
-517.58
-454.55
-391.10
-331.81
-277.48
-225.88
-172.86
-113.63
-44.39
35.91
124.07
212.66
291.67
351.87
387.63
398.23
387.18
360.79
326.97
294.57
272.41
267.22
280.86
308.39
338.98
359.88
361.87
343.21
309.72
271.18
236.06
208.31
186.86
168.15
149.33
129.78
110.77
93.81
79.06
65.03
49.15
29.22
4.33
-24.50
-54.96
-84.65
-111.99
-137.19
-161.96
-188.84
-220.25
-258.01
-303.40
-357.23
-419.47
-488.20
-558.72
-623.76
-675.12
-706.46
-715.64
-705.48
-682.31
-653.21
-623.35
-594.94
-567.88
-541.34
-515.11
-489.75
-465.96
-443.63
-421.66
-398.47
-373.04
-345.48
-317.05
-289.68
-265.02
-243.73
-225.36
-208.58
-191.90
-174.37
-155.91
-137.28
-119.71
-104.25
-91.34
-80.69
-71.47
-62.69
-53.68
-44.28
-34.83
-25.94
-18.17
-11.77
-6.61
-2.27
1.69
5.60
9.51
13.23
16.39
18.67
19.89
20.09
19.52
18.55
17.60
17.06
17.23
18.32
20.46
23.62
27.69
32.50
37.75
43.15
48.32
52.89
56.49
58.81
59.68
59.13
57.45
55.15
52.87
51.21
50.58
51.09
52.60
54.84
57.60
60.90
65.00
70.34
77.31
86.05
96.33
107.60
119.23
130.77
142.21
153.99
166.88
181.62
198.59
217.66
238.32
259.83
281.54
303.17
324.76
346.87
370.63
397.78
430.13
468.59
511.95
555.99
594.46
620.83
630.89
624.30
604.59
577.44
548.63
522.41
501.15
485.77
476.14
471.11
468.27
464.04
454.61
437.30
411.68
379.76
345.03
310.91
279.85
252.80
229.53
209.27
190.96
173.59
156.27
138.60
120.68
103.16
87.04
72.97
60.99
50.29
39.58
27.65
14.07
-0.65
-15.18
-28.12
-38.69
-47.26
-55.26
-64.50
-76.31
-90.72
-106.45
-121.29
-133.42
-142.18
-148.44
-154.18
-161.55
-172.01
-186.08
-203.85
-224.80
-247.35
-267.76
-279.94
-277.12
-255.23
-216.02
-167.43
-120.42
-83.71
-59.71
-44.12
-29.86
-12.58
6.20
20.15
22.98
13.18
-4.30
-20.79
-28.83
-26.16
-16.11
-4.71
2.86
4.62
1.34
-5.25
-14.16
-25.20
-37.87
-50.29
-59.07
-60.82
-54.18
-41.20
-26.66
-16.34
-14.82
-23.91
-42.88
-69.40
-100.86
-134.84
-168.95
-200.34
-225.56
-240.92
-243.26
-230.87
-204.01
-165.11
-118.30
-68.61
-21.05
20.26
52.72
75.38
88.92
95.28
97.20
97.69
99.33
103.72
110.97
119.80
127.97
133.00
132.95
126.64
113.52
93.30
65.54
29.66
-15.14
-69.90
-135.80
-213.58
-302.32
-398.19
-493.96
-580.04
-647.10
-689.06
-705.11
-699.55
-679.70
-652.79
-623.72
-594.41
-564.85
-534.61
-503.81
-473.09
-442.86
-412.83
-382.08
-349.85
-316.27
-282.48
-250.17
-220.80
-194.75
-171.20
-148.59
-125.47
-101.35
-76.93
-53.74
-33.21
-15.74
-0.31
15.16
32.79
53.59
76.83
100.28
121.36
138.34
151.53
163.19
176.68
195.04
219.86
250.49
284.38
317.55
345.67
365.38
375.63
378.62
379.71
385.75
402.21
430.09
464.25
494.36
508.57
498.51
463.41
411.18
356.06
313.59
294.96
303.21
332.49
370.79
404.46
422.98
421.87
402.42
369.67
329.15
284.65
237.79
189.32
140.28
92.98
50.10
13.69
-16.02
-40.65
-62.39
-82.66
-100.98
-115.18
-122.24
-119.53
-105.43
-79.16
-40.49
10.03
70.14
134.99
197.11
248.07
281.18
293.93
288.91
272.33
251.13
230.14
210.79
191.97
172.13
151.11
130.39
112.24
97.94
87.00
77.22
66.06
51.76
34.10
14.34
-5.94
-25.59
-44.15
-61.01
-74.64
-82.33
-81.20
-69.93
-50.16
-26.47
-4.73
10.33
16.93
16.46
12.13
6.99
2.62
-0.95
-4.36
-7.86
-10.98
-12.93
-13.40
-13.03
-13.23
-15.55
-20.99
-29.57
-40.25
-51.46
-61.71
-70.25
-77.18
-83.23
-89.12
-94.91
-99.87
-102.68
-102.19
-97.97
-90.73
-82.12
-74.35
-69.48
-69.01
-73.58
-82.94
-96.12
-111.81
-128.80
-146.40
-164.78
-184.81
-207.77
-234.91
-266.95
-303.73
-343.87
-384.66
-422.38
-453.09
-473.90
-484.01
-485.18
-480.89
-474.83
-469.10
-463.19
-454.23
-438.20
-411.97
-374.97
-330.01
-282.70
-239.68
-206.17
-183.90
-170.47
-160.44
-147.74
-128.23
-101.02
-68.10
-32.45
3.78
39.94
76.19
112.17
146.33
176.49
201.12
220.31
235.38
247.62
256.97
261.82
260.09
251.07
236.59
220.63
207.22
198.06
191.22
181.81
164.47
136.10
97.84
54.88
15.03
-13.75
-25.79
-19.46
2.04
31.40
58.65
73.79
69.79
44.91
3.64
-44.46
-87.60
-115.52
-122.45
-108.59
-79.60
-44.73
-14.29
2.89
1.32
-19.75
-56.15
-99.73
-140.51
-169.53
-181.25
-174.73
-153.35
-123.44
-92.11
-65.73
-48.27
-40.73
-40.53
-41.94
-37.96
-22.48
7.10
48.46
94.94
138.06
170.42
187.88
189.86
178.39
156.77
128.80
98.83
71.91
53.35
47.44
55.84
76.65
104.60
132.75
154.78
166.86
168.36
161.46
149.70
136.46
124.08
113.40
104.45
97.01
91.17
87.46
86.20
86.85
87.73
86.46
80.63
69.12
52.70
34.07
16.97
4.77
-0.89
-0.93
1.44
1.65
-4.72
-20.51
-46.06
-78.73
-113.21
-142.28
-158.30
-155.34
-131.29
-89.44
-38.30
10.42
45.54
60.23
54.81
36.55
16.73
5.81
9.02
24.23
43.19
55.60
53.72
35.62
5.39
-29.68
-62.84
-90.52
-112.77
-131.41
-147.38
-159.50
-164.95
-161.33
-148.41
-129.05
-108.22
-91.13
-81.36
-79.85
-84.80
-92.67
-99.40
-101.29
-95.62
-81.12
-58.04
-28.32
4.54
35.94
60.92
75.41
77.37
67.58
49.54
28.64
10.46
-0.75
-3.18
2.32
12.79
24.29
33.29
37.67
37.27
33.49
28.52
24.15
21.13
19.24
17.72
16.15
14.76
14.50
16.30
20.38
25.81
30.35
31.13
25.59
12.65
-6.46
-27.89
-45.88
-54.38
-49.22
-30.07
-1.15
29.65
53.17
61.87
52.23
25.75
-11.44
-50.20
-80.76
-95.11
-89.19
-63.99
-25.35
17.71
55.47
80.26
88.34
80.06
59.15
30.92
0.72
-26.85
-48.46
-61.93
-66.11
-60.67
-46.25
-24.75
0.21
23.33
38.63
41.33
29.82
6.90
-21.05
-46.31
-62.58
-67.18
-61.43
-49.74
-37.56
-29.58
-28.46
-34.70
-47.21
-64.22
-83.98
-104.93
-125.29
-142.51
-153.41
-155.01
-146.22
-129.40
-110.45
-97.15
-96.08
-109.97
-136.75
-170.72
-204.97
-233.79
-253.88
-264.27
-265.66
-259.52
-247.74
-232.43
-215.67
-199.27
-184.37
-171.38
-160.08
-149.96
-140.45
-131.06
-121.16
-109.93
-96.38
-79.67
-59.51
-36.20
-10.77
15.39
40.94
65.00
87.48
109.20
131.65
156.65
185.50
218.22
253.05
286.38
313.52
329.99
332.80
321.47
298.16
266.79
231.70
196.43
162.95
131.78
102.56
75.00
49.51
27.47
11.00
2.39
3.15
12.81
28.47
44.99
56.34
57.62
47.07
26.98
3.07
-17.55
-29.03
-28.70
-17.73
-0.31
18.00
31.80
37.24
32.85
19.92
2.38
-13.84
-22.25
-17.65
2.51
37.49
83.79
136.34
189.69
238.68
278.53
305.15
316.03
311.50
295.15
273.13
251.82
235.46
224.61
216.88
209.00
198.98
187.14
175.58
166.62
161.46
160.07
162.06
167.78
178.53
195.46
218.04
243.07
265.09
278.21
278.40
265.11
241.45
212.75
184.39
159.87
140.07
123.77
109.03
94.53
80.13
66.53
54.51
44.12
34.68
25.02
14.10
1.69
-11.59
-24.48
-35.74
-44.67
-51.52
-57.32
-63.51
-71.40
-81.56
-93.65
-106.62
-119.08
-130.02
-139.18
-147.31
-155.95
-166.95
-181.83
-201.36
-225.22
-252.01
-279.48
-304.98
-325.83
-339.81
-345.57
-342.69
-331.81
-314.40
-292.51
-268.34
-243.62
-219.29
-195.53
-172.18
-149.24
-127.18
-106.78
-88.64
-72.89
-59.18
-47.11
-36.95
-29.76
-27.10
-30.18
-39.02
-51.98
-65.79
-76.32
-79.91
-74.85
-62.42
-46.73
-33.24
-26.11
-25.77
-28.27
-27.05
-16.58
4.23
30.89
55.31
69.96
71.79
63.41
51.41
42.22
38.51
38.21
36.15
27.74
12.32
-5.84
-19.29
-21.12
-8.33
16.77
47.67
76.18
95.01
99.45
87.97
62.20
26.96
-10.00
-39.28
-52.54
-46.17
-23.63
5.21
27.98
35.46
25.58
3.90
-19.96
-37.21
-43.73
-40.37
-31.06
-19.97
-9.44
0.16
9.76
20.32
31.79
42.86
50.98
53.41
48.53
37.30
23.45
12.06
7.16
9.88
18.14
28.65
39.14
49.97
63.11
79.64
97.83
113.24
121.12
119.69
111.72
103.53
101.70
109.36
124.24
139.52
147.02
140.90
120.24
89.08
54.79
25.14
5.86
-0.88
2.98
12.45
21.38
25.00
22.15
15.59
10.66
12.27
22.19
38.16
55.11
67.93
73.59
71.73
63.87
52.15
38.85
26.48
18.12
16.57
22.91
35.18
48.46
56.83
56.04
45.52
28.17
8.51
-9.74
-25.27
-38.88
-51.98
-65.02
-76.67
-84.62
-87.34
-85.74
-83.71
-86.67
-98.85
-120.81
-148.51
-174.72
-192.04
-196.18
-187.68
-171.49
-154.45
-141.97
-135.87
-134.02
-132.20
-126.79
-116.74
-103.81
-91.05
-80.77
-73.12
-66.31
-58.13
-47.55
-35.50
-24.08
-15.17
-9.28
-5.25
-1.16
4.49
11.79
19.44
25.25
27.24
24.61
17.99
9.39
1.35
-3.99
-5.77
-4.56
-2.01
-0.07
-0.28
-3.27
-8.77
-16.00
-23.84
-31.39
-37.93
-43.02
-46.57
-48.82
-50.16
-50.87
-51.14
-51.00
-51.01
-51.98
-54.54
-58.77
-63.95
-68.89
-72.58
-74.89
-76.18
-77.82
-80.62
-84.22
-87.61
-90.40
-93.83
-100.56
-113.23
-131.81
-155.46
-181.77
-208.25
-233.88
-259.44
-286.47
-316.13
-348.82
-383.07
-421.32
-467.13
-523.48
-590.98
-667.07
-747.00
-825.83
-900.65
-968.07
-1030.47
-1090.96
-1151.54
-1212.65
-1273.56
-1332.74
-1387.77
-1435.74
-1450.47
-1411.18
-1302.08
-1114.93
-851.63
-525.22
-158.55
219.92
563.47
852.65
1081.96
1255.31
1379.59
1460.09
1498.40
1493.02
1447.55
1364.44
1253.06
1122.94
983.77
843.76
708.71
582.35
467.63
368.15
287.54
226.69
185.71
162.42
152.40
150.15
150.83
151.33
150.63
148.96
148.99
152.06
158.59
166.65
173.56
177.13
176.43
171.87
164.51
156.59
149.87
144.67
140.09
134.92
128.19
119.53
109.26
97.99
86.82
76.95
68.92
62.54
57.45
53.26
49.73
46.79
44.42
42.62
41.59
41.32
41.55
41.97
42.32
42.37
41.95
40.92
39.22
36.90
34.01
30.59
26.70
22.47
18.06
13.63
9.34
5.37
1.84
-1.15
-3.54
-5.31
-6.45
-6.97
-6.94
-6.38
-5.35
-3.92
-2.15
-0.12
2.07
4.33
6.57
8.67
10.54
12.07
13.16
13.76
13.83
13.38
12.43
11.03
9.24
7.18
4.96
2.69
0.49
-1.54
-3.36
-4.93
-6.26
-7.35
-8.19
-8.77
-9.04
-8.99
-8.61
-7.91
-6.96
-5.82
-4.55
-3.16
-1.65
0.02
1.85
3.85
5.94
7.99
9.87
11.48
12.84
14.06
15.33
16.85
18.70
20.85
23.09
25.20
27.02
28.57
30.12
32.07
34.80
38.46
42.94
47.84
52.69
57.14
61.21
65.25
69.87
75.65
82.87
91.39
100.75
110.35
119.78
128.93
138.07
147.69
158.52
171.53
187.77
207.93
231.71
257.09
280.45
297.42
304.43
300.08
285.72
264.70
240.88
217.24
195.20
175.04
156.75
140.64
127.30
117.03
109.21
102.40
94.95
85.91
75.42
64.60
54.84
47.05
41.23
36.68
32.47
28.08
23.50
19.14
15.41
12.35
9.63
6.78
3.51
-0.05
-3.44
-6.11
-7.74
-8.41
-8.51
-8.49
-8.65
-8.99
-9.33
-9.42
-9.23
-8.95
-8.94
-9.49
-10.61
-11.97
-13.03
-13.37
-12.88
-11.91
-11.04
-10.73
-11.05
-11.62
-11.83
-11.23
-9.82
-8.09
-6.73
-6.27
-6.79
-7.91
-8.97
-9.44
-9.16
-8.41
-7.73
-7.59
-8.13
-9.07
-9.83
-9.87
-8.98
-7.39
-5.69
-4.50
-4.19
-4.66
-5.45
-6.02
-6.04
-5.64
-5.24
-5.37
-6.23
-7.61
-8.95
-9.67
-9.53
-8.76
-7.92
-7.55
-7.82
-8.43
-8.81
-8.51
-7.46
-6.05
-4.87
-4.35
-4.53
-5.05
-5.37
-5.13
-4.32
-3.34
-2.72
-2.82
-3.62
-4.71
-5.54
-5.69
-5.12
-4.20
-3.43
-3.22
-3.59
-4.25
-4.74
-4.75
-4.26
-3.59
-3.18
-3.33
-4.04
-4.98
-5.71
-5.92
-5.56
-4.89
-4.35
-4.29
-4.75
-5.44
-5.91
-5.77
-4.96
-3.76
-2.66
-2.08
-2.15
-2.64
-3.07
-3.07
-2.53
-1.74
-1.20
-1.33
-2.19
-3.43
-4.50
-4.93
-4.64
-3.95
-3.39
-3.42
-4.11
-5.13
-5.93
-6.05
-5.34
-4.04
-2.65
-1.67
-1.36
-1.64
-2.14
-2.43
-2.26
-1.70
-1.12
-0.99
-1.55
-2.67
-3.88
-4.63
-4.64
-4.00
-3.20
-2.71
-2.82
-3.36
-3.93
-4.08
-3.65
-2.81
-1.97
-1.51
-1.56
-1.96
-2.37
-2.50
-2.27
-1.86
-1.63
-1.88
-2.66
-3.74
-4.69
-5.11
-4.84
-4.06
-3.20
-2.74
-2.93
-3.63
-4.42
-4.78
-4.40
-3.34
-2.06
-1.09
-0.80
-1.19
-1.89
-2.38
-2.29
-1.61
-0.72
-0.13
-0.18
-0.84
-1.70
-2.23
-2.10
-1.40
-0.57
-0.16
-0.46
-1.27
-2.05
-2.24
-1.60
-0.40
0.72
1.17
0.72
-0.32
-1.31
-1.66
-1.16
-0.02
1.21
2.02
2.19
1.82
1.25
0.77
0.47
0.23
-0.14
-0.79
-1.65
-2.46
-2.89
-2.70
-1.90
-0.78
0.17
0.51
-0.03
-1.35
-3.08
-4.70
-5.80
-6.26
-6.25
-6.07
-5.93
-5.83
-5.52
-4.72
-3.33
-1.61
-0.06
0.77
0.57
-0.50
-1.94
-3.09
-3.58
-3.44
-3.06
-2.84
-2.89
-2.89
-2.28
-0.69
1.76
4.36
6.12
6.30
4.83
2.33
-0.23
-2.07
-2.91
-3.05
-3.00
-3.09
-3.25
-3.07
-2.19
-0.60
1.20
2.47
2.57
1.34
-0.75
-2.81
-3.96
-3.77
-2.46
-0.78
0.38
0.45
-0.55
-2.05
-3.26
-3.61
-2.97
-1.70
-0.42
0.42
0.70
0.69
0.80
1.38
2.41
3.53
4.17
3.84
2.41
0.26
-1.90
-3.27
-3.40
-2.41
-0.89
0.43
1.10
1.17
1.01
1.02
1.26
1.41
1.03
-0.05
-1.55
-2.82
-3.27
-2.74
-1.66
-0.80
-0.83
-1.93
-3.69
-5.40
-6.40
-6.43
-5.65
-4.54
-3.60
-3.19
-3.38
-3.95
-4.47
-4.43
-3.46
-1.54
0.96
3.39
5.13
5.89
5.83
5.40
4.99
4.64
3.98
2.56
0.23
-2.64
-5.21
-6.65
-6.64
-5.56
-4.34
-3.85
-4.37
-5.35
-5.72
-4.52
-1.62
2.15
5.33
6.62
5.59
2.84
-0.31
-2.65
-3.66
-3.69
-3.51
-3.72
-4.28
-4.51
-3.63
-1.30
2.03
5.28
7.29
7.41
5.83
3.35
0.97
-0.66
-1.44
-1.79
-2.21
-2.95
-3.86
-4.49
-4.39
-3.31
-1.42
0.83
2.87
4.24
4.74
4.47
3.77
3.01
2.46
2.13
1.81
1.20
0.16
-1.19
-2.47
-3.28
-3.39
-2.92
-2.23
-1.72
-1.54
-1.55
-1.35
-0.61
0.70
2.24
3.49
3.99
3.65
2.75
1.75
1.08
0.83
0.74
0.42
-0.39
-1.63
-2.89
-3.67
-3.62
-2.80
-1.63
-0.72
-0.52
-1.05
-1.93
-2.54
-2.41
-1.46
-0.05
1.22
1.84
1.65
0.92
0.12
-0.38
-0.48
-0.37
-0.41
-0.83
-1.54
-2.23
-2.46
-1.99
-0.93
0.29
1.08
1.07
0.25
-1.00
-2.07
-2.47
-2.10
-1.24
-0.45
-0.19
-0.55
-1.23
-1.67
-1.48
-0.60
0.58
1.52
1.82
1.44
0.75
0.29
0.44
1.21
2.25
3.00
3.06
2.35
1.20
0.16
-0.27
0.04
0.84
1.60
1.81
1.30
0.28
-0.75
-1.36
-1.37
-1.01
-0.71
-0.81
-1.36
-2.07
-2.52
-2.37
-1.65
-0.69
0.03
0.16
-0.35
-1.20
-1.90
-2.07
-1.64
-0.83
-0.11
0.12
-0.24
-0.94
-1.53
-1.62
-1.11
-0.28
0.40
0.54
0.06
-0.77
-1.46
-1.64
-1.23
-0.48
0.18
0.44
0.21
-0.24
-0.55
-0.42
0.19
0.97
1.48
1.39
0.65
-0.42
-1.33
-1.67
-1.41
-0.91
-0.66
-1.00
-1.87
-2.78
-3.12
-2.56
-1.22
0.34
1.44
1.67
1.08
0.16
-0.50
-0.48
0.22
1.22
1.96
2.02
1.33
0.24
-0.70
-0.97
-0.39
0.77
1.96
2.64
2.58
1.95
1.24
0.90
1.13
1.66
2.03
1.81
0.93
-0.31
-1.35
-1.75
-1.37
-0.52
0.26
0.45
-0.08
-1.09
-2.01
-2.36
-2.01
-1.23
-0.59
-0.58
-1.28
-2.28
-2.94
-2.77
-1.73
-0.29
0.86
1.22
0.73
-0.21
-0.99
-1.23
-0.90
-0.35
-0.05
-0.28
-0.99
-1.79
-2.20
-1.89
-0.88
0.48
1.65
2.16
1.88
1.03
0.09
-0.46
-0.43
0.04
0.56
0.83
0.75
0.55
0.55
0.94
1.59
2.13
2.15
1.45
0.17
-1.24
-2.26
-2.55
-2.11
-1.24
-0.37
0.12
0.15
-0.07
-0.15
0.20
1.04
2.07
2.78
2.77
1.97
0.74
-0.37
-0.90
-0.78
-0.35
-0.15
-0.59
-1.67
-2.96
-3.85
-3.89
-3.05
-1.71
-0.46
0.24
0.27
-0.11
-0.44
-0.39
0.07
0.64
0.87
0.47
-0.55
-1.78
-2.65
-2.74
-1.99
-0.75
0.39
0.95
0.79
0.20
-0.34
-0.40
0.08
0.79
1.23
1.03
0.19
-0.90
-1.64
-1.64
-0.92
0.10
0.82
0.88
0.28
-0.57
-1.15
-1.17
-0.74
-0.30
-0.33
-1.07
-2.30
-3.51
-4.13
-3.85
-2.76
-1.31
-0.07
0.56
0.55
0.20
-0.03
0.19
0.88
1.68
2.09
1.74
0.64
-0.81
-1.98
-2.35
-1.80
-0.69
0.35
0.79
0.46
-0.35
-1.06
-1.20
-0.65
0.28
1.04
1.17
0.61
-0.27
-0.88
-0.81
-0.01
1.11
1.99
2.20
1.72
0.92
0.33
0.33
0.89
1.68
2.21
2.14
1.47
0.54
-0.22
-0.45
-0.14
0.45
0.92
0.97
0.56
-0.04
-0.45
-0.39
0.13
0.81
1.21
1.03
0.26
-0.72
-1.42
-1.49
-0.88
0.06
0.78
0.88
0.28
-0.68
-1.47
-1.65
-1.13
-0.24
0.48
0.57
-0.09
-1.19
-2.19
-2.62
-2.30
-1.50
-0.75
-0.53
-0.98
-1.83
-2.54
-2.63
-1.98
-0.87
0.10
0.44
0.00
-0.92
-1.73
-1.94
-1.37
-0.36
0.53
0.79
0.28
-0.67
-1.50
-1.74
-1.33
-0.59
-0.05
-0.07
-0.63
-1.31
-1.58
-1.12
-0.08
1.11
1.87
1.90
1.28
0.47
-0.01
0.11
0.75
1.50
1.86
1.54
0.65
-0.36
-0.97
-0.86
-0.09
0.87
1.46
1.34
0.56
-0.41
-1.00
-0.87
-0.11
0.81
1.30
1.04
0.17
-0.75
-1.11
-0.57
0.67
1.97
2.61
2.18
0.84
-0.80
-1.97
-2.19
-1.48
-0.36
0.49
0.57
-0.15
-1.24
-2.09
-2.26
-1.68
-0.74
0.02
0.18
-0.27
-0.98
-1.45
-1.37
-0.82
-0.18
0.07
-0.30
-1.12
-1.93
-2.23
-1.82
-0.89
0.07
0.52
0.23
-0.59
-1.38
-1.57
-0.91
0.38
1.69
2.39
2.17
1.21
0.09
-0.58
-0.48
0.24
1.09
1.53
1.29
0.53
-0.32
-0.75
-0.55
0.15
0.88
1.14
0.68
-0.33
-1.39
-1.94
-1.67
-0.75
0.29
0.87
0.68
-0.10
-0.92
-1.20
-0.68
0.39
1.43
1.86
1.38
0.22
-1.06
-1.85
-1.88
-1.30
-0.63
-0.37
-0.75
-1.54
-2.22
-2.28
-1.60
-0.49
0.47
0.77
0.29
-0.61
-1.28
-1.19
-0.22
1.22
2.49
3.01
2.60
1.56
0.47
-0.11
0.01
0.62
1.25
1.42
1.00
0.21
-0.47
-0.59
-0.07
0.79
1.47
1.48
0.76
-0.38
-1.32
-1.58
-1.03
-0.01
0.90
1.19
0.71
-0.26
-1.17
-1.57
-1.32
-0.66
-0.09
-0.04
-0.62
-1.59
-2.43
-2.75
-2.45
-1.83
-1.41
-1.63
-2.53
-3.71
-4.51
-4.41
-3.29
-1.56
0.07
0.94
0.84
0.07
-0.77
-1.09
-0.71
0.07
0.66
0.56
-0.35
-1.66
-2.66
-2.78
-1.89
-0.40
0.99
1.65
1.43
0.71
0.16
0.35
1.38
2.81
3.97
4.28
3.63
2.45
1.38
0.91
1.10
1.56
1.70
1.13
-0.07
-1.36
-2.09
-1.82
-0.68
0.72
1.58
1.34
0.02
-1.82
-3.38
-4.09
-3.86
-3.18
-2.75
-3.09
-4.25
-5.73
-6.83
-6.99
-6.13
-4.70
-3.40
-2.83
-3.10
-3.86
-4.56
-4.75
-4.31
-3.44
-2.51
-1.88
-1.72
-1.89
-2.18
-2.47
-2.77
-3.09
-3.43
-3.71
-4.02
-4.49
-5.14
-6.07
-7.43
-9.22
-11.16
-12.76
-13.42
-13.19
-12.44
-11.31
-10.36
-10.16
-10.87
-11.86
-11.75
-9.00
-3.68
3.19
10.71
17.44
22.25
25.19
27.82
33.00
44.44
64.50
95.37
139.78
197.99
267.33
343.04
420.28
496.42
572.24
649.25
726.72
804.76
880.15
946.24
994.76
1018.24
1011.93
983.94
940.43
877.90
796.57
698.37
586.97
467.63
346.47
229.32
126.12
38.21
-36.69
-100.65
-156.20
-205.37
-249.09
-287.23
-319.06
-343.91
-363.70
-380.21
-393.96
-404.82
-412.32
-415.74
-414.36
-407.70
-395.79
-380.66
-364.20
-347.20
-330.11
-313.19
-296.44
-279.52
-262.10
-243.86
-225.41
-207.12
-188.75
-170.02
-150.72
-130.75
-110.14
-89.09
-68.02
-47.91
-29.75
-14.35
-2.48
5.14
7.89
5.39
-2.42
-15.24
-32.39
-52.77
-74.97
-97.35
-118.26
-136.24
-150.09
-159.05
-162.81
-161.57
-155.94
-146.88
-135.52
-123.06
-110.58
-98.97
-88.78
-80.22
-73.23
-67.51
-62.63
-58.10
-53.45
-48.31
-42.49
-36.04
-29.22
-22.47
-16.36
-11.45
-8.19
-6.87
-7.53
-10.04
-14.09
-19.31
-25.27
-31.59
-37.85
-43.69
-48.73
-52.61
-55.01
-55.73
-54.75
-52.26
-48.64
-44.39
-39.96
-35.66
-31.58
-27.69
-23.94
-20.49
-17.73
-16.32
-16.88
-19.75
-24.73
-31.15
-38.04
-44.42
-49.75
-54.25
-58.63
-63.73
-70.00
-77.24
-84.65
-91.18
-96.09
-99.54
-102.65
-107.06
-114.29
-125.14
-139.64
-157.62
-178.91
-202.89
-228.24
-252.54
-272.60
-286.07
-293.04
-296.58
-301.52
-311.06
-323.34
-332.13
-329.59
-310.05
-273.15
-224.18
-171.36
-122.81
-83.09
-51.71
-26.95
-8.60
2.52
6.08
4.07
1.21
2.32
10.88
29.35
55.87
84.60
109.61
127.03
135.76
136.65
129.50
113.62
90.82
62.03
26.42
-16.50
-66.65
-123.42
-175.30
-213.23
-249.34
-290.59
-332.93
-373.95
-411.24
-442.52
-465.95
-480.36
-486.91
-487.35
-480.44
-465.46
-443.59
-416.09
-384.31
-349.64
-313.47
-278.35
-246.53
-217.28
-189.66
-163.78
-139.50
-116.61
-94.93
-74.38
-55.77
-39.89
-25.92
-13.05
-1.29
9.37
19.02
27.73
35.62
42.42
47.87
52.49
56.68
60.40
63.55
66.13
68.21
70.04
71.80
73.65
75.90
78.62
81.53
84.26
86.54
88.37
90.06
92.11
94.95
98.73
103.12
107.45
110.93
113.11
114.06
114.49
115.49
117.98
122.32
128.05
134.09
139.26
142.93
145.35
147.64
151.28
157.39
166.30
177.66
190.71
204.62
218.41
230.61
239.44
243.43
242.53
238.73
235.51
236.18
241.79
250.25
257.06
257.64
249.91
235.25
217.73
201.76
189.90
182.04
176.10
169.81
162.28
154.56
149.15
148.87
155.56
169.19
187.75
207.59
224.53
235.13
237.67
232.55
221.86
208.22
193.75
179.43
165.29
150.90
135.99
120.54
104.71
88.69
72.76
57.64
44.80
36.33
34.22
39.17
49.60
61.38
68.82
66.50
51.40
24.17
-10.87
-47.23
-78.41
-99.97
-110.43
-111.05
-104.55
-93.94
-81.69
-69.74
-59.65
-52.55
-48.78
-47.22
-45.37
-40.21
-29.64
-13.69
5.25
23.48
37.59
45.88
48.78
48.16
46.34
45.20
45.91
48.82
53.29
57.38
57.90
51.14
34.48
8.00
-24.77
-57.72
-84.26
-99.73
-102.82
-95.48
-81.58
-65.18
-49.25
-35.39
-24.02
-14.83
-7.07
0.39
9.09
20.85
37.30
59.10
85.20
112.63
137.01
153.87
160.27
155.97
143.51
127.14
111.13
98.29
89.37
83.46
79.10
75.21
71.41
67.93
65.03
62.77
61.02
59.79
59.42
60.54
63.86
69.65
77.47
86.17
94.17
99.98
102.74
102.39
99.57
95.16
89.76
83.32
75.20
64.51
50.70
33.94
15.20
-4.09
-22.56
-39.44
-54.81
-69.50
-84.79
-102.08
-122.58
-146.92
-174.63
-203.66
-230.36
-250.27
-259.58
-256.74
-243.24
-223.10
-201.07
-180.66
-162.94
-147.01
-131.47
-116.09
-102.44
-93.18
-90.40
-94.20
-102.31
-110.87
-116.14
-115.75
-109.35
-98.20
-84.27
-69.51
-55.58
-43.82
-35.13
-29.46
-25.41
-20.30
-11.22
3.55
23.28
44.86
64.10
77.88
85.51
88.81
90.69
93.15
96.10
97.45
94.34
84.42
66.65
41.33
9.92
-25.09
-60.29
-91.69
-115.48
-129.21
-132.56
-127.44
-117.05
-104.61
-92.23
-80.82
-70.46
-61.24
-53.71
-48.79
-47.06
-48.29
-51.32
-54.50
-56.48
-56.54
-54.47
-50.08
-42.76
-31.67
-16.51
1.74
20.80
37.67
49.73
55.44
54.43
47.07
34.29
17.97
1.53
-9.95
-10.88
2.80
31.50
70.98
113.33
149.47
172.06
177.60
166.82
143.73
113.82
82.55
54.14
31.48
16.04
8.08
6.46
8.31
9.14
3.98
-10.63
-34.68
-63.83
-90.75
-108.09
-111.59
-101.69
-82.84
-60.98
-40.94
-25.10
-13.71
-6.27
-2.62
-2.87
-6.70
-12.60
-17.97
-20.19
-17.82
-11.04
-1.19
10.24
22.28
34.17
44.60
51.01
50.17
39.86
20.63
-3.56
-26.64
-43.13
-50.75
-51.36
-49.66
-50.46
-55.99
-65.10
-74.27
-80.02
-80.68
-76.98
-71.07
-65.09
-60.19
-56.32
-52.91
-49.52
-46.19
-43.27
-41.18
-40.04
-39.68
-39.72
-39.64
-39.03
-37.63
-35.49
-33.08
-31.11
-30.26
-30.81
-32.42
-34.34
-35.87
-36.68
-36.92
-36.79
-36.00
-33.47
-27.52
-16.69
-0.58
19.61
41.24
61.13
76.72
86.99
92.66
95.60
97.76
100.20
102.69
103.94
102.32
96.62
86.46
72.33
55.53
37.93
21.74
9.19
2.02
1.02
5.70
14.51
25.37
36.37
46.13
53.75
58.50
59.64
56.60
49.33
38.65
26.15
13.67
2.75
-5.79
-11.72
-15.05
-15.71
-13.57
-8.67
-1.70
5.89
12.23
15.67
15.63
13.04
10.26
10.22
15.38
26.66
42.86
60.85
76.25
84.71
83.20
70.87
49.38
22.34
-5.67
-30.32
-48.41
-58.48
-60.80
-57.19
-50.51
-43.97
-40.13
-40.07
-42.84
-45.92
-46.44
-42.81
-35.85
-28.61
-24.99
-27.85
-37.52
-51.89
-67.47
-81.19
-91.36
-97.73
-100.33
-98.61
-91.49
-78.47
-61.08
-43.15
-29.57
-24.02
-26.95
-35.26
-43.80
-47.94
-45.54
-37.43
-26.24
-14.72
-4.46
4.27
11.74
18.10
23.11
26.53
28.53
29.92
31.84
35.31
40.92
48.62
57.72
67.14
75.63
82.13
86.02
87.41
87.11
86.45
86.75
88.77
92.16
95.33
95.88
91.61
81.65
67.09
50.73
35.95
25.20
18.98
15.80
13.21
9.26
3.74
-1.74
-4.53
-2.43
5.13
16.65
29.09
38.97
43.62
41.92
34.57
23.62
11.62
0.88
-7.23
-12.48
-15.80
-18.75
-22.94
-29.27
-37.33
-45.41
-51.05
-52.28
-48.79
-42.38
-36.33
-33.81
-36.30
-42.76
-50.27
-55.57
-56.72
-53.92
-49.01
-44.20
-40.84
-38.98
-37.88
-36.79
-35.56
-34.70
-34.75
-35.78
-37.14
-37.68
-36.35
-32.72
-27.33
-21.43
-16.45
-13.31
-12.04
-11.86
-11.63
-10.69
-9.41
-9.20
-11.88
-18.73
-29.60
-42.73
-55.37
-64.82
-69.37
-68.78
-64.09
-56.98
-49.09
-41.67
-35.44
-30.62
-27.09
-24.39
-21.90
-18.97
-15.25
-10.89
-6.55
-2.99
-0.71
0.36
0.79
1.36
2.64
4.73
7.32
9.89
11.98
13.32
13.84
13.69
13.16
12.70
12.88
14.24
17.11
21.40
26.45
31.31
35.03
37.08
37.53
36.91
35.73
34.10
31.59
27.46
21.31
13.56
5.66
-0.29
-2.42
0.08
6.40
14.36
21.29
25.21
25.71
24.04
22.34
22.50
24.96
28.50
30.78
29.60
24.09
15.18
5.22
-3.10
-7.89
-8.67
-6.32
-2.35
1.87
5.68
9.15
12.61
16.12
19.16
20.74
19.95
16.50
11.02
4.86
-0.50
-4.02
-5.48
-5.34
-4.32
-2.91
-1.27
0.69
2.88
4.91
6.23
6.37
5.40
3.91
2.81
2.86
4.30
6.72
9.23
10.77
10.50
8.14
4.12
-0.44
-4.18
-5.93
-5.22
-2.43
1.37
4.99
7.71
9.43
10.49
11.14
11.11
9.71
6.28
0.87
-5.47
-11.01
-14.19
-14.40
-12.37
-9.77
-8.33
-8.97
-11.41
-14.35
-16.32
-16.49
-15.04
-13.06
-11.83
-12.19
-14.07
-16.56
-18.48
-18.89
-17.62
-15.21
-12.60
-10.61
-9.53
-9.06
-8.61
-7.69
-6.20
-4.50
-3.07
-2.25
-1.96
-1.79
-1.25
-0.10
1.45
2.83
3.50
3.20
2.26
1.36
1.23
2.24
4.17
6.35
7.94
8.34
7.49
5.77
3.86
2.35
1.49
1.16
1.04
0.91
0.76
0.84
1.42
2.59
4.09
5.45
6.15
5.94
4.94
3.54
2.21
1.27
0.81
0.77
1.12
1.88
3.09
4.72
6.52
8.03
8.78
8.44
7.03
5.00
3.07
1.89
1.80
2.68
4.00
5.11
5.62
5.52
5.23
5.23
5.81
6.77
7.56
7.57
6.50
4.64
2.71
1.54
1.57
2.59
3.86
4.48
3.83
1.97
-0.49
-2.72
-4.08
-4.43
-4.11
-3.69
-3.60
-3.95
-4.50
-4.85
-4.72
-4.18
-3.63
-3.60
-4.44
-6.04
-7.81
-8.88
-8.46
-6.27
-2.75
1.10
4.12
5.44
4.86
2.84
0.29
-1.90
-3.19
-3.54
-3.22
-2.64
-2.01
-1.35
-0.59
0.23
0.77
0.60
-0.66
-2.94
-5.59
-7.62
-8.04
-6.43
-3.10
0.90
4.30
6.13
6.15
4.89
3.34
2.42
2.50
3.26
3.94
3.82
2.62
0.75
-0.98
-1.73
-1.16
0.43
2.21
3.34
3.34
2.38
1.13
0.41
0.72
1.93
3.39
4.21
3.84
2.37
0.47
-0.96
-1.32
-0.67
0.34
0.90
0.54
-0.55
-1.71
-2.24
-1.85
-0.86
0.03
0.30
-0.17
-0.96
-1.54
-1.65
-1.47
-1.42
-1.75
-2.30
-2.49
-1.63
0.52
3.55
6.48
8.21
8.18
6.59
4.33
2.42
1.49
1.46
1.73
1.61
0.80
-0.36
-1.15
-0.86
0.63
2.83
4.76
5.49
4.59
2.31
-0.53
-3.01
-4.43
-4.69
-4.23
-3.74
-3.80
-4.49
-5.39
-5.78
-5.10
-3.29
-0.93
1.08
1.98
1.62
0.53
-0.36
-0.35
0.55
1.64
1.83
0.38
-2.62
-6.27
-9.26
-10.67
-10.42
-9.34
-8.58
-9.02
-10.81
-13.36
-15.87
-17.69
-18.67
-18.97
-18.97
-19.05
-19.64
-21.23
-24.15
-28.29
-32.75
-36.05
-36.63
-33.78
-28.00
-20.94
-14.46
-9.67
-6.45
-3.74
-0.37
4.20
9.61
15.09
20.02
24.23
27.83
30.79
32.74
33.33
32.77
32.33
34.16
40.31
51.62
66.83
82.59
94.50
98.69
93.19
78.59
57.78
34.67
12.94
-4.93
-17.89
-25.96
-29.56
-29.23
-25.68
-20.06
-14.11
-9.81
-8.55
-10.47
-14.23
-17.61
-18.70
-16.85
-13.02
-9.22
-7.51
-8.90
-12.99
-18.26
-22.91
-25.63
-26.00
-24.50
-22.01
-19.47
-17.60
-16.85
-17.50
-19.55
-22.79
-26.70
-30.62
-33.85
-35.84
-36.29
-35.20
-32.79
-29.41
-25.48
-21.36
-17.26
-13.29
-9.38
-5.50
-1.76
1.56
4.10
5.62
6.30
6.63
7.30
8.81
11.05
13.42
15.00
15.09
13.61
11.11
8.56
6.83
6.39
7.10
8.53
10.18
11.70
12.99
14.01
14.64
14.68
14.00
12.72
11.27
10.34
10.52
12.05
14.66
17.56
19.84
20.82
20.36
18.93
17.32
16.29
16.18
16.80
17.54
17.70
16.78
14.78
12.14
9.56
7.72
7.04
7.38
8.24
8.84
8.53
7.16
5.12
3.18
2.13
2.29
3.33
4.48
4.97
4.44
3.14
1.69
0.70
0.40
0.56
0.68
0.30
-0.66
-2.04
-3.47
-4.71
-5.68
-6.46
-7.16
-7.74
-8.14
-8.26
-8.14
-7.97
-8.01
-8.47
-9.42
-10.71
-12.04
-13.06
-13.45
-13.09
-12.03
-10.53
-9.01
-7.86
-7.29
-7.24
-7.34
-7.11
-6.24
-4.69
-2.86
-1.30
-0.47
-0.53
-1.26
-2.23
-2.95
-3.08
-2.45
-1.06
0.96
3.29
5.47
6.87
6.92
5.44
2.81
-0.05
-2.05
-2.44
-1.15
1.14
3.40
4.77
4.94
4.25
3.37
2.90
3.06
3.66
4.34
4.84
5.14
5.35
5.53
5.57
5.28
4.58
3.68
2.97
2.91
3.62
4.88
6.14
6.91
6.99
6.53
5.93
5.50
5.30
5.19
5.00
4.73
4.62
4.88
5.57
6.41
6.93
6.79
5.98
4.90
4.09
3.90
4.25
4.74
4.83
4.27
3.23
2.15
1.50
1.47
1.89
2.37
2.57
2.34
1.74
0.89
-0.18
-1.52
-3.18
-5.04
-6.79
-7.94
-8.15
-7.35
-5.86
-4.28
-3.29
-3.31
-4.33
-5.95
-7.53
-8.51
-8.69
-8.26
-7.67
-7.30
-7.21
-7.06
-6.41
-5.04
-3.19
-1.50
-0.66
-0.95
-2.03
-2.99
-2.90
-1.31
1.48
4.48
6.56
7.05
6.05
4.55
3.86
5.15
8.79
14.20
19.97
24.29
25.58
23.07
17.14
9.16
1.12
-5.02
-7.85
-6.84
-2.28
4.80
12.85
20.09
24.80
25.92
23.48
18.79
13.93
10.73
9.65
9.41
7.52
1.71
-8.71
-22.29
-36.04
-46.87
-52.96
-54.40
-52.75
-49.88
-47.05
-44.48
-41.72
-38.29
-34.20
-29.78
-25.59
-21.90
-18.41
-14.28
-8.52
-0.55
9.21
19.35
27.98
33.59
35.87
35.89
35.59
36.70
40.06
45.37
51.91
59.28
67.79
78.09
90.43
104.26
118.34
131.45
142.95
152.97
162.08
171.03
180.74
192.41
207.21
225.86
247.26
267.59
280.63
279.54
259.77
221.40
169.52
112.34
57.85
10.63
-29.37
-65.75
-102.96
-143.74
-187.89
-232.86
-275.48
-313.62
-346.80
-375.56
-400.42
-420.90
-435.45
-442.06
-439.21
-426.49
-404.89
-376.45
-343.52
-308.08
-271.29
-233.42
-194.19
-153.30
-110.70
-66.57
-20.98
26.44
76.03
127.29
178.04
224.26
261.07
284.52
293.32
289.39
276.96
260.74
244.23
228.96
214.91
201.43
188.14
175.06
162.26
149.53
136.30
122.10
107.07
92.21
79.23
70.09
66.43
69.13
78.23
93.01
112.35
135.12
160.42
187.62
216.04
244.56
271.39
294.06
309.97
317.02
314.30
302.38
283.13
259.07
232.56
205.09
177.11
148.16
117.52
84.80
50.30
14.90
-20.29
-54.52
-87.70
-120.55
-154.48
-191.58
-234.33
-284.79
-343.37
-407.13
-469.30
-520.35
-550.74
-554.21
-530.14
-483.51
-422.66
-356.08
-289.98
-227.83
-171.21
-120.98
-77.66
-41.10
-10.10
17.04
41.23
61.52
75.12
78.93
71.71
55.20
33.81
12.62
-4.78
-17.34
-26.07
-32.59
-37.84
-41.60
-43.24
-42.52
-39.87
-36.22
-32.34
-28.50
-24.61
-20.76
-17.57
-16.27
-17.88
-22.28
-27.97
-32.23
-31.99
-25.13
-11.69
5.81
22.98
35.41
40.72
39.79
36.43
35.40
39.75
49.23
60.46
68.97
71.94
69.63
64.99
61.69
61.88
65.15
69.17
71.50
71.08
68.67
66.02
64.48
64.20
63.90
61.68
56.25
47.61
37.18
27.17
19.58
15.18
13.28
12.05
9.50
4.58
-2.27
-9.41
-14.85
-17.35
-17.10
-15.46
-14.16
-14.17
-15.07
-15.31
-13.24
-8.09
-0.43
8.13
15.77
21.33
24.59
25.94
25.82
24.19
20.58
14.54
6.25
-3.12
-11.77
-18.31
-22.73
-26.79
-33.08
-43.14
-55.93
-67.66
-73.49
-70.37
-58.97
-43.73
-30.57
-23.93
-24.79
-30.95
-39.01
-46.69
-53.65
-60.90
-69.06
-77.34
-83.83
-86.77
-85.86
-82.53
-79.17
-77.85
-79.32
-82.81
-86.46
-88.22
-86.76
-82.06
-75.20
-67.81
-61.28
-56.36
-53.10
-51.35
-51.04
-52.18
-54.67
-58.09
-61.63
-64.32
-65.32
-64.06
-60.22
-53.87
-45.38
-35.65
-26.14
-18.36
-13.29
-10.78
-9.52
-7.78
-4.34
0.81
6.64
11.88
15.87
19.06
22.67
27.97
35.42
44.56
54.26
63.32
71.15
77.92
84.27
90.85
97.76
104.37
109.55
112.06
111.01
106.33
98.92
90.39
82.63
77.18
74.62
74.51
75.59
76.28
75.39
72.38
67.51
61.71
56.20
52.04
49.86
49.52
50.20
50.63
49.65
46.62
41.91
36.81
33.12
32.26
34.47
38.38
41.47
41.13
35.95
26.47
14.88
3.78
-5.03
-11.33
-16.16
-20.81
-25.81
-30.65
-34.29
-35.98
-35.93
-35.25
-35.29
-36.96
-40.28
-44.50
-48.49
-51.30
-52.41
-51.90
-50.34
-48.51
-47.14
-46.73
-47.42
-49.14
-51.70
-54.76
-57.74
-59.89
-60.48
-59.20
-56.39
-52.97
-49.86
-47.44
-45.36
-42.95
-39.83
-36.34
-33.34
-31.66
-31.29
-31.35
-30.56
-28.09
-24.21
-20.07
-16.96
-15.49
-15.26
-15.18
-14.30
-12.31
-9.76
-7.57
-6.47
-6.60
-7.56
-8.57
-8.85
-7.95
-5.76
-2.44
1.76
6.59
11.92
17.68
23.81
30.15
36.44
42.28
47.34
51.44
54.55
56.76
58.11
58.44
57.45
54.96
51.13
46.67
42.65
40.17
39.81
41.41
43.99
46.25
47.08
46.08
43.80
41.33
39.80
39.79
41.19
43.37
45.86
48.60
51.96
56.32
61.58
67.00
71.41
73.78
73.62
71.25
67.38
62.68
57.19
50.17
40.43
26.99
9.79
-9.97
-30.05
-48.00
-62.15
-72.18
-79.06
-84.22
-88.64
-92.44
-94.96
-95.47
-93.72
-90.03
-84.97
-79.03
-72.34
-65.00
-57.29
-49.85
-43.41
-38.50
-35.18
-33.02
-31.51
-30.29
-29.24
-28.43
-27.93
-27.71
-27.72
-27.95
-28.44
-29.28
-30.42
-31.66
-32.76
-33.49
-33.77
-33.60
-33.02
-32.14
-30.99
-29.65
-28.12
-26.46
-24.67
-22.78
-20.88
-18.94
-16.92
-14.61
-11.80
-8.38
-4.47
-0.45
3.31
6.68
9.99
13.87
18.90
25.19
32.28
39.23
45.10
49.28
51.64
52.42
52.02
50.76
48.80
46.29
43.36
40.32
37.53
35.33
33.92
33.29
33.20
33.31
33.30
33.07
32.78
32.68
32.95
33.54
34.17
34.56
34.65
34.65
35.03
36.19
38.28
40.98
43.66
45.60
46.40
46.19
45.55
45.29
45.96
47.49
49.15
49.82
48.57
45.11
39.97
34.20
28.78
24.16
20.15
16.13
11.54
6.16
0.22
-5.90
-11.87
-17.63
-23.26
-28.77
-34.00
-38.61
-42.20
-44.62
-45.97
-46.60
-46.90
-47.22
-47.85
-48.87
-50.27
-51.93
-53.70
-55.63
-57.96
-60.98
-64.94
-69.74
-75.03
-80.39
-85.66
-91.04
-96.96
-103.55
-110.37
-116.34
-120.27
-121.48
-120.32
-118.12
-116.57
-116.97
-119.49
-123.12
-125.99
-126.11
-122.27
-114.41
-103.58
-91.51
-79.80
-69.33
-59.87
-50.20
-38.64
-23.67
-4.50
18.60
44.19
69.89
92.81
110.31
120.66
123.53
119.98
112.02
101.93
91.63
82.37
74.95
69.80
67.19
67.13
69.17
72.47
76.08
79.27
81.85
83.92
85.50
86.47
86.44
85.33
83.54
81.85
81.03
81.27
81.92
81.82
79.90
75.64
69.24
61.30
52.35
42.55
31.85
20.18
7.84
-4.48
-15.82
-25.21
-31.91
-35.72
-36.99
-36.50
-35.17
-33.67
-32.13
-30.18
-27.31
-23.28
-18.46
-13.70
-9.97
-7.72
-6.68
-5.93
-4.56
-2.20
0.63
2.87
3.53
2.32
-0.17
-2.80
-4.49
-4.64
-3.34
-1.20
1.09
2.96
4.28
5.27
6.33
7.80
9.74
11.88
13.76
15.07
15.91
16.87
18.76
22.18
27.00
32.24
36.46
38.37
37.48
34.17
29.39
24.10
18.92
14.26
10.55
8.43
8.55
11.16
15.69
20.94
25.53
28.48
29.67
29.63
29.20
28.97
29.14
29.59
30.20
30.93
31.77
32.63
33.27
33.47
33.21
32.67
31.97
31.06
29.61
27.31
24.15
20.46
16.75
13.24
9.72
5.53
0.00
-7.00
-14.95
-22.73
-29.30
-34.13
-37.47
-40.12
-42.83
-45.87
-48.87
-51.10
-52.01
-51.56
-50.33
-49.15
-48.68
-49.08
-49.95
-50.59
-50.34
-48.94
-46.56
-43.76
-41.23
-39.42
-38.43
-37.93
-37.44
-36.57
-35.27
-33.91
-32.92
-32.47
-32.30
-31.80
-30.54
-28.66
-26.90
-26.20
-27.09
-29.25
-31.66
-33.06
-32.59
-30.16
-26.26
-21.68
-17.15
-13.20
-10.24
-8.52
-8.15
-9.05
-10.86
-13.12
-15.41
-17.43
-18.90
-19.37
-18.28
-15.14
-9.96
-3.40
3.41
9.40
14.10
17.90
21.78
26.65
32.85
39.85
46.62
52.13
55.95
58.37
60.15
61.93
63.85
65.46
66.02
65.06
62.66
59.46
56.35
53.95
52.30
50.92
49.05
46.21
42.41
38.13
34.03
30.53
27.65
25.05
22.30
19.20
15.85
12.63
9.95
8.05
6.86
5.98
4.85
2.93
-0.01
-3.77
-7.68
-10.98
-13.13
-14.10
-14.45
-14.94
-16.10
-17.97
-20.03
-21.66
-22.48
-22.54
-22.27
-22.05
-22.07
-22.19
-22.07
-21.48
-20.39
-19.09
-18.08
-17.78
-18.32
-19.36
-20.19
-20.04
-18.50
-15.90
-13.25
-11.76
-12.26
-14.66
-18.01
-21.04
-22.91
-23.63
-23.94
-24.74
-26.45
-28.73
-30.71
-31.51
-30.84
-29.14
-27.25
-25.91
-25.31
-25.04
-24.38
-22.74
-19.98
-16.49
-12.89
-9.82
-7.61
-6.23
-5.34
-4.58
-3.75
-3.00
-2.68
-3.13
-4.35
-5.91
-7.11
-7.39
-6.56
-4.98
-3.22
-1.70
-0.41
1.12
3.48
7.01
11.59
16.59
21.23
24.91
27.48
29.28
30.89
32.78
35.07
37.46
39.36
40.28
40.09
39.08
37.70
36.29
34.78
32.81
30.06
26.43
22.24
18.15
14.80
12.51
11.33
10.92
10.82
10.60
9.97
8.83
7.31
5.66
4.11
2.76
1.47
-0.11
-2.24
-4.98
-8.07
-11.01
-13.40
-15.05
-16.17
-17.09
-18.04
-18.84
-18.94
-17.73
-14.93
-10.81
-6.15
-1.85
1.45
3.65
5.19
6.68
8.45
10.40
12.08
13.13
13.55
13.79
14.41
15.65
17.19
18.39
18.61
17.70
16.09
14.57
13.82
14.06
14.99
16.05
16.79
17.05
16.92
16.53
15.96
15.23
14.45
13.72
13.13
12.63
12.08
11.43
10.86
10.78
11.53
13.07
14.82
15.83
15.31
13.14
10.00
7.09
5.42
5.40
6.70
8.63
10.67
12.67
14.70
16.72
18.39
19.20
18.93
18.00
17.25
17.51
18.89
20.69
21.69
20.91
18.32
14.80
11.80
10.65
12.03
15.81
21.16
26.71
30.66
31.10
26.49
16.40
2.10
-13.47
-26.48
-33.67
-33.56
-27.14
-17.40
-8.07
-2.07
-0.66
-3.26
-8.22
-13.66
-18.47
-22.51
-26.02
-29.01
-30.84
-30.77
-28.70
-25.92
-24.86
-27.85
-35.57
-46.26
-56.29
-61.94
-61.31
-55.28
-46.93
-39.86
-36.34
-36.89
-40.91
-48.07
-59.08
-74.85
-94.99
-116.43
-133.87
-141.75
-137.15
-121.75
-101.27
-82.57
-70.35
-65.22
-64.13
-62.84
-58.31
-49.68
-37.99
-24.77
-11.22
2.25
15.84
30.23
46.18
64.11
83.51
102.61
118.71
129.18
132.80
130.61
125.42
120.34
117.14
115.48
113.00
106.19
91.23
65.15
27.06
-20.78
-72.53
-120.10
-155.76
-174.73
-176.50
-164.07
-142.23
-115.86
-89.71
-68.55
-56.87
-57.47
-69.67
-88.49
-105.86
-113.96
-108.63
-91.09
-66.73
-41.79
-20.12
-1.79
15.53
33.78
52.05
66.78
74.19
73.54
68.94
68.18
79.01
105.04
143.84
187.99
228.80
260.07
279.88
289.65
291.62
286.79
274.65
254.28
225.95
191.75
154.67
117.03
79.09
38.92
-6.06
-56.61
-109.70
-158.17
-192.62
-205.22
-193.44
-161.71
-120.16
-80.43
-51.11
-35.07
-29.70
-29.73
-30.72
-30.87
-30.36
-29.31
-26.04
-17.43
-1.28
21.06
43.73
58.29
57.80
40.69
11.95
-18.93
-42.55
-53.91
-54.07
-48.53
-43.41
-42.29
-45.16
-49.83
-54.09
-57.13
-59.22
-60.49
-60.21
-56.82
-49.12
-37.36
-23.48
-10.13
0.55
7.76
11.90
13.51
12.37
7.53
-1.77
-14.77
-28.96
-40.62
-46.58
-45.78
-39.78
-32.07
-26.10
-23.61
-24.04
-25.29
-25.12
-22.34
-16.87
-9.04
1.06
13.39
27.18
40.38
49.91
53.18
49.42
40.14
27.88
14.40
-0.47
-18.27
-39.66
-62.63
-82.02
-91.49
-86.44
-66.14
-34.13
3.33
39.27
67.44
82.87
82.04
63.31
27.50
-21.99
-79.87
-140.72
-200.67
-258.03
-312.62
-364.23
-411.37
-451.29
-480.68
-496.80
-498.04
-483.27
-450.99
-399.32
-327.11
-235.55
-129.08
-14.92
98.24
202.08
290.16
358.69
406.87
436.54
451.36
455.53
452.74
445.34
434.23
419.63
401.63
380.63
356.85
330.10
299.83
265.69
228.57
190.98
156.19
126.68
103.50
86.91
77.45
76.39
84.71
100.79
119.03
130.34
125.20
97.85
49.52
-11.12
-70.32
-113.83
-131.50
-120.38
-85.37
-37.71
8.59
40.77
50.65
36.57
2.95
-41.69
-87.63
-126.10
-150.77
-158.64
-150.95
-133.46
-115.58
-107.57
-116.50
-142.93
-180.26
-217.51
-244.06
-254.04
-247.72
-229.73
-205.42
-178.08
-148.69
-117.64
-86.71
-59.18
-38.16
-24.36
-15.22
-6.33
5.73
21.16
36.82
48.31
53.03
51.97
49.50
50.81
59.11
73.77
90.82
105.20
113.17
113.90
109.19
101.87
94.14
86.97
80.75
76.59
77.44
87.55
110.37
145.84
188.84
230.34
260.88
274.52
271.10
255.56
234.65
212.99
191.10
165.81
133.13
91.37
42.96
-5.87
-46.99
-73.27
-81.11
-71.89
-51.99
-31.12
-19.24
-23.03
-43.33
-75.20
-110.78
-143.11
-168.75
-187.83
-201.56
-209.54
-209.15
-197.59
-175.47
-148.50
-125.43
-113.51
-114.06
-121.22
-125.43
-119.48
-102.55
-79.35
-55.72
-33.30
-7.88
27.40
76.50
136.38
197.67
249.37
284.71
303.85
312.22
315.81
316.61
310.95
291.35
250.75
186.50
102.47
8.15
-84.43
-164.91
-227.87
-274.44
-310.89
-345.06
-382.41
-423.66
-465.22
-501.68
-529.00
-546.73
-557.34
-564.16
-568.91
-570.49
-565.38
-549.11
-517.57
-467.65
-397.65
-307.54
-199.68
-79.40
45.48
166.48
277.03
374.52
460.65
539.36
613.89
684.28
746.96
796.47
828.26
840.92
836.56
819.33
793.23
760.47
720.99
673.29
615.58
546.45
465.26
372.04
268.41
158.89
51.59
-42.79
-114.40
-158.87
-180.52
-191.63
-207.31
-238.29
-285.28
-338.20
-380.56
-396.99
-379.95
-332.29
-265.72
-196.28
-139.54
-106.73
-102.53
-124.19
-161.80
-200.64
-224.89
-222.62
-190.18
-133.92
-68.30
-10.89
23.66
28.07
4.01
-39.26
-88.53
-130.80
-156.76
-162.74
-150.91
-127.99
-102.14
-80.02
-64.55
-54.74
-47.51
-40.85
-36.17
-38.33
-52.68
-80.75
-117.56
-152.07
-171.03
-164.20
-128.29
-68.07
5.68
79.67
141.79
183.62
201.74
197.84
177.67
149.23
120.36
96.62
80.57
72.43
71.58
77.82
91.26
110.69
132.56
150.97
159.57
154.25
134.95
105.34
70.80
35.80
2.43
-29.20
-59.44
-87.57
-111.63
-129.52
-140.52
-145.82
-147.38
-146.04
-140.18
-126.56
-102.91
-70.61
-35.55
-6.03
11.16
14.21
6.98
-3.36
-10.32
-10.99
-6.59
-0.49
4.56
8.09
11.49
16.32
22.61
28.47
31.22
29.05
22.30
13.54
6.41
3.97
7.15
14.40
22.35
27.45
27.76
23.83
18.34
14.44
13.89
16.02
18.27
17.84
13.48
6.38
-0.47
-3.99
-2.63
2.91
10.00
15.52
17.25
14.57
8.70
2.23
-1.54
0.41
9.75
25.75
44.52
59.64
64.15
53.27
26.87
-9.86
-47.96
-77.86
-92.49
-89.34
-70.51
-41.30
-8.18
22.81
47.00
61.84
67.11
65.09
59.97
56.27
56.88
61.96
68.81
73.33
72.10
63.68
49.24
31.69
14.12
-1.83
-16.76
-33.34
-54.96
-83.55
-118.55
-156.75
-193.28
-223.66
-245.40
-258.27
-264.96
-270.50
-281.46
-305.16
-347.31
-409.43
-487.21
-570.48
-645.11
-698.23
-721.68
-713.55
-678.12
-622.99
-556.77
-487.67
-422.33
-364.02
-313.03
-266.02
-211.69
-139.59
-42.71
79.44
219.83
360.87
489.19
596.16
678.14
735.32
769.55
783.25
779.27
760.81
731.10
694.17
653.14
610.28
567.29
525.16
484.45
445.26
407.27
369.72
332.41
295.10
257.86
221.23
186.37
154.28
125.44
99.73
76.12
53.33
29.42
1.97
-31.36
-70.67
-113.72
-155.55
-189.28
-209.11
-212.83
-203.44
-188.76
-179.05
-182.49
-204.54
-246.99
-304.65
-371.00
-438.92
-500.72
-548.77
-584.88
-608.42
-618.93
-617.29
-605.82
-583.95
-552.55
-511.95
-461.85
-402.17
-332.83
-256.14
-176.57
-99.26
-28.68
32.63
85.29
132.30
177.36
224.44
275.18
328.16
378.99
420.90
446.04
448.06
424.38
377.91
317.84
256.91
207.63
177.89
168.09
171.23
176.71
175.37
163.09
141.47
115.04
87.33
58.23
24.26
-18.63
-71.15
-128.68
-182.49
-223.05
-244.09
-245.19
-231.26
-209.85
-187.53
-167.04
-146.92
-123.32
-93.01
-55.69
-14.26
26.86
64.64
99.08
133.01
169.81
210.45
251.71
286.40
305.59
302.46
275.73
230.64
177.80
129.73
96.43
82.34
85.57
99.91
118.55
136.96
154.07
170.94
188.20
204.12
214.52
214.79
202.62
179.52
150.38
121.17
96.14
76.36
59.90
43.71
26.01
7.28
-10.07
-23.55
-32.17
-37.03
-40.31
-43.74
-47.40
-49.72
-48.73
-43.30
-34.06
-23.09
-13.10
-6.21
-3.29
-3.94
-6.98
-11.24
-15.98
-21.11
-26.90
-33.48
-40.28
-45.96
-48.92
-47.97
-43.16
-35.47
-26.33
-16.74
-7.06
2.47
10.98
16.74
18.13
14.71
8.19
1.82
-1.22
0.43
5.60
11.46
15.25
15.76
13.54
9.98
5.97
1.37
-4.40
-11.41
-18.74
-24.85
-28.76
-31.10
-34.07
-40.58
-52.72
-70.61
-92.16
-113.74
-131.42
-142.40
-145.70
-142.43
-135.22
-127.34
-121.78
-120.36
-123.20
-128.50
-133.05
-133.42
-127.22
-114.47
-97.66
-81.04
-69.26
-66.38
-75.57
-98.94
-137.46
-189.92
-251.99
-316.06
-372.53
-412.35
-429.60
-423.12
-396.69
-357.57
-314.62
-276.32
-249.20
-236.67
-238.48
-251.15
-269.18
-286.85
-299.86
-305.83
-303.69
-292.48
-270.94
-238.21
-195.18
-145.32
-94.21
-47.04
-5.79
32.03
71.77
118.64
174.41
236.16
298.15
354.65
402.12
439.20
464.98
477.92
476.06
459.23
431.02
398.62
370.15
350.85
340.72
335.13
328.11
315.93
298.90
280.43
264.40
253.11
246.56
243.39
242.04
242.07
243.76
247.50
252.94
258.79
262.92
263.21
258.43
248.43
234.18
217.03
197.93
177.04
153.41
125.57
92.33
53.44
10.11
-35.12
-79.03
-118.49
-151.35
-176.63
-194.46
-205.56
-210.71
-210.27
-204.10
-191.65
-172.16
-144.99
-110.11
-68.71
-23.62
20.74
59.19
87.19
102.23
104.62
97.23
84.20
69.40
55.26
42.53
30.79
19.38
8.01
-3.01
-12.91
-20.86
-26.10
-28.11
-26.68
-22.17
-15.67
-8.98
-4.15
-2.76
-5.19
-10.20
-15.42
-18.28
-17.08
-11.66
-3.20
6.55
16.12
24.74
32.27
38.60
43.39
46.05
46.11
43.68
39.38
34.11
28.61
23.25
18.10
13.12
8.35
3.83
-0.46
-4.72
-9.20
-13.89
-18.33
-21.44
-21.85
-18.43
-10.82
0.14
12.54
23.76
31.20
33.03
28.82
19.76
8.30
-2.73
-11.07
-15.95
-18.17
-19.68
-22.66
-28.39
-36.36
-44.01
-47.60
-44.02
-32.81
-17.28
-4.01
-0.46
-11.94
-39.34
-78.79
-123.60
-167.18
-205.48
-237.55
-264.25
-286.20
-302.57
-311.46
-311.45
-302.91
-288.31
-271.04
-253.61
-236.51
-218.35
-196.74
-169.92
-137.37
-99.49
-56.77
-8.91
45.09
105.99
173.15
243.62
312.13
372.01
416.29
439.27
437.82
412.52
368.12
312.80
256.07
206.01
166.92
138.66
117.84
100.27
83.06
65.28
47.45
30.26
13.82
-2.09
-17.11
-29.78
-37.91
-39.77
-35.43
-27.13
-18.37
-12.32
-10.32
-11.52
-13.61
-14.32
-12.57
-8.85
-4.58
-1.17
0.81
1.77
2.51
3.56
4.79
5.63
5.55
4.55
3.17
2.10
1.74
1.89
1.85
0.86
-1.45
-4.79
-8.30
-10.93
-11.95
-11.34
-9.70
-8.03
-7.16
-7.37
-8.34
-9.30
-9.53
-8.63
-6.69
-4.14
-1.49
0.96
3.23
5.62
8.47
11.99
16.07
20.35
24.30
27.45
29.55
30.58
30.82
30.57
30.13
29.73
29.62
29.93
30.70
31.66
32.18
31.45
28.90
24.55
19.24
14.37
11.20
10.10
10.09
9.01
4.39
-5.39
-20.13
-37.60
-54.15
-65.88
-70.09
-66.20
-55.95
-42.83
-31.15
-24.89
-26.49
-35.99
-50.66
-65.59
-75.27
-75.61
-65.67
-47.99
-27.51
-9.38
2.93
8.34
7.50
1.46
-9.30
-24.57
-43.45
-63.46
-80.80
-91.92
-95.38
-92.84
-88.36
-86.52
-90.15
-99.07
-110.28
-119.48
-123.00
-119.04
-108.06
-92.05
-73.65
-55.20
-38.32
-23.90
-12.11
-2.53
5.71
13.59
22.00
31.48
42.11
53.43
64.48
73.99
80.61
83.30
81.86
77.16
71.26
66.80
66.28
70.96
80.36
92.29
103.81
112.30
116.38
116.16
112.82
107.96
102.85
98.25
94.40
91.32
89.09
87.76
87.17
86.65
85.22
81.86
76.07
68.19
59.39
51.22
44.89
40.87
38.62
36.96
34.69
31.12
26.44
21.52
17.42
14.78
13.53
12.95
12.12
10.41
7.81
4.82
2.14
0.14
-1.36
-3.05
-5.75
-9.87
-15.16
-20.78
-25.72
-29.37
-31.71
-33.31
-34.88
-36.94
-39.61
-42.64
-45.72
-48.61
-51.21
-53.44
-55.13
-56.11
-56.34
-56.12
-55.98
-56.40
-57.44
-58.59
-59.01
-58.00
-55.45
-51.94
-48.41
-45.63
-43.83
-42.60
-41.19
-39.02
-35.92
-32.22
-28.42
-24.94
-21.86
-18.93
-15.73
-11.91
-7.28
-2.04
3.38
8.46
12.81
16.38
19.44
22.43
25.64
29.01
32.05
34.15
34.87
34.26
32.86
31.39
30.42
30.04
29.86
29.26
27.71
25.07
21.65
18.00
14.65
11.84
9.39
6.93
4.12
0.95
-2.19
-4.72
-6.17
-6.50
-6.18
-5.94
-6.34
-7.42
-8.66
-9.29
-8.73
-6.96
-4.62
-2.66
-1.82
-2.27
-3.52
-4.69
-5.04
-4.32
-2.92
-1.58
-0.92
-1.20
-2.11
-3.04
-3.49
-3.25
-2.56
-1.87
-1.59
-1.90
-2.63
-3.41
-3.87
-3.76
-3.17
-2.46
-2.08
-2.37
-3.29
-4.47
-5.34
-5.54
-5.12
-4.49
-4.24
-4.63
-5.43
-5.99
-5.64
-4.11
-1.78
0.56
2.11
2.50
2.00
1.28
1.01
1.41
2.19
2.72
2.48
1.37
-0.27
-1.80
-2.74
-2.92
-2.64
-2.39
-2.54
-3.18
-4.02
-4.64
-4.73
-4.27
-3.52
-2.84
-2.50
-2.49
-2.56
-2.35
-1.68
-0.66
0.33
0.82
0.54
-0.44
-1.69
-2.65
-2.91
-2.38
-1.42
-0.56
-0.27
-0.68
-1.54
-2.35
-2.66
-2.32
-1.54
-0.78
-0.42
-0.55
-0.89
-1.02
-0.61
0.32
1.40
2.10
2.06
1.31
0.24
-0.56
-0.67
-0.05
0.93
1.73
1.91
1.37
0.41
-0.51
-0.93
-0.70
-0.00
0.78
1.29
1.39
1.24
1.18
1.52
2.33
3.31
4.04
4.10
3.44
2.36
1.39
1.03
1.43
2.27
2.95
2.92
1.94
0.26
-1.55
-2.88
-3.45
-3.39
-3.16
-3.23
-3.82
-4.74
-5.52
-5.72
-5.17
-4.12
-3.12
-2.68
-3.06
-4.08
-5.20
-5.84
-5.69
-4.87
-3.85
-3.22
-3.34
-4.13
-5.10
-5.65
-5.37
-4.29
-2.84
-1.64
-1.09
-1.18
-1.58
-1.85
-1.74
-1.37
-1.16
-1.49
-2.42
-3.60
-4.39
-4.25
-3.07
-1.27
0.43
1.32
1.15
0.25
-0.77
-1.27
-0.95
-0.03
1.01
1.66
1.67
1.24
0.76
0.62
0.96
1.59
2.09
2.09
1.53
0.68
0.06
0.09
0.89
2.14
3.26
3.72
3.34
2.41
1.49
1.11
1.44
2.22
2.93
3.13
2.71
1.95
1.34
1.23
1.66
2.30
2.65
2.38
1.50
0.38
-0.43
-0.57
0.01
0.92
1.66
1.84
1.40
0.69
0.17
0.18
0.72
1.39
1.67
1.19
-0.04
-1.58
-2.81
-3.28
-2.92
-2.15
-1.55
-1.67
-2.61
-4.01
-5.28
-5.86
-5.65
-4.92
-4.22
-4.01
-4.38
-5.05
-5.52
-5.42
-4.73
-3.79
-3.11
-3.07
-3.69
-4.59
-5.23
-5.19
-4.42
-3.28
-2.30
-1.90
-2.10
-2.57
-2.78
-2.34
-1.22
0.22
1.48
2.14
2.10
1.66
1.25
1.27
1.83
2.74
3.59
4.00
3.82
3.20
2.55
2.23
2.40
2.85
3.17
2.92
1.95
0.45
-1.11
-2.23
-2.70
-2.64
-2.46
-2.58
-3.21
-4.19
-5.10
-5.50
-5.14
-4.16
-2.98
-2.10
-1.83
-2.16
-2.76
-3.23
-3.31
-2.98
-2.51
-2.20
-2.23
-2.54
-2.85
-2.83
-2.30
-1.35
-0.27
0.58
0.98
0.96
0.78
0.79
1.23
2.06
2.97
3.58
3.63
3.20
2.66
2.47
2.92
3.87
4.86
5.28
4.83
3.66
2.32
1.50
1.60
2.50
3.61
4.27
4.07
3.09
1.85
0.94
0.72
1.04
1.44
1.45
0.91
0.08
-0.57
-0.63
-0.06
0.76
1.25
0.97
-0.14
-1.69
-3.06
-3.73
-3.53
-2.75
-1.91
-1.56
-1.87
-2.64
-3.37
-3.63
-3.27
-2.51
-1.83
-1.58
-1.85
-2.40
-2.84
-2.86
-2.44
-1.82
-1.34
-1.23
-1.46
-1.75
-1.75
-1.20
-0.12
1.16
2.15
2.44
1.90
0.79
-0.32
-0.86
-0.59
0.34
1.42
2.05
1.88
1.01
-0.10
-0.93
-1.17
-0.93
-0.63
-0.77
-1.63
-3.04
-4.56
-5.71
-6.25
-6.33
-6.38
-6.80
-7.71
-8.86
-9.78
-10.11
-9.84
-9.42
-9.45
-10.36
-12.05
-13.92
-15.07
-14.84
-13.17
-10.68
-8.29
-6.75
-6.26
-6.35
-6.15
-4.93
-2.55
0.35
2.61
3.10
1.42
-1.79
-4.93
-6.11
-4.07
1.06
7.64
13.05
14.79
11.71
4.49
-4.48
-12.12
-15.73
-13.76
-6.12
5.93
19.93
32.36
38.70
34.14
15.08
-19.03
-64.20
-112.15
-152.47
-176.27
-179.23
-162.99
-133.65
-98.62
-63.18
-28.85
5.72
41.97
78.77
111.50
133.60
140.05
130.29
109.16
85.09
66.37
57.77
58.92
65.52
72.19
75.37
74.66
72.18
70.77
72.42
77.82
87.10
100.77
119.92
145.40
176.34
209.12
237.96
256.76
261.77
253.41
236.32
217.48
203.50
198.11
201.29
210.29
221.27
230.57
234.72
229.67
210.78
174.52
120.91
55.37
-11.86
-69.28
-108.49
-127.39
-130.11
-124.49
-118.39
-117.39
-124.74
-142.00
-169.40
-205.14
-244.24
-279.05
-301.48
-306.57
-295.05
-273.25
-250.16
-233.56
-227.14
-229.91
-237.88
-246.27
-251.19
-250.20
-242.09
-226.96
-206.24
-182.68
-159.60
-139.65
-123.87
-111.45
-100.54
-89.42
-77.21
-64.02
-50.22
-35.90
-20.89
-5.21
10.46
24.75
36.36
44.67
50.10
53.61
56.06
57.67
58.13
57.04
54.32
50.38
45.93
41.67
38.10
35.39
33.31
31.41
28.99
25.36
20.12
13.25
5.13
-3.91
-13.78
-24.64
-36.27
-47.44
-55.63
-57.53
-50.57
-34.29
-11.15
14.11
35.98
50.12
54.59
50.02
38.77
23.76
7.69
-7.59
-21.04
-32.41
-42.39
-52.62
-65.53
-83.69
-108.75
-140.28
-175.23
-208.30
-233.36
-245.43
-242.00
-223.60
-193.00
-153.84
-109.39
-62.06
-13.62
34.17
79.42
120.42
156.28
187.46
215.69
243.12
271.42
301.05
331.14
359.49
383.18
398.99
404.15
397.29
379.31
353.62
325.33
299.53
279.36
265.03
254.14
243.53
231.32
217.83
204.68
192.82
180.80
164.61
139.46
102.31
53.74
-2.03
-58.88
-111.07
-154.86
-188.65
-212.10
-225.19
-227.98
-221.16
-206.85
-188.73
-171.15
-157.68
-149.86
-146.88
-146.27
-145.21
-141.77
-135.46
-127.14
-118.30
-110.40
-104.20
-99.67
-96.05
-92.37
-88.09
-83.49
-79.56
-77.46
-77.59
-79.28
-81.10
-81.83
-81.47
-81.68
-84.78
-92.35
-103.84
-116.26
-125.53
-128.35
-123.88
-113.97
-102.02
-91.43
-84.56
-82.98
-88.47
-103.57
-130.73
-170.40
-219.10
-269.10
-310.51
-334.70
-337.67
-321.37
-292.29
-258.23
-224.96
-194.51
-165.60
-135.85
-104.04
-71.02
-38.96
-9.82
16.19
40.59
65.53
92.17
119.91
146.85
171.23
192.79
213.03
234.14
257.07
279.89
297.65
304.03
294.31
268.05
230.13
189.37
155.28
134.60
129.15
136.32
151.03
168.57
186.16
203.04
219.47
235.70
251.48
266.06
278.36
286.55
287.82
278.85
257.52
224.36
183.40
140.99
103.54
75.42
58.19
51.58
54.67
66.44
84.96
106.36
124.42
131.88
123.09
96.31
54.62
4.65
-46.02
-91.31
-127.93
-155.14
-173.75
-185.06
-190.20
-190.31
-186.63
-180.60
-173.68
-167.00
-161.15
-156.23
-151.87
-147.60
-143.09
-138.25
-133.23
-128.30
-123.67
-119.46
-115.60
-111.99
-108.46
-104.85
-100.83
-95.87
-89.38
-80.94
-70.60
-58.96
-47.01
-35.73
-25.86
-17.84
-11.95
-8.53
-7.79
-9.61
-13.33
-17.79
-21.79
-24.67
-26.69
-28.95
-32.80
-39.17
-47.91
-57.66
-66.32
-71.64
-72.07
-67.44
-59.26
-50.90
-47.18
-53.57
-74.61
-111.87
-162.26
-217.89
-268.01
-302.42
-315.15
-306.21
-281.13
-247.83
-213.33
-181.30
-151.96
-123.38
-93.33
-60.45
-24.41
14.33
54.82
95.37
133.51
166.28
191.01
206.44
213.24
213.78
211.18
208.09
206.23
206.61
210.09
217.75
230.39
247.35
265.93
281.65
289.91
288.07
276.59
258.80
238.87
219.64
201.58
183.88
166.59
152.40
145.98
151.09
167.12
187.56
201.78
199.69
176.64
135.77
86.30
39.02
1.49
-24.40
-41.45
-54.07
-65.14
-74.71
-81.20
-83.40
-81.99
-79.39
-78.32
-80.27
-84.80
-90.01
-93.95
-95.80
-96.15
-96.53
-98.24
-101.45
-104.89
-106.44
-104.08
-97.02
-86.16
-73.98
-63.62
-57.73
-57.42
-61.92
-68.83
-75.21
-78.76
-78.67
-75.73
-71.71
-68.44
-67.06
-67.78
-70.07
-73.28
-76.91
-80.71
-84.50
-87.77
-89.34
-87.13
-78.92
-62.80
-38.61
-8.39
23.84
53.11
74.84
85.94
85.33
73.87
54.06
29.73
5.74
-12.78
-21.57
-18.64
-5.50
13.10
30.58
41.02
41.47
33.11
20.63
10.19
6.94
12.98
26.88
44.56
61.24
73.38
79.83
81.93
82.16
82.87
85.07
88.19
90.86
91.96
91.51
90.87
91.93
96.12
103.55
112.69
120.78
124.58
121.11
108.13
84.39
50.04
7.18
-39.71
-84.10
-118.84
-138.29
-140.29
-126.98
-103.94
-77.94
-54.54
-36.62
-24.46
-16.84
-12.50
-10.89
-11.96
-15.47
-20.34
-24.68
-26.53
-24.74
-19.60
-12.99
-7.54
-5.55
-7.92
-13.77
-20.85
-26.65
-29.49
-29.06
-26.28
-22.48
-18.56
-14.65
-10.33
-5.22
0.52
6.07
10.33
12.45
12.27
10.34
7.68
5.30
3.82
3.28
3.27
3.17
2.45
0.89
-1.31
-3.77
-6.03
-7.87
-9.30
-10.45
-11.46
-12.23
-12.55
-12.21
-11.16
-9.64
-8.07
-6.76
-5.80
-5.06
-4.24
-3.18
-1.97
-0.84
-0.11
0.10
-0.13
-0.53
-0.77
-0.59
0.06
1.04
2.05
2.71
2.77
2.17
1.10
-0.07
-0.98
-1.45
-1.55
-1.47
-1.42
-1.38
-1.17
-0.50
0.75
2.45
4.19
5.53
6.20
6.28
6.13
6.23
6.83
7.90
9.07
9.88
10.07
9.64
8.93
8.38
8.29
8.68
9.28
9.66
9.51
8.71
7.44
6.09
5.00
4.30
3.86
3.39
2.60
1.41
-0.06
-1.53
-2.83
-3.92
-5.00
-6.32
-8.02
-9.96
-11.74
-12.83
-12.86
-11.74
-9.76
-7.49
-5.56
-4.36
-3.95
-4.04
-4.23
-4.18
-3.85
-3.49
-3.43
-3.85
-4.68
-5.57
-6.12
-6.10
-5.58
-4.84
-4.21
-3.82
-3.56
-3.16
-2.39
-1.28
-0.10
0.76
1.05
0.79
0.32
0.09
0.36
1.10
1.94
2.41
2.19
1.33
0.24
-0.48
-0.37
0.67
2.36
4.18
5.58
6.30
6.40
6.18
5.93
5.81
5.71
5.42
4.73
3.63
2.33
1.09
0.19
-0.31
-0.51
-0.57
-0.64
-0.72
-0.69
-0.42
0.09
0.67
1.03
0.90
0.19
-0.93
-2.12
-3.08
-3.61
-3.80
-3.88
-4.07
-4.50
-5.05
-5.53
-5.68
-5.39
-4.63
-3.51
-2.25
-1.12
-0.36
-0.11
-0.36
-0.95
-1.60
-2.05
-2.16
-1.98
-1.68
-1.42
-1.29
-1.27
-1.26
-1.22
-1.16
-1.12
-1.13
-1.13
-0.97
-0.49
0.34
1.40
2.43
3.13
3.34
3.09
2.62
2.20
1.96
1.83
1.60
1.06
0.19
-0.72
-1.25
-1.05
-0.05
1.41
2.75
3.41
3.12
2.01
0.55
-0.74
-1.54
-1.79
-1.75
-1.67
-1.74
-1.94
-2.08
-1.96
-1.49
-0.83
-0.27
-0.15
-0.63
-1.62
-2.74
-3.58
-3.86
-3.62
-3.16
-2.85
-2.90
-3.24
-3.56
-3.51
-2.99
-2.14
-1.30
-0.80
-0.74
-0.97
-1.18
-1.10
-0.60
0.20
1.04
1.68
2.01
2.11
2.20
2.50
3.10
3.89
4.58
4.82
4.41
3.41
2.14
1.05
0.46
0.41
0.67
0.86
0.69
0.12
-0.65
-1.33
-1.70
-1.77
-1.71
-1.71
-1.86
-2.06
-2.13
-1.95
-1.52
-1.01
-0.65
-0.63
-0.95
-1.46
-1.88
-1.96
-1.59
-0.86
-0.01
0.66
0.97
0.86
0.48
0.05
-0.26
-0.34
-0.24
-0.09
0.03
0.07
0.13
0.34
0.75
1.25
1.61
1.53
0.89
-0.21
-1.43
-2.36
-2.74
-2.54
-1.99
-1.44
-1.08
-0.92
-0.82
-0.65
-0.45
-0.44
-0.90
-1.95
-3.39
-4.82
-5.67
-5.62
-4.64
-3.03
-1.18
0.52
1.89
2.89
3.58
3.94
3.96
3.57
2.69
1.36
-0.28
-1.96
-3.31
-4.02
-3.96
-3.23
-2.21
-1.33
-0.88
-0.89
-1.13
-1.29
-1.21
-0.98
-0.87
-1.10
-1.71
-2.47
-3.03
-3.10
-2.62
-1.77
-0.85
-0.10
0.36
0.59
0.72
0.87
1.04
1.14
0.98
0.41
-0.59
-1.90
-3.18
-4.04
-4.15
-3.38
-1.93
-0.19
1.41
2.66
3.61
4.51
5.62
6.92
8.11
8.69
8.30
6.93
4.94
2.86
1.16
-0.04
-0.88
-1.63
-2.46
-3.26
-3.68
-3.33
-1.97
0.25
2.90
5.31
6.94
7.49
6.96
5.63
3.79
1.68
-0.65
-3.20
-5.90
-8.50
-10.65
-11.98
-12.34
-11.84
-10.83
-9.70
-8.69
-7.82
-6.92
-5.83
-4.57
-3.40
-2.67
-2.62
-3.19
-4.05
-4.74
-4.95
-4.64
-4.00
-3.30
-2.63
-1.85
-0.68
1.05
3.26
5.54
7.36
8.33
8.37
7.76
6.96
6.36
6.15
6.23
6.44
6.64
6.86
7.25
7.93
8.84
9.73
10.29
10.32
9.89
9.37
9.28
10.03
11.67
13.78
15.67
16.65
16.33
14.86
12.91
11.34
10.93
12.02
14.40
17.50
20.60
23.16
25.06
26.51
27.89
29.44
31.14
32.59
33.36
33.04
31.34
27.90
22.28
14.17
3.75
-8.11
-20.07
-30.83
-39.58
-46.26
-51.18
-54.56
-56.27
-55.95
-53.50
-49.50
-45.07
-41.30
-38.61
-36.49
-33.82
-29.51
-23.02
-14.41
-4.10
7.37
19.35
31.00
41.51
50.17
56.64
61.04
63.71
64.87
64.31
61.53
56.05
48.04
38.70
30.36
26.06
28.57
39.23
57.13
79.10
100.53
117.02
125.79
126.39
120.31
109.88
97.14
83.14
68.10
51.86
34.37
15.52
-5.09
-28.24
-54.69
-84.18
-114.71
-142.36
-162.09
-169.14
-160.72
-136.91
-100.46
-55.63
-6.63
43.06
90.73
133.80
169.21
193.21
202.36
195.16
173.22
141.44
106.63
75.42
52.90
41.41
40.63
48.63
62.63
79.74
97.17
111.59
119.11
116.01
99.43
67.85
21.61
-37.36
-106.94
-183.16
-260.41
-334.72
-402.60
-460.42
-504.32
-530.60
-536.28
-519.95
-482.26
-426.37
-357.72
-282.66
-207.54
-137.65
-76.64
-26.32
13.67
45.75
73.43
100.14
127.96
156.40
182.30
201.07
208.80
204.13
189.06
167.75
144.77
123.44
105.19
89.95
77.37
67.70
61.78
60.25
62.52
66.78
70.72
72.65
72.11
69.66
66.16
61.88
56.30
48.87
39.95
31.23
25.30
24.25
28.36
35.65
42.35
44.47
39.37
26.84
8.99
-10.56
-28.12
-41.07
-48.48
-50.98
-49.98
-46.80
-42.06
-35.83
-28.15
-19.77
-12.30
-7.50
-6.59
-9.47
-14.77
-20.55
-25.03
-27.23
-27.18
-25.73
-24.13
-23.61
-24.86
-27.77
-31.36
-34.19
-34.83
-32.53
-27.32
-19.92
-11.38
-2.80
4.68
9.85
11.57
9.13
2.71
-6.38
-16.10
-24.43
-30.07
-32.78
-33.05
-31.59
-28.92
-25.35
-21.35
-17.81
-15.96
-16.87
-20.95
-27.65
-35.55
-42.75
-47.41
-48.07
-43.95
-35.10
-22.40
-7.59
7.26
20.28
30.42
37.61
42.38
45.29
46.50
45.79
43.05
38.74
33.93
29.92
27.67
27.57
29.61
33.78
40.26
48.82
58.08
65.07
65.99
57.87
40.34
16.19
-9.61
-31.98
-47.78
-56.59
-59.96
-59.95
-57.86
-54.06
-48.66
-42.35
-36.62
-32.99
-32.06
-32.82
-33.03
-30.22
-22.96
-11.54
2.06
15.18
25.45
31.70
34.16
33.90
32.29
30.47
29.23
29.16
30.64
33.63
37.35
40.11
39.81
35.12
26.45
16.36
8.49
5.76
8.62
14.49
18.71
16.52
5.16
-15.06
-40.94
-67.80
-91.37
-109.26
-121.42
-129.45
-135.21
-139.56
-141.92
-140.66
-134.15
-121.84
-104.65
-84.49
-63.47
-43.07
-24.09
-7.43
5.14
10.74
6.46
-8.66
-31.92
-56.93
-75.50
-81.09
-71.71
-50.88
-26.08
-5.34
6.27
8.31
4.19
-1.40
-5.31
-7.41
-9.97
-15.56
-24.73
-34.99
-41.73
-40.40
-29.06
-9.66
12.82
32.57
45.73
51.87
53.63
54.82
58.11
63.85
70.42
75.71
78.76
80.44
82.91
87.99
95.65
103.27
106.54
101.41
86.38
63.62
38.36
16.71
2.99
-1.87
-0.18
4.35
8.68
11.83
14.60
18.41
23.68
29.07
32.15
30.64
24.05
14.34
5.34
1.10
3.60
11.60
20.95
26.71
25.81
19.06
11.02
7.80
14.36
32.43
59.74
91.20
120.87
143.19
153.94
150.60
132.74
102.80
66.27
30.69
3.39
-11.53
-15.05
-12.60
-11.03
-14.78
-23.56
-32.94
-37.68
-35.26
-27.70
-20.05
-17.33
-21.22
-29.60
-38.21
-43.75
-45.68
-45.87
-46.76
-49.28
-52.07
-52.60
-49.07
-41.36
-31.33
-21.68
-14.57
-11.05
-10.92
-13.15
-16.45
-19.66
-21.83
-22.41
-21.40
-19.29
-16.88
-14.84
-13.36
-12.12
-10.64
-8.82
-7.20
-6.85
-8.76
-13.10
-18.90
-24.28
-27.15
-26.13
-21.11
-13.21
-4.16
4.43
11.67
17.55
22.68
27.77
33.24
39.09
44.98
50.64
56.06
61.59
67.59
74.16
80.83
86.78
91.28
94.23
96.32
98.76
102.55
107.85
113.73
118.70
121.44
121.49
119.48
116.67
114.28
113.01
112.92
113.69
114.81
115.67
115.32
112.31
105.02
92.46
75.24
55.72
37.00
21.27
8.38
-4.11
-19.44
-39.43
-63.17
-87.36
-108.25
-123.90
-135.11
-144.70
-155.35
-167.88
-180.68
-190.97
-196.66
-197.58
-195.53
-193.04
-192.01
-192.85
-194.65
-196.00
-196.02
-194.77
-193.04
-191.74
-191.22
-191.07
-190.41
-188.45
-184.95
-180.33
-175.30
-170.43
-165.79
-160.87
-154.92
-147.19
-137.43
-126.21
-114.85
-105.29
-99.17
-96.99
-97.40
-97.22
-92.36
-79.30
-56.56
-25.30
11.41
49.99
87.79
123.56
156.63
185.79
208.81
222.77
225.61
217.49
201.15
180.91
160.88
143.34
128.27
114.31
100.23
86.16
73.62
64.51
59.83
59.06
60.59
62.54
63.80
64.18
64.11
63.79
62.85
60.47
55.88
48.91
40.01
30.06
19.92
10.35
2.25
-3.21
-4.76
-1.87
4.68
12.76
19.77
23.72
23.96
20.96
15.45
7.82
-1.77
-12.75
-23.53
-31.71
-35.25
-33.66
-28.37
-21.90
-16.35
-12.23
-8.60
-4.31
0.64
4.80
5.93
2.57
-5.09
-15.29
-25.69
-34.65
-41.56
-46.36
-48.68
-47.30
-40.44
-26.97
-7.39
15.66
38.12
55.91
66.44
69.34
66.25
59.82
52.51
45.84
40.30
35.75
32.02
29.09
27.12
26.10
25.76
25.49
24.58
22.58
19.42
15.50
11.46
7.91
5.29
3.69
3.02
3.05
3.63
4.73
6.42
8.76
11.68
14.86
17.75
19.72
20.34
19.63
18.06
16.25
14.62
13.20
11.60
9.42
6.57
3.41
0.66
-1.07
-1.50
-0.86
0.30
1.33
1.75
1.35
0.20
-1.44
-3.32
-5.32
-7.51
-10.16
-13.46
-17.36
-21.38
-24.74
-26.58
-26.29
-23.77
-19.54
-14.53
-9.72
-5.64
-2.20
1.16
4.98
9.11
12.63
14.19
13.04
9.70
6.13
4.74
7.13
13.00
20.17
25.75
27.63
